Data from 03 0.5 mM K2Cr2O7 0.2 mM BQDS 1 M H2SO4 5 min_Absorbance_0024.txt Node
Date: Thu Dec 09 17:46:44 EST 2021
User: kwabilab-user
Spectrometer: HDX00518
Trigger mode: 0
Integration Time (sec): 5.000000E-2
Scans to average: 50
Nonlinearity correction enabled: false
Boxcar width: 0
Storing dark spectrum: false
XAxis mode: Wavelengths
Number of Pixels in Spectrum: 2068
>>>>>Begin Spectral Data<<<<<
195.27	0.9003
195.642	0.4134
196.014	0.1655
196.386	0.5881
196.758	0.0593
197.129	0.0445
197.501	0.0922
197.872	0.1235
198.244	0.1488
198.615	0.1346
198.986	0.142
199.357	0.1455
199.728	0.1374
200.099	0.1485
200.47	0.1621
200.841	0.1469
201.212	0.1471
201.582	0.1448
201.953	0.1261
202.323	0.1353
202.694	0.1375
203.064	0.1332
203.434	0.1458
203.804	0.1507
204.174	0.1416
204.544	0.148
204.914	0.1627
205.284	0.1583
205.653	0.1391
206.023	0.1491
206.393	0.1706
206.762	0.1589
207.131	0.1721
207.501	0.162
207.87	0.1517
208.239	0.1446
208.608	0.169
208.977	0.1483
209.346	0.1717
209.715	0.1795
210.083	0.1802
210.452	0.171
210.82	0.1505
211.189	0.1835
211.557	0.1847
211.925	0.1741
212.294	0.1961
212.662	0.1895
213.03	0.2066
213.398	0.2112
213.766	0.2123
214.133	0.1986
214.501	0.2256
214.869	0.2281
215.236	0.2168
215.604	0.2232
215.971	0.259
216.338	0.282
216.705	0.2573
217.072	0.2786
217.439	0.2827
217.806	0.3321
218.173	0.3294
218.54	0.3621
218.907	0.3937
219.273	0.4362
219.64	0.4584
220.006	0.5003
220.373	0.5227
220.739	0.5581
221.105	0.6176
221.471	0.6086
221.837	0.6793
222.203	0.712
222.569	0.7489
222.935	0.7711
223.3	0.8067
223.666	0.8451
224.031	0.8977
224.397	0.9059
224.762	0.9379
225.127	0.9607
225.493	0.9916
225.858	1.0252
226.223	1.0427
226.588	1.0559
226.952	1.0625
227.317	1.0938
227.682	1.0884
228.046	1.0909
228.411	1.1144
228.775	1.126
229.14	1.1082
229.504	1.1159
229.868	1.1318
230.232	1.1341
230.596	1.1303
230.96	1.1452
231.324	1.1135
231.688	1.1171
232.052	1.1078
232.415	1.104
232.779	1.0976
233.142	1.1049
233.505	1.0875
233.869	1.0933
234.232	1.0838
234.595	1.0649
234.958	1.0553
235.321	1.0527
235.684	1.0437
236.047	1.0372
236.409	1.0254
236.772	1.0151
237.134	1.0114
237.497	1.0001
237.859	1.0006
238.222	0.9961
238.584	0.978
238.946	0.9747
239.308	0.9671
239.67	0.9553
240.032	0.9525
240.393	0.9441
240.755	0.9397
241.117	0.9338
241.478	0.9272
241.84	0.9241
242.201	0.9164
242.562	0.914
242.924	0.9044
243.285	0.905
243.646	0.8979
244.007	0.8927
244.368	0.8923
244.728	0.8831
245.089	0.8815
245.45	0.874
245.81	0.8726
246.171	0.8684
246.531	0.8662
246.891	0.867
247.252	0.858
247.612	0.8611
247.972	0.8539
248.332	0.8577
248.692	0.8535
249.051	0.8515
249.411	0.8478
249.771	0.8438
250.13	0.8456
250.49	0.8444
250.849	0.845
251.208	0.8437
251.568	0.8398
251.927	0.8435
252.286	0.8433
252.645	0.8395
253.004	0.8393
253.363	0.8345
253.721	0.8393
254.08	0.8349
254.439	0.8321
254.797	0.8335
255.155	0.8304
255.514	0.8295
255.872	0.8315
256.23	0.83
256.588	0.8318
256.946	0.8306
257.304	0.8272
257.662	0.8316
258.02	0.8298
258.377	0.8272
258.735	0.8278
259.093	0.8272
259.45	0.8255
259.807	0.8295
260.165	0.8259
260.522	0.8286
260.879	0.823
261.236	0.8233
261.593	0.8204
261.95	0.821
262.306	0.8177
262.663	0.8139
263.02	0.8191
263.376	0.8159
263.733	0.8156
264.089	0.8096
264.445	0.8087
264.802	0.8082
265.158	0.8088
265.514	0.8055
265.87	0.8028
266.226	0.8007
266.581	0.7992
266.937	0.8004
267.293	0.7963
267.648	0.7914
268.004	0.7888
268.359	0.7866
268.714	0.7855
269.07	0.7815
269.425	0.7806
269.78	0.7779
270.135	0.7752
270.49	0.7751
270.844	0.7712
271.199	0.7665
271.554	0.7635
271.908	0.7616
272.263	0.7561
272.617	0.7528
272.972	0.7497
273.326	0.7456
273.68	0.7408
274.034	0.738
274.388	0.734
274.742	0.7304
275.096	0.7283
275.45	0.7221
275.803	0.7164
276.157	0.7142
276.51	0.7086
276.864	0.7045
277.217	0.699
277.571	0.6953
277.924	0.688
278.277	0.6859
278.63	0.6796
278.983	0.6742
279.336	0.6694
279.688	0.6665
280.041	0.6591
280.394	0.6548
280.746	0.6483
281.099	0.6425
281.451	0.6353
281.803	0.6316
282.156	0.6274
282.508	0.6197
282.86	0.6152
283.212	0.6079
283.564	0.6033
283.916	0.5966
284.267	0.5923
284.619	0.5852
284.971	0.5806
285.322	0.5743
285.673	0.5684
286.025	0.5629
286.376	0.5592
286.727	0.5505
287.078	0.542
287.429	0.5364
287.78	0.5313
288.131	0.526
288.482	0.519
288.833	0.5106
289.183	0.5057
289.534	0.4998
289.884	0.4933
290.235	0.4861
290.585	0.4805
290.935	0.4746
291.285	0.468
291.635	0.4625
291.985	0.4559
292.335	0.45
292.685	0.442
293.035	0.437
293.384	0.4301
293.734	0.4245
294.083	0.4186
294.433	0.4136
294.782	0.4066
295.131	0.4008
295.48	0.3941
295.829	0.3884
296.179	0.3825
296.527	0.3767
296.876	0.3708
297.225	0.3659
297.574	0.36
297.922	0.3541
298.271	0.3483
298.619	0.3429
298.968	0.3386
299.316	0.3327
299.664	0.3283
300.012	0.3231
300.36	0.3184
300.708	0.3134
301.056	0.3086
301.404	0.3032
301.752	0.2991
302.099	0.2955
302.447	0.2909
302.794	0.287
303.142	0.283
303.489	0.2789
303.836	0.2753
304.183	0.2717
304.531	0.2683
304.878	0.2652
305.224	0.2612
305.571	0.2583
305.918	0.2553
306.265	0.2524
306.611	0.2501
306.958	0.247
307.304	0.2448
307.651	0.2414
307.997	0.2398
308.343	0.2374
308.689	0.2358
309.035	0.2336
309.381	0.2325
309.727	0.23
310.073	0.2284
310.419	0.2272
310.764	0.2259
311.11	0.2241
311.455	0.2234
311.801	0.222
312.146	0.2225
312.491	0.2209
312.837	0.2205
313.182	0.2198
313.527	0.2196
313.872	0.2192
314.216	0.2188
314.561	0.219
314.906	0.2188
315.251	0.2181
315.595	0.2184
315.94	0.2193
316.284	0.2197
316.628	0.2191
316.972	0.2205
317.317	0.221
317.661	0.2221
318.005	0.222
318.348	0.2222
318.692	0.2236
319.036	0.2248
319.38	0.2257
319.723	0.2263
320.067	0.2274
320.41	0.2291
320.754	0.2297
321.097	0.2313
321.44	0.2332
321.783	0.2347
322.126	0.2361
322.469	0.2376
322.812	0.2396
323.155	0.2415
323.498	0.2435
323.84	0.2447
324.183	0.2466
324.525	0.2487
324.868	0.2497
325.21	0.2523
325.552	0.2546
325.894	0.2563
326.236	0.2586
326.578	0.2602
326.92	0.2622
327.262	0.2648
327.604	0.2669
327.946	0.2689
328.287	0.2707
328.629	0.272
328.97	0.2758
329.312	0.2777
329.653	0.2801
329.994	0.2825
330.335	0.2847
330.676	0.2877
331.017	0.2899
331.358	0.2926
331.699	0.2953
332.04	0.2965
332.38	0.2999
332.721	0.301
333.061	0.3051
333.402	0.3065
333.742	0.3093
334.083	0.3113
334.423	0.3134
334.763	0.3149
335.103	0.317
335.443	0.3198
335.783	0.3213
336.123	0.3233
336.462	0.3249
336.802	0.3268
337.141	0.3289
337.481	0.3307
337.82	0.3328
338.16	0.3347
338.499	0.3363
338.838	0.3388
339.177	0.3411
339.516	0.3428
339.855	0.344
340.194	0.3469
340.533	0.3483
340.872	0.3493
341.21	0.3515
341.549	0.3518
341.887	0.3537
342.226	0.3555
342.564	0.3564
342.902	0.3557
343.24	0.3578
343.578	0.3587
343.916	0.3589
344.254	0.3595
344.592	0.3598
344.93	0.3607
345.268	0.3612
345.605	0.3619
345.943	0.362
346.28	0.363
346.618	0.3626
346.955	0.363
347.292	0.3637
347.629	0.3642
347.966	0.3652
348.303	0.3652
348.64	0.3643
348.977	0.365
349.314	0.3661
349.65	0.3653
349.987	0.3653
350.324	0.3647
350.66	0.3654
350.996	0.3646
351.333	0.3638
351.669	0.3629
352.005	0.3621
352.341	0.3615
352.677	0.3598
353.013	0.3589
353.349	0.3575
353.685	0.356
354.02	0.3548
354.356	0.3535
354.691	0.3524
355.027	0.3502
355.362	0.349
355.697	0.3474
356.033	0.346
356.368	0.3445
356.703	0.3428
357.038	0.3423
357.373	0.3401
357.707	0.3397
358.042	0.3382
358.377	0.3371
358.711	0.3349
359.046	0.3341
359.38	0.3322
359.715	0.3316
360.049	0.3289
360.383	0.3272
360.717	0.325
361.051	0.3231
361.385	0.3206
361.719	0.3191
362.053	0.3159
362.387	0.3129
362.72	0.3117
363.054	0.3082
363.387	0.3061
363.721	0.3027
364.054	0.301
364.387	0.2977
364.721	0.2955
365.054	0.2925
365.387	0.2898
365.72	0.287
366.053	0.2851
366.385	0.2836
366.718	0.2813
367.051	0.2784
367.383	0.2752
367.716	0.2735
368.048	0.2729
368.381	0.2697
368.713	0.2677
369.045	0.2656
369.377	0.2641
369.709	0.2622
370.041	0.2593
370.373	0.2579
370.705	0.2552
371.037	0.2533
371.368	0.2506
371.7	0.2474
372.031	0.2447
372.363	0.2428
372.694	0.2399
373.025	0.237
373.356	0.2342
373.688	0.2311
374.019	0.2278
374.35	0.2249
374.68	0.2223
375.011	0.2195
375.342	0.2163
375.673	0.2135
376.003	0.2111
376.334	0.2083
376.664	0.205
376.995	0.2028
377.325	0.2004
377.655	0.1983
377.985	0.1953
378.315	0.1929
378.645	0.1919
378.975	0.1894
379.305	0.1869
379.635	0.1853
379.964	0.1839
380.294	0.1816
380.623	0.1798
380.953	0.1766
381.282	0.1758
381.611	0.1735
381.941	0.1717
382.27	0.1696
382.599	0.1684
382.928	0.1656
383.257	0.1639
383.585	0.1613
383.914	0.1588
384.243	0.1568
384.571	0.1536
384.9	0.1511
385.228	0.1485
385.557	0.1466
385.885	0.1435
386.213	0.1417
386.541	0.1396
386.869	0.1365
387.197	0.135
387.525	0.1315
387.853	0.1296
388.181	0.1279
388.508	0.1255
388.836	0.1229
389.164	0.1213
389.491	0.12
389.818	0.1184
390.146	0.1167
390.473	0.114
390.8	0.1127
391.127	0.111
391.454	0.1097
391.781	0.1081
392.108	0.1065
392.435	0.105
392.761	0.1037
393.088	0.1019
393.415	0.1008
393.741	0.0995
394.067	0.0982
394.394	0.0969
394.72	0.0957
395.046	0.0951
395.372	0.0937
395.698	0.0919
396.024	0.0907
396.35	0.0895
396.676	0.0884
397.001	0.0868
397.327	0.0845
397.653	0.0843
397.978	0.0819
398.303	0.0813
398.629	0.0803
398.954	0.079
399.279	0.0782
399.604	0.0765
399.929	0.075
400.254	0.0746
400.579	0.074
400.904	0.0728
401.229	0.0721
401.553	0.0706
401.878	0.0703
402.202	0.0686
402.527	0.0684
402.851	0.0677
403.175	0.0669
403.5	0.0665
403.824	0.066
404.148	0.0651
404.472	0.0645
404.796	0.064
405.119	0.0639
405.443	0.0628
405.767	0.0625
406.09	0.0623
406.414	0.0619
406.737	0.0614
407.061	0.062
407.384	0.0614
407.707	0.061
408.03	0.06
408.353	0.0603
408.676	0.0599
408.999	0.0591
409.322	0.0596
409.645	0.0594
409.968	0.0585
410.29	0.059
410.613	0.0584
410.935	0.0585
411.258	0.0588
411.58	0.0584
411.902	0.0582
412.224	0.0581
412.546	0.0583
412.868	0.058
413.19	0.0578
413.512	0.0575
413.834	0.0571
414.156	0.0577
414.477	0.0576
414.799	0.0569
415.121	0.0581
415.442	0.0576
415.763	0.0576
416.085	0.0587
416.406	0.0575
416.727	0.0571
417.048	0.0581
417.369	0.0578
417.69	0.0581
418.011	0.0577
418.331	0.0582
418.652	0.0582
418.973	0.0582
419.293	0.0582
419.614	0.0588
419.934	0.0593
420.254	0.0586
420.574	0.0586
420.895	0.0584
421.215	0.0584
421.535	0.0586
421.855	0.058
422.174	0.0584
422.494	0.0585
422.814	0.0582
423.134	0.0591
423.453	0.0593
423.773	0.0591
424.092	0.0599
424.411	0.0589
424.731	0.0597
425.05	0.0597
425.369	0.0592
425.688	0.0604
426.007	0.06
426.326	0.0597
426.644	0.0604
426.963	0.0604
427.282	0.0601
427.6	0.0603
427.919	0.0607
428.237	0.0606
428.556	0.0613
428.874	0.0611
429.192	0.0612
429.51	0.0607
429.828	0.0615
430.146	0.0608
430.464	0.0611
430.782	0.0612
431.1	0.0612
431.418	0.0609
431.735	0.0618
432.053	0.0623
432.37	0.0613
432.688	0.0615
433.005	0.0619
433.322	0.0618
433.639	0.062
433.957	0.0621
434.274	0.0623
434.591	0.0621
434.907	0.0621
435.224	0.0627
435.541	0.0629
435.858	0.064
436.174	0.0633
436.491	0.0632
436.807	0.0622
437.124	0.0632
437.44	0.0626
437.756	0.0623
438.072	0.0623
438.388	0.0626
438.704	0.0626
439.02	0.0626
439.336	0.0618
439.652	0.0629
439.968	0.0628
440.283	0.0628
440.599	0.063
440.914	0.0624
441.23	0.062
441.545	0.0617
441.86	0.0623
442.175	0.0619
442.491	0.0622
442.806	0.0625
443.121	0.0634
443.435	0.0625
443.75	0.0622
444.065	0.0627
444.38	0.0624
444.694	0.0626
445.009	0.0622
445.323	0.0623
445.638	0.0618
445.952	0.0619
446.266	0.0619
446.58	0.0619
446.894	0.0617
447.208	0.0616
447.522	0.061
447.836	0.0613
448.15	0.0607
448.464	0.061
448.777	0.0606
449.091	0.0598
449.404	0.061
449.718	0.0607
450.031	0.0605
450.345	0.0594
450.658	0.0605
450.971	0.0604
451.284	0.0592
451.597	0.0602
451.91	0.0598
452.223	0.0593
452.535	0.0592
452.848	0.0603
453.161	0.0597
453.473	0.0595
453.786	0.06
454.098	0.0585
454.411	0.0598
454.723	0.0586
455.035	0.0589
455.347	0.0582
455.659	0.0579
455.971	0.0567
456.283	0.0576
456.595	0.0568
456.907	0.0573
457.218	0.057
457.53	0.0565
457.841	0.0556
458.153	0.0563
458.464	0.0563
458.776	0.0566
459.087	0.0553
459.398	0.0544
459.709	0.0553
460.02	0.0552
460.331	0.0548
460.642	0.0544
460.953	0.0549
461.263	0.0547
461.574	0.054
461.885	0.0547
462.195	0.0536
462.506	0.0541
462.816	0.0533
463.126	0.0528
463.437	0.0534
463.747	0.0527
464.057	0.0526
464.367	0.0522
464.677	0.0514
464.987	0.0513
465.296	0.0516
465.606	0.0511
465.916	0.0508
466.225	0.0509
466.535	0.0497
466.844	0.0501
467.154	0.0501
467.463	0.0497
467.772	0.0483
468.081	0.0494
468.39	0.0487
468.699	0.0485
469.008	0.0487
469.317	0.0481
469.626	0.0481
469.935	0.0482
470.243	0.0475
470.552	0.0472
470.86	0.0458
471.169	0.0451
471.477	0.0461
471.785	0.0456
472.093	0.0454
472.402	0.0445
472.71	0.0451
473.018	0.0445
473.326	0.0438
473.633	0.0439
473.941	0.0438
474.249	0.0431
474.556	0.0432
474.864	0.0426
475.171	0.0423
475.479	0.0421
475.786	0.0418
476.094	0.0414
476.401	0.0424
476.708	0.0405
477.015	0.0408
477.322	0.0407
477.629	0.0404
477.936	0.0403
478.242	0.0394
478.549	0.0394
478.856	0.0384
479.162	0.0378
479.469	0.0389
479.775	0.0374
480.081	0.0376
480.388	0.0374
480.694	0.038
481	0.0374
481.306	0.0372
481.612	0.0367
481.918	0.0374
482.224	0.0361
482.53	0.0355
482.835	0.0353
483.141	0.0352
483.446	0.0347
483.752	0.0344
484.057	0.0343
484.363	0.0335
484.668	0.0333
484.973	0.0327
485.278	0.0332
485.583	0.0333
485.888	0.0311
486.193	0.0314
486.498	0.0322
486.803	0.0322
487.107	0.0308
487.412	0.03
487.717	0.0309
488.021	0.0302
488.325	0.0295
488.63	0.0301
488.934	0.0289
489.238	0.0282
489.542	0.0291
489.846	0.0292
490.15	0.0277
490.454	0.0279
490.758	0.0279
491.062	0.0271
491.366	0.0272
491.669	0.0271
491.973	0.0278
492.276	0.0269
492.58	0.0267
492.883	0.0259
493.186	0.0259
493.489	0.0258
493.792	0.0258
494.096	0.0244
494.399	0.0254
494.701	0.0247
495.004	0.0237
495.307	0.0244
495.61	0.0246
495.912	0.0233
496.215	0.0235
496.517	0.0226
496.82	0.0225
497.122	0.0226
497.424	0.022
497.727	0.021
498.029	0.0219
498.331	0.0203
498.633	0.0205
498.935	0.0206
499.237	0.0204
499.538	0.0204
499.84	0.0215
500.142	0.0204
500.443	0.0205
500.745	0.0199
501.046	0.02
501.348	0.0195
501.649	0.0191
501.95	0.0191
502.251	0.0187
502.552	0.0184
502.853	0.0188
503.154	0.0187
503.455	0.0191
503.756	0.0176
504.057	0.0176
504.357	0.0172
504.658	0.0179
504.958	0.0167
505.259	0.0168
505.559	0.017
505.859	0.0165
506.16	0.0168
506.46	0.0156
506.76	0.0154
507.06	0.015
507.36	0.0158
507.66	0.016
507.96	0.0146
508.259	0.0141
508.559	0.015
508.859	0.0145
509.158	0.0146
509.457	0.0141
509.757	0.0131
510.056	0.0134
510.355	0.0134
510.655	0.0132
510.954	0.0129
511.253	0.0133
511.552	0.0123
511.851	0.0126
512.149	0.0119
512.448	0.0121
512.747	0.0124
513.045	0.0115
513.344	0.0105
513.642	0.0121
513.941	0.0116
514.239	0.0118
514.537	0.0121
514.836	0.0119
515.134	0.0113
515.432	0.0125
515.73	0.0114
516.028	0.0106
516.326	0.0103
516.623	0.0099
516.921	0.0102
517.219	0.0113
517.516	0.0107
517.814	0.0105
518.111	0.0097
518.409	0.0092
518.706	0.0104
519.003	0.0088
519.3	0.0097
519.597	0.0094
519.894	0.0087
520.191	0.0094
520.488	0.0105
520.785	0.009
521.082	0.0096
521.378	0.0095
521.675	0.0088
521.971	0.0095
522.268	0.0096
522.564	0.0079
522.861	0.0078
523.157	0.0076
523.453	0.0085
523.749	0.0079
524.045	0.0075
524.341	0.0075
524.637	0.0075
524.933	0.0069
525.229	0.008
525.524	0.0066
525.82	0.006
526.115	0.0067
526.411	0.0068
526.706	0.0058
527.002	0.0056
527.297	0.0061
527.592	0.0063
527.887	0.005
528.182	0.0056
528.477	0.0051
528.772	0.0052
529.067	0.006
529.362	0.0052
529.657	0.0058
529.951	0.0059
530.246	0.0057
530.54	0.006
530.835	0.0054
531.129	0.0065
531.423	0.0045
531.718	0.0049
532.012	0.0043
532.306	0.0055
532.6	0.0058
532.894	0.0048
533.188	0.0043
533.482	0.0051
533.775	0.0049
534.069	0.0045
534.363	0.0039
534.656	0.0047
534.95	0.003
535.243	0.0031
535.536	0.005
535.83	0.0035
536.123	0.0041
536.416	0.0043
536.709	0.0037
537.002	0.0037
537.295	0.0033
537.588	0.0029
537.881	0.0042
538.173	0.0039
538.466	0.0039
538.759	0.0031
539.051	0.0039
539.344	0.0039
539.636	0.0034
539.928	0.0032
540.22	0.004
540.513	0.0037
540.805	0.0037
541.097	0.0038
541.389	0.0039
541.681	0.004
541.972	0.0037
542.264	0.0035
542.556	0.0044
542.847	0.0028
543.139	0.0027
543.431	0.0026
543.722	0.0032
544.013	0.0011
544.305	0.0029
544.596	0.002
544.887	0.002
545.178	0.0016
545.469	0.0017
545.76	0.0041
546.051	0.0035
546.342	0.0016
546.632	0.0035
546.923	0.0025
547.214	0.0021
547.504	0.0027
547.795	0.002
548.085	0.0033
548.375	0.0019
548.666	0.0021
548.956	0.004
549.246	0.0026
549.536	0.0034
549.826	0.0032
550.116	0.0029
550.406	0.0022
550.695	0.0033
550.985	0.0024
551.275	0.0029
551.564	0.0025
551.854	0.0032
552.143	0.0033
552.433	0.0024
552.722	0.0021
553.011	0.0024
553.3	0.0028
553.589	0.0033
553.879	0.002
554.167	0.0024
554.456	0.0013
554.745	0.0033
555.034	0.0018
555.323	0.0003
555.611	0.0009
555.9	0.0016
556.188	0.0015
556.477	0.002
556.765	0.0024
557.053	0.0022
557.342	0.0025
557.63	0.0025
557.918	0.0023
558.206	0.0032
558.494	0.0033
558.782	0.0037
559.069	0.0032
559.357	0.0041
559.645	0.0033
559.932	0.0022
560.22	0.0034
560.507	0.0022
560.795	0.0029
561.082	0.0013
561.37	0.0028
561.657	0.0026
561.944	0.002
562.231	0.0015
562.518	0.0018
562.805	0.0015
563.092	0.0013
563.379	0.0016
563.665	0.0018
563.952	0.0022
564.239	0.0029
564.525	0.0028
564.811	0.0034
565.098	0.0022
565.384	0.0031
565.67	0.0036
565.957	0.0035
566.243	0.0031
566.529	0.0033
566.815	0.0015
567.101	0.0023
567.387	0.0027
567.672	0.0015
567.958	0.0029
568.244	0.0024
568.529	0.0019
568.815	0.0023
569.1	0.0025
569.386	0.0033
569.671	0.0034
569.956	0.0036
570.242	0.0036
570.527	0.0038
570.812	0.0025
571.097	0.0031
571.382	0.0026
571.666	0.0032
571.951	0.0029
572.236	0.0035
572.521	0.0027
572.805	0.003
573.09	0.0025
573.374	0.0019
573.659	0.0034
573.943	0.0032
574.227	0.0031
574.511	0.0022
574.795	0.0033
575.079	0.0032
575.363	0.0019
575.647	0.0029
575.931	0.0023
576.215	0.0019
576.499	0.0017
576.782	0.0034
577.066	0.0016
577.349	0.0026
577.633	0.002
577.916	0.002
578.2	0.0028
578.483	0.0032
578.766	0.0028
579.049	0.0036
579.332	0.0028
579.615	0.0021
579.898	0.0025
580.181	0.003
580.464	0.0024
580.746	0.0019
581.029	0.0031
581.312	0.0019
581.594	0.0014
581.877	0.0033
582.159	0.0017
582.441	0.0021
582.724	0.0023
583.006	0.0032
583.288	0.0019
583.57	0.0033
583.852	0.0024
584.134	0.0018
584.416	0.0021
584.697	0.0026
584.979	0.0022
585.261	0.0016
585.542	0.003
585.824	0.0018
586.105	0.0026
586.387	0.0031
586.668	0.0025
586.949	0.0014
587.231	0.0025
587.512	0.0026
587.793	0.0028
588.074	0.0026
588.355	0.0023
588.636	0.002
588.916	0.0026
589.197	0.0025
589.478	0.0019
589.758	0.0021
590.039	0.0017
590.319	0.0024
590.6	0.002
590.88	0.0023
591.16	0.0016
591.441	0.0014
591.721	0.0018
592.001	0.0014
592.281	0.0013
592.561	0.0016
592.841	0.0013
593.12	0.0024
593.4	0.0008
593.68	0.0016
593.959	0.0024
594.239	0.0035
594.518	0.003
594.798	0.0024
595.077	0.0028
595.356	0.0024
595.636	0.0024
595.915	0.0024
596.194	0.0025
596.473	0.002
596.752	0.0024
597.031	0.0009
597.31	0.0013
597.588	0.0022
597.867	0.0019
598.146	0.0016
598.424	0.0019
598.703	0.001
598.981	0.0015
599.259	0.0016
599.538	0.0024
599.816	0.0022
600.094	0.0012
600.372	0.002
600.65	0.0017
600.928	0.0014
601.206	0.0005
601.484	0.0015
601.762	0.0009
602.04	0.0008
602.317	0.0018
602.595	0.0016
602.872	0.0016
603.15	0.0014
603.427	0.0021
603.704	0.0027
603.982	0.0026
604.259	0.002
604.536	0.0023
604.813	0.0019
605.09	0.0016
605.367	0.0014
605.644	0.0007
605.921	0.0008
606.197	-0.0004
606.474	0.0009
606.751	0.0008
607.027	0.0008
607.304	0.0012
607.58	0.0015
607.856	0.0014
608.133	0.0022
608.409	0.0008
608.685	0.0015
608.961	0.0003
609.237	0.0016
609.513	0.0012
609.789	0.0011
610.065	0.0013
610.341	0.0015
610.616	0.0019
610.892	0.0021
611.167	0.002
611.443	0.0028
611.718	0.0023
611.994	0.0027
612.269	0.003
612.544	0.0022
612.819	0.0027
613.095	0.0023
613.37	0.0024
613.645	0.0025
613.919	0.0026
614.194	0.0032
614.469	0.0024
614.744	0.0025
615.019	0.0025
615.293	0.0017
615.568	0.0017
615.842	0.0023
616.116	0.0017
616.391	0.0008
616.665	0.0014
616.939	0.0011
617.213	0.0022
617.488	0.0016
617.762	0.0017
618.035	0.0021
618.309	0.0008
618.583	0.0017
618.857	0.0015
619.131	0.0009
619.404	0.0009
619.678	0.0015
619.951	0.0009
620.225	0.0006
620.498	0.0014
620.771	0.0011
621.045	0.0021
621.318	0.001
621.591	0.0014
621.864	0.002
622.137	0.0026
622.41	0.0029
622.683	0.0029
622.956	0.0019
623.228	0.001
623.501	0.0018
623.774	0.0009
624.046	0.0012
624.319	0.0019
624.591	0.0004
624.863	0.0016
625.136	0.0002
625.408	0.0012
625.68	0.0009
625.952	0.0011
626.224	0.0002
626.496	0.0005
626.768	0.0005
627.04	0.0005
627.311	-0.0003
627.583	-0.0002
627.855	0.0005
628.126	0.0004
628.398	0.0006
628.669	-0.0009
628.941	0.0002
629.212	0.0001
629.483	0.0011
629.755	0.0001
630.026	0.0013
630.297	0.0014
630.568	0.0002
630.839	0.0015
631.11	-0.0004
631.38	0.0001
631.651	-0.0005
631.922	0.0001
632.192	0.0003
632.463	0.0003
632.733	0.0012
633.004	0.0012
633.274	0.0016
633.545	0.0017
633.815	0.002
634.085	0.0005
634.355	0.0015
634.625	0.0019
634.895	0.0036
635.165	0.0032
635.435	0.0028
635.705	0.0009
635.974	0.0012
636.244	0.0009
636.514	0.0025
636.783	0.0016
637.053	0.0024
637.322	0.0024
637.591	0.0018
637.861	0.0008
638.13	0.0009
638.399	0.0012
638.668	0.0009
638.937	0.0003
639.206	0.0017
639.475	0.0019
639.744	0.0008
640.013	0.0018
640.281	0.0019
640.55	0.0008
640.819	0.0019
641.087	0.0016
641.356	0.0034
641.624	0.0029
641.892	0.002
642.161	0.0019
642.429	0.0021
642.697	0.0014
642.965	0.0022
643.233	0.0008
643.501	0.0015
643.769	-0.0001
644.037	0.0011
644.305	-0.0002
644.572	0.0004
644.84	-0.0013
645.108	-0.001
645.375	-0.0012
645.643	-0.0021
645.91	-0.001
646.177	-0.0011
646.445	-0.0028
646.712	-0.0022
646.979	-0.0008
647.246	-0.0005
647.513	0.0004
647.78	0.0017
648.047	0.0021
648.314	0.0015
648.58	0.0008
648.847	0.0007
649.114	0.0005
649.38	-0.0007
649.647	-0.0001
649.913	-0.0004
650.18	-0.0004
650.446	-0.0013
650.712	-0.0011
650.978	-0.0019
651.245	-0.0013
651.511	-0.0006
651.777	0.0005
652.043	0.0003
652.309	-0.0002
652.574	-0.0005
652.84	-0.0008
653.106	-0.0016
653.371	-0.0009
653.637	-0.0016
653.903	-0.0003
654.168	-0.001
654.433	0.0002
654.699	0.0025
654.964	0.002
655.229	0.0014
655.494	0.0006
655.759	-0.0019
656.024	0.0007
656.289	-0
656.554	0.0037
656.819	0.0014
657.084	0.0007
657.349	-0.0004
657.613	0.0008
657.878	0.0011
658.142	-0.0003
658.407	0.0007
658.671	0.0011
658.936	0.0013
659.2	0.0009
659.464	0.0013
659.728	0.001
659.992	-0.0001
660.256	0.0001
660.52	-0.0004
660.784	0.0004
661.048	-0.0002
661.312	0.0003
661.575	-0.0006
661.839	-0.0009
662.103	-0.0004
662.366	-0.0004
662.63	0.0006
662.893	0.0017
663.156	0.0011
663.42	0.0011
663.683	-0
663.946	0.0001
664.209	0.0003
664.472	0.0009
664.735	0.0009
664.998	0.001
665.261	0.0006
665.524	-0.0002
665.786	0.001
666.049	0.0012
666.312	0.0015
666.574	0.0021
666.837	0.0021
667.099	0.0018
667.361	-0
667.624	-0.0005
667.886	0.0002
668.148	0.0004
668.41	0.0008
668.672	0.0005
668.934	0.0002
669.196	0.0014
669.458	0.0009
669.72	0.0017
669.982	0.0009
670.243	0.0001
670.505	0.0008
670.766	-0.0003
671.028	0.0009
671.289	0.0005
671.551	-0.0012
671.812	-0.0004
672.073	0.0005
672.334	-0.0001
672.596	0.0018
672.857	0.0014
673.118	0.0027
673.379	0.002
673.639	0.0009
673.9	0.0002
674.161	0.0002
674.422	-0.0006
674.682	-0.0011
674.943	-0
675.203	0.0016
675.464	0.0014
675.724	0.0015
675.985	0.0017
676.245	0.0018
676.505	0.0003
676.765	0.0002
677.025	0.0018
677.285	0.0004
677.545	0.0017
677.805	0.0008
678.065	0.0009
678.325	0.0033
678.585	0.0027
678.844	0.0018
679.104	0.0029
679.363	0.0015
679.623	0.0013
679.882	0.0013
680.142	0.0028
680.401	0.0016
680.66	0.0021
680.919	0.0015
681.178	0.0015
681.437	0.0025
681.696	0.0007
681.955	0.0023
682.214	0.002
682.473	0.0017
682.732	0.0014
682.99	0.0002
683.249	0.0014
683.508	0.0002
683.766	0.0013
684.024	0.0006
684.283	0.0008
684.541	0.0008
684.799	0.0017
685.058	0.0008
685.316	0.0013
685.574	0.0012
685.832	0.0008
686.09	0.0011
686.348	-0.0003
686.606	-0.0005
686.863	-0.0008
687.121	-0.0006
687.379	-0.0013
687.636	-0.0013
687.894	0.0001
688.151	0
688.409	-0.0004
688.666	0.0008
688.923	0.0001
689.181	0.0012
689.438	0.0007
689.695	0.0013
689.952	0.0034
690.209	0.0029
690.466	0.0025
690.723	0.0012
690.979	0.0012
691.236	-0.0003
691.493	0.001
691.75	0.0005
692.006	0.0009
692.263	0.0008
692.519	0.0002
692.775	0.0004
693.032	0.0005
693.288	-0
693.544	0.0003
693.8	0.0001
694.056	-0.0001
694.313	-0.001
694.568	0.0005
694.824	-0.0004
695.08	-0.0001
695.336	-0.0006
695.592	-0.0004
695.847	0.0002
696.103	-0.0016
696.359	-0.0001
696.614	-0.0009
696.869	-0.0005
697.125	-0.0013
697.38	0.0008
697.635	0.0005
697.891	0.0003
698.146	-0.0013
698.401	-0.0017
698.656	-0.0014
698.911	-0.001
699.166	-0.0024
699.42	-0.0021
699.675	-0.002
699.93	-0.001
700.185	-0.0008
700.439	0.001
700.694	0.0013
700.948	-0.0001
701.203	0.0005
701.457	0.0003
701.711	0.0003
701.965	0.0008
702.22	0.0011
702.474	0.002
702.728	0.002
702.982	0.0023
703.236	0.0013
703.49	0.0019
703.743	0.0004
703.997	-0.0005
704.251	-0.0003
704.504	-0.0007
704.758	0.0004
705.012	-0.0005
705.265	-0.0003
705.518	-0.0003
705.772	0.0003
706.025	0.0003
706.278	-0.0004
706.531	-0.0004
706.785	-0.0009
707.038	-0.0006
707.291	-0.0003
707.543	-0.0016
707.796	-0.0002
708.049	-0
708.302	0.0001
708.555	0.0014
708.807	0.0025
709.06	0.0014
709.312	0.0005
709.565	0.0002
709.817	-0
710.069	-0.0008
710.322	-0.0003
710.574	-0.0002
710.826	0.0002
711.078	0.0026
711.33	0.003
711.582	0.0031
711.834	0.0017
712.086	0.0012
712.338	0.0002
712.59	-0.0002
712.841	-0.0018
713.093	0.0005
713.344	-0.0017
713.596	-0.001
713.847	-0.0011
714.099	-0.0001
714.35	-0.0014
714.601	-0.0021
714.853	-0.0015
715.104	-0.0011
715.355	-0.0025
715.606	0.0004
715.857	-0.001
716.108	-0.0009
716.359	-0.001
716.609	-0.0021
716.86	-0.0025
717.111	-0.0014
717.361	-0.0026
717.612	-0.0031
717.863	-0.003
718.113	-0.0043
718.363	-0.0041
718.614	-0.0032
718.864	-0.0023
719.114	-0.0031
719.364	-0.0035
719.614	-0.0037
719.865	-0.0034
720.114	-0.0044
720.364	-0.0038
720.614	-0.0038
720.864	-0.0028
721.114	-0.0007
721.364	-0.0013
721.613	0.0001
721.863	-0.0001
722.112	0.0005
722.362	-0.001
722.611	-0.001
722.86	-0.0019
723.11	-0.0022
723.359	-0.0022
723.608	-0.0025
723.857	-0.0021
724.106	-0.0014
724.355	-0.0016
724.604	-0.0016
724.853	-0.0014
725.102	-0.0019
725.351	-0.0012
725.599	-0.0008
725.848	-0.0006
726.097	-0.0002
726.345	0.0015
726.594	0.0017
726.842	0.0012
727.09	-0.0005
727.339	-0.0009
727.587	-0.001
727.835	-0.0037
728.083	-0.0022
728.331	-0.0037
728.579	-0.0022
728.827	-0.0006
729.075	-0.0001
729.323	0.0008
729.571	0.0013
729.818	0.001
730.066	0.0006
730.314	0.0001
730.561	-0.0005
730.809	-0.0027
731.056	-0.0016
731.303	-0
731.551	-0.0005
731.798	-0.0021
732.045	-0.0003
732.292	0.0002
732.539	-0.0004
732.786	-0.0011
733.033	-0.0003
733.28	-0.0002
733.527	-0.0004
733.774	-0.0016
734.021	-0.0007
734.267	-0.0001
734.514	-0.0008
734.76	-0.0003
735.007	-0.0007
735.253	-0.002
735.5	-0.0008
735.746	-0.001
735.992	-0.0006
736.238	-0.0016
736.485	-0.0019
736.731	-0.0029
736.977	-0.0038
737.223	-0.0024
737.469	-0.0025
737.715	-0.0007
737.96	-0.0001
738.206	0.0016
738.452	0.0025
738.697	0.0029
738.943	0.0024
739.189	0.0017
739.434	0.0015
739.679	0.0021
739.925	0.0024
740.17	0.002
740.415	0.002
740.66	0.0019
740.906	0.0011
741.151	0.0018
741.396	0.0019
741.641	0.0018
741.886	0.0011
742.13	0.0007
742.375	0.0014
742.62	0.0001
742.865	0.0003
743.109	-0.0001
743.354	-0.0011
743.598	-0.0004
743.843	-0.0002
744.087	0.0002
744.331	0.0009
744.576	0.0006
744.82	-0.0013
745.064	-0.0005
745.308	-0.0009
745.552	-0.0014
745.796	-0.0006
746.04	-0.0004
746.284	-0.0006
746.528	-0.001
746.771	-0.001
747.015	-0.0005
747.259	-0.0014
747.502	0.0004
747.746	0
747.989	-0.0008
748.233	-0.0016
748.476	-0.0008
748.719	-0.0014
748.963	-0.0014
749.206	-0.0001
749.449	-0.001
749.692	0.0012
749.935	0.0012
750.178	-0.0003
750.421	-0.0014
750.664	-0.0028
750.906	-0.0031
751.149	-0.0033
751.392	-0.0043
751.635	-0.0037
751.877	-0.0021
752.12	-0.0029
752.362	-0.0026
752.604	-0.003
752.847	-0.0023
753.089	-0.0016
753.331	-0.0017
753.573	-0.0017
753.816	-0.0009
754.058	-0.0011
754.3	-0.0011
754.542	-0.0002
754.783	-0.0006
755.025	-0.0002
755.267	-0.0021
755.509	-0.0014
755.75	-0.0025
755.992	-0.0017
756.234	-0.0015
756.475	-0.0015
756.716	-0.0003
756.958	0
757.199	0.0006
757.44	-0.0019
757.682	-0.0028
757.923	-0.0007
758.164	-0.001
758.405	-0.0011
758.646	-0.0006
758.887	-0.0007
759.128	-0.0015
759.369	-0.0026
759.609	-0.0014
759.85	-0.0022
760.091	-0.0011
760.331	-0.0015
760.572	-0.0015
760.812	-0.0016
761.053	-0.0002
761.293	0.0008
761.533	-0.0002
761.774	0.0021
762.014	0.0009
762.254	0.0007
762.494	0.0008
762.734	0.0003
762.974	-0.0004
763.214	0.0001
763.454	-0.0001
763.694	-0.0009
763.933	0.0006
764.173	0.0011
764.413	0.0005
764.652	-0.0006
764.892	-0.0006
765.131	-0.0014
765.371	-0.0011
765.61	-0.0011
765.849	-0.0023
766.089	-0.0015
766.328	-0.0017
766.567	-0.001
766.806	-0.0014
767.045	-0.0004
767.284	0.0004
767.523	0.0002
767.762	-0.001
768.001	-0.0006
768.239	-0.0012
768.478	-0.0004
768.717	-0.0009
768.955	-0.0011
769.194	-0
769.432	0.0002
769.671	0.0007
769.909	0.0015
770.148	0.001
770.386	0.001
770.624	0.0003
770.862	0.0007
771.1	0.0011
771.338	0.001
771.576	0.0014
771.814	0.0015
772.052	0.0004
772.29	-0.0001
772.528	-0.0005
772.765	0.0006
773.003	0
773.24	0.0003
773.478	0.0017
773.716	0.0019
773.953	0.0032
774.19	0.0034
774.428	0.0032
774.665	0.0045
774.902	0.0045
775.139	0.0043
775.376	0.0035
775.613	0.0045
775.85	0.0041
776.087	0.005
776.324	0.0039
776.561	0.0051
776.798	0.0053
777.034	0.0066
777.271	0.0054
777.508	0.0049
777.744	0.0047
777.981	0.0042
778.217	0.0037
778.454	0.0033
778.69	0.0026
778.926	0.0011
779.162	0.0007
779.399	-0.0011
779.635	-0.0026
779.871	-0.0026
780.107	-0.0021
780.343	-0.0019
780.579	-0.0012
780.814	-0.0006
781.05	-0.0015
781.286	-0.0007
781.522	0.0008
781.757	0.0012
781.993	0.002
782.228	0.0018
782.464	0.0015
782.699	0.0009
782.934	0.0007
783.17	0.0008
783.405	0.0014
783.64	0.0013
783.875	0.0008
784.11	0.0026
784.345	0.0026
784.58	0.0024
784.815	0.0039
785.05	0.0019
785.285	0.0025
785.52	0.0026
785.754	0.0028
785.989	0.0019
786.223	0.0024
786.458	0.003
786.692	0.0033
786.927	0.0036
787.161	0.0031
787.396	0.0035
787.63	0.0044
787.864	0.0037
788.098	0.0035
788.332	0.0025
788.566	0.002
788.8	0.0014
789.034	0.002
789.268	0.0028
789.502	0.003
789.736	0.0036
789.969	0.004
790.203	0.0033
790.437	0.0023
790.67	0.0018
790.904	0.0015
791.137	0.0009
791.37	0.0007
791.604	0.0004
791.837	-0
792.07	0
792.303	-0.0004
792.537	-0.0012
792.77	-0.0016
793.003	-0.0016
793.236	-0.0013
793.469	0.0003
793.701	-0
793.934	-0.0003
794.167	-0.0008
794.4	-0
794.632	0.001
794.865	0.0001
795.097	0.0001
795.33	0.0001
795.562	0.0005
795.795	0.0012
796.027	0
796.259	-0.0013
796.491	-0.0014
796.724	-0.0007
796.956	0.0007
797.188	0
797.42	0.0007
797.652	0.0005
797.883	0
798.115	-0.0005
798.347	-0.0013
798.579	-0.0008
798.81	-0.0021
799.042	-0.0017
799.274	-0.0016
799.505	-0.0012
799.737	0.0003
799.968	0.0015
800.199	0.0014
800.431	0.0014
800.662	0.003
800.893	0.0024
801.124	0.0032
801.355	0.003
801.586	0.0048
801.817	0.0025
802.048	0.0015
802.279	0.0007
802.51	-0.0014
802.741	-0
802.971	-0.0002
803.202	-0.0011
803.433	-0.001
803.663	-0.001
803.894	-0.0009
804.124	-0.0002
804.354	-0.0012
804.585	-0.0007
804.815	-0.0001
805.045	-0.001
805.275	0.0001
805.506	-0.0743
805.736	0.1636
805.966	0.4596
806.196	0.3087
