Data from 03 0.5 mM K2Cr2O7 0.2 mM BQDS 1 M H2SO4 5 min_Absorbance_0017.txt Node
Date: Thu Dec 09 17:11:44 EST 2021
User: kwabilab-user
Spectrometer: HDX00518
Trigger mode: 0
Integration Time (sec): 5.000000E-2
Scans to average: 50
Nonlinearity correction enabled: false
Boxcar width: 0
Storing dark spectrum: false
XAxis mode: Wavelengths
Number of Pixels in Spectrum: 2068
>>>>>Begin Spectral Data<<<<<
195.27	0.3842
195.642	0.247
196.014	0.1797
196.386	0.4831
196.758	0.0405
197.129	0.0309
197.501	0.0877
197.872	0.1104
198.244	0.1352
198.615	0.1512
198.986	0.1331
199.357	0.1159
199.728	0.138
200.099	0.1263
200.47	0.1338
200.841	0.1221
201.212	0.1428
201.582	0.1312
201.953	0.1157
202.323	0.13
202.694	0.1344
203.064	0.127
203.434	0.1375
203.804	0.1412
204.174	0.1335
204.544	0.1416
204.914	0.1622
205.284	0.1445
205.653	0.1462
206.023	0.1516
206.393	0.1579
206.762	0.13
207.131	0.1446
207.501	0.1494
207.87	0.1638
208.239	0.1273
208.608	0.1594
208.977	0.1363
209.346	0.1633
209.715	0.1517
210.083	0.1477
210.452	0.1785
210.82	0.1585
211.189	0.1834
211.557	0.1608
211.925	0.1611
212.294	0.1585
212.662	0.1549
213.03	0.1743
213.398	0.1939
213.766	0.1823
214.133	0.1926
214.501	0.208
214.869	0.2076
215.236	0.2192
215.604	0.2174
215.971	0.2439
216.338	0.2615
216.705	0.2467
217.072	0.2926
217.439	0.2937
217.806	0.3303
218.173	0.3215
218.54	0.3537
218.907	0.3831
219.273	0.4254
219.64	0.4513
220.006	0.4766
220.373	0.5107
220.739	0.5468
221.105	0.5856
221.471	0.613
221.837	0.6557
222.203	0.7131
222.569	0.7353
222.935	0.78
223.3	0.8087
223.666	0.8404
224.031	0.8729
224.397	0.9056
224.762	0.9206
225.127	0.9638
225.493	0.996
225.858	1.0068
226.223	1.037
226.588	1.0582
226.952	1.0608
227.317	1.0933
227.682	1.0909
228.046	1.0897
228.411	1.1148
228.775	1.1211
229.14	1.1291
229.504	1.1365
229.868	1.1363
230.232	1.1243
230.596	1.131
230.96	1.1426
231.324	1.1271
231.688	1.1188
232.052	1.119
232.415	1.1177
232.779	1.1079
233.142	1.1117
233.505	1.1044
233.869	1.0994
234.232	1.0847
234.595	1.0739
234.958	1.0647
235.321	1.064
235.684	1.0553
236.047	1.0469
236.409	1.0345
236.772	1.0266
237.134	1.0274
237.497	1.0107
237.859	1.0049
238.222	1.0034
238.584	0.9945
238.946	0.9831
239.308	0.9778
239.67	0.9695
240.032	0.9615
240.393	0.9595
240.755	0.9523
241.117	0.9497
241.478	0.9395
241.84	0.934
242.201	0.9248
242.562	0.9224
242.924	0.9185
243.285	0.9137
243.646	0.911
244.007	0.9067
244.368	0.9005
244.728	0.8947
245.089	0.8919
245.45	0.8856
245.81	0.8865
246.171	0.8845
246.531	0.8778
246.891	0.8777
247.252	0.8785
247.612	0.8723
247.972	0.8659
248.332	0.8687
248.692	0.8669
249.051	0.8646
249.411	0.8616
249.771	0.8595
250.13	0.8563
250.49	0.856
250.849	0.8579
251.208	0.858
251.568	0.8525
251.927	0.8562
252.286	0.8516
252.645	0.8482
253.004	0.8489
253.363	0.8477
253.721	0.8485
254.08	0.8513
254.439	0.8459
254.797	0.8445
255.155	0.8444
255.514	0.8446
255.872	0.8457
256.23	0.8441
256.588	0.8473
256.946	0.8418
257.304	0.8427
257.662	0.8444
258.02	0.8398
258.377	0.8398
258.735	0.8452
259.093	0.8396
259.45	0.8411
259.807	0.841
260.165	0.8429
260.522	0.8403
260.879	0.8376
261.236	0.8366
261.593	0.8354
261.95	0.8354
262.306	0.8337
262.663	0.832
263.02	0.8313
263.376	0.8289
263.733	0.83
264.089	0.8298
264.445	0.8245
264.802	0.8235
265.158	0.824
265.514	0.8219
265.87	0.8161
266.226	0.8173
266.581	0.816
266.937	0.8149
267.293	0.8122
267.648	0.81
268.004	0.8052
268.359	0.8047
268.714	0.8017
269.07	0.7965
269.425	0.795
269.78	0.7953
270.135	0.7896
270.49	0.7875
270.844	0.7854
271.199	0.7817
271.554	0.7778
271.908	0.7764
272.263	0.7721
272.617	0.7673
272.972	0.7657
273.326	0.7629
273.68	0.7599
274.034	0.7556
274.388	0.7501
274.742	0.7493
275.096	0.7444
275.45	0.7395
275.803	0.7344
276.157	0.7298
276.51	0.726
276.864	0.7218
277.217	0.7158
277.571	0.7119
277.924	0.7066
278.277	0.7032
278.63	0.6975
278.983	0.6923
279.336	0.6876
279.688	0.6819
280.041	0.676
280.394	0.6728
280.746	0.6655
281.099	0.6608
281.451	0.6541
281.803	0.6485
282.156	0.6437
282.508	0.638
282.86	0.6333
283.212	0.6259
283.564	0.6182
283.916	0.6124
284.267	0.608
284.619	0.6009
284.971	0.5953
285.322	0.5894
285.673	0.5839
286.025	0.5775
286.376	0.5715
286.727	0.5645
287.078	0.5575
287.429	0.5513
287.78	0.5455
288.131	0.5401
288.482	0.533
288.833	0.5263
289.183	0.5206
289.534	0.5137
289.884	0.5081
290.235	0.4999
290.585	0.494
290.935	0.4876
291.285	0.4817
291.635	0.4753
291.985	0.4703
292.335	0.4635
292.685	0.4555
293.035	0.4504
293.384	0.4435
293.734	0.4367
294.083	0.4304
294.433	0.4243
294.782	0.4188
295.131	0.4124
295.48	0.4056
295.829	0.401
296.179	0.3944
296.527	0.3879
296.876	0.3823
297.225	0.3764
297.574	0.3708
297.922	0.3658
298.271	0.3589
298.619	0.3541
298.968	0.3492
299.316	0.3436
299.664	0.3386
300.012	0.3329
300.36	0.3279
300.708	0.3245
301.056	0.3188
301.404	0.3137
301.752	0.3106
302.099	0.3062
302.447	0.3018
302.794	0.2969
303.142	0.2936
303.489	0.2894
303.836	0.2853
304.183	0.2818
304.531	0.2781
304.878	0.275
305.224	0.2713
305.571	0.2682
305.918	0.2648
306.265	0.2619
306.611	0.2593
306.958	0.2565
307.304	0.2539
307.651	0.2511
307.997	0.2493
308.343	0.2471
308.689	0.2444
309.035	0.2427
309.381	0.2413
309.727	0.2395
310.073	0.2375
310.419	0.2364
310.764	0.2341
311.11	0.2334
311.455	0.2329
311.801	0.2313
312.146	0.231
312.491	0.2296
312.837	0.229
313.182	0.2281
313.527	0.2281
313.872	0.2279
314.216	0.2269
314.561	0.2278
314.906	0.2276
315.251	0.2272
315.595	0.2269
315.94	0.2274
316.284	0.228
316.628	0.2277
316.972	0.2291
317.317	0.2291
317.661	0.2302
318.005	0.2296
318.348	0.2311
318.692	0.2314
319.036	0.2332
319.38	0.2339
319.723	0.2356
320.067	0.2361
320.41	0.2378
320.754	0.2385
321.097	0.2407
321.44	0.2417
321.783	0.2435
322.126	0.2452
322.469	0.2467
322.812	0.2483
323.155	0.2492
323.498	0.2519
323.84	0.2537
324.183	0.2554
324.525	0.2574
324.868	0.2583
325.21	0.2617
325.552	0.2632
325.894	0.2649
326.236	0.2669
326.578	0.2692
326.92	0.2709
327.262	0.2733
327.604	0.2754
327.946	0.2771
328.287	0.2794
328.629	0.2824
328.97	0.2851
329.312	0.2867
329.653	0.2895
329.994	0.2914
330.335	0.294
330.676	0.2962
331.017	0.2988
331.358	0.3016
331.699	0.3049
332.04	0.3062
332.38	0.309
332.721	0.3109
333.061	0.3142
333.402	0.3153
333.742	0.3181
334.083	0.3211
334.423	0.3224
334.763	0.3243
335.103	0.3268
335.443	0.3285
335.783	0.3303
336.123	0.3329
336.462	0.3346
336.802	0.3359
337.141	0.3385
337.481	0.3407
337.82	0.3422
338.16	0.3438
338.499	0.3458
338.838	0.3483
339.177	0.3508
339.516	0.3524
339.855	0.3542
340.194	0.3553
340.533	0.3573
340.872	0.3596
341.21	0.3613
341.549	0.3618
341.887	0.3635
342.226	0.3653
342.564	0.3668
342.902	0.3666
343.24	0.3674
343.578	0.3679
343.916	0.369
344.254	0.3699
344.592	0.3695
344.93	0.3709
345.268	0.371
345.605	0.372
345.943	0.3722
346.28	0.3729
346.618	0.3733
346.955	0.3724
347.292	0.374
347.629	0.3749
347.966	0.3746
348.303	0.3757
348.64	0.3747
348.977	0.3754
349.314	0.3752
349.65	0.3746
349.987	0.3756
350.324	0.3751
350.66	0.3744
350.996	0.3735
351.333	0.3732
351.669	0.3729
352.005	0.3717
352.341	0.371
352.677	0.3692
353.013	0.3684
353.349	0.3679
353.685	0.3651
354.02	0.3645
354.356	0.3626
354.691	0.3624
355.027	0.3601
355.362	0.3587
355.697	0.3574
356.033	0.3558
356.368	0.354
356.703	0.3523
357.038	0.3517
357.373	0.3499
357.707	0.3492
358.042	0.3477
358.377	0.3452
358.711	0.3446
359.046	0.3437
359.38	0.3414
359.715	0.3409
360.049	0.338
360.383	0.3369
360.717	0.3349
361.051	0.3321
361.385	0.3298
361.719	0.3281
362.053	0.3242
362.387	0.322
362.72	0.3206
363.054	0.3169
363.387	0.3144
363.721	0.3115
364.054	0.3095
364.387	0.3066
364.721	0.3046
365.054	0.302
365.387	0.2987
365.72	0.2955
366.053	0.294
366.385	0.2918
366.718	0.2894
367.051	0.2869
367.383	0.2844
367.716	0.2821
368.048	0.2805
368.381	0.2782
368.713	0.2753
369.045	0.2739
369.377	0.2724
369.709	0.2701
370.041	0.2685
370.373	0.2655
370.705	0.2633
371.037	0.2604
371.368	0.2585
371.7	0.2567
372.031	0.2531
372.363	0.2502
372.694	0.2473
373.025	0.2448
373.356	0.2411
373.688	0.2378
374.019	0.2349
374.35	0.232
374.68	0.2298
375.011	0.226
375.342	0.2227
375.673	0.2204
376.003	0.218
376.334	0.2145
376.664	0.212
376.995	0.2096
377.325	0.2068
377.655	0.2047
377.985	0.2013
378.315	0.2001
378.645	0.1974
378.975	0.1958
379.305	0.1934
379.635	0.1912
379.964	0.1898
380.294	0.1879
380.623	0.1863
380.953	0.1836
381.282	0.1815
381.611	0.1791
381.941	0.1778
382.27	0.1756
382.599	0.1736
382.928	0.1707
383.257	0.1692
383.585	0.1665
383.914	0.1645
384.243	0.1623
384.571	0.1592
384.9	0.1568
385.228	0.1548
385.557	0.1514
385.885	0.1494
386.213	0.1468
386.541	0.1445
386.869	0.1416
387.197	0.1399
387.525	0.1362
387.853	0.1352
388.181	0.133
388.508	0.131
388.836	0.1276
389.164	0.1257
389.491	0.1247
389.818	0.1229
390.146	0.1208
390.473	0.1186
390.8	0.1171
391.127	0.1152
391.454	0.1136
391.781	0.112
392.108	0.1106
392.435	0.1087
392.761	0.1076
393.088	0.1059
393.415	0.1042
393.741	0.1033
394.067	0.102
394.394	0.1011
394.72	0.0995
395.046	0.0992
395.372	0.0971
395.698	0.0957
396.024	0.0941
396.35	0.093
396.676	0.0912
397.001	0.0904
397.327	0.0888
397.653	0.0882
397.978	0.0855
398.303	0.085
398.629	0.0833
398.954	0.0824
399.279	0.0812
399.604	0.0799
399.929	0.0787
400.254	0.0776
400.579	0.0764
400.904	0.076
401.229	0.0743
401.553	0.0739
401.878	0.0725
402.202	0.0718
402.527	0.0714
402.851	0.0703
403.175	0.0694
403.5	0.0692
403.824	0.068
404.148	0.0678
404.472	0.0676
404.796	0.0666
405.119	0.0662
405.443	0.066
405.767	0.065
406.09	0.0653
406.414	0.0643
406.737	0.0638
407.061	0.064
407.384	0.0637
407.707	0.0632
408.03	0.0628
408.353	0.0628
408.676	0.0621
408.999	0.0619
409.322	0.0615
409.645	0.0619
409.968	0.0613
410.29	0.061
410.613	0.0606
410.935	0.0607
411.258	0.0608
411.58	0.0606
411.902	0.0605
412.224	0.0602
412.546	0.0605
412.868	0.0609
413.19	0.0597
413.512	0.0596
413.834	0.0597
414.156	0.0589
414.477	0.0595
414.799	0.059
415.121	0.0592
415.442	0.0593
415.763	0.0598
416.085	0.0595
416.406	0.0592
416.727	0.0589
417.048	0.0596
417.369	0.0596
417.69	0.0599
418.011	0.0595
418.331	0.0602
418.652	0.0596
418.973	0.0597
419.293	0.0595
419.614	0.0602
419.934	0.0605
420.254	0.0606
420.574	0.0607
420.895	0.0597
421.215	0.0603
421.535	0.0603
421.855	0.0597
422.174	0.0603
422.494	0.06
422.814	0.0604
423.134	0.0608
423.453	0.0603
423.773	0.0609
424.092	0.0612
424.411	0.0609
424.731	0.0614
425.05	0.0616
425.369	0.0608
425.688	0.0617
426.007	0.0616
426.326	0.0615
426.644	0.0619
426.963	0.0613
427.282	0.0617
427.6	0.0613
427.919	0.0619
428.237	0.0619
428.556	0.0625
428.874	0.0623
429.192	0.0631
429.51	0.062
429.828	0.0631
430.146	0.0621
430.464	0.0627
430.782	0.0627
431.1	0.0617
431.418	0.0633
431.735	0.0628
432.053	0.0631
432.37	0.0627
432.688	0.0622
433.005	0.0634
433.322	0.0632
433.639	0.0634
433.957	0.0641
434.274	0.0632
434.591	0.0641
434.907	0.0635
435.224	0.0641
435.541	0.0649
435.858	0.0654
436.174	0.0648
436.491	0.0648
436.807	0.0637
437.124	0.0643
437.44	0.0636
437.756	0.0635
438.072	0.0642
438.388	0.0641
438.704	0.0639
439.02	0.0638
439.336	0.0637
439.652	0.0639
439.968	0.0637
440.283	0.0639
440.599	0.0639
440.914	0.0633
441.23	0.0635
441.545	0.0636
441.86	0.0634
442.175	0.0637
442.491	0.0631
442.806	0.0631
443.121	0.0639
443.435	0.0637
443.75	0.0639
444.065	0.0638
444.38	0.0636
444.694	0.0636
445.009	0.0635
445.323	0.0637
445.638	0.063
445.952	0.0629
446.266	0.0631
446.58	0.0628
446.894	0.0628
447.208	0.0629
447.522	0.0622
447.836	0.0624
448.15	0.0616
448.464	0.0619
448.777	0.0618
449.091	0.0616
449.404	0.0618
449.718	0.0613
450.031	0.0615
450.345	0.0613
450.658	0.0618
450.971	0.0613
451.284	0.0612
451.597	0.0621
451.91	0.0611
452.223	0.0608
452.535	0.0604
452.848	0.0611
453.161	0.0606
453.473	0.0609
453.786	0.0608
454.098	0.0603
454.411	0.0603
454.723	0.06
455.035	0.0596
455.347	0.0593
455.659	0.0588
455.971	0.0583
456.283	0.0586
456.595	0.0583
456.907	0.0585
457.218	0.0584
457.53	0.0579
457.841	0.0571
458.153	0.0575
458.464	0.0572
458.776	0.0578
459.087	0.056
459.398	0.0561
459.709	0.0563
460.02	0.0565
460.331	0.0556
460.642	0.0559
460.953	0.0557
461.263	0.0554
461.574	0.0553
461.885	0.0549
462.195	0.0546
462.506	0.0549
462.816	0.0547
463.126	0.0537
463.437	0.054
463.747	0.0538
464.057	0.0541
464.367	0.0534
464.677	0.0525
464.987	0.0536
465.296	0.0522
465.606	0.0522
465.916	0.0519
466.225	0.0521
466.535	0.0505
466.844	0.0507
467.154	0.0507
467.463	0.051
467.772	0.0495
468.081	0.0503
468.39	0.0496
468.699	0.0495
469.008	0.0493
469.317	0.0489
469.626	0.0492
469.935	0.0484
470.243	0.0477
470.552	0.0481
470.86	0.0466
471.169	0.0461
471.477	0.0467
471.785	0.0467
472.093	0.0465
472.402	0.0462
472.71	0.0455
473.018	0.0453
473.326	0.0452
473.633	0.044
473.941	0.044
474.249	0.0439
474.556	0.0435
474.864	0.0428
475.171	0.043
475.479	0.0426
475.786	0.0424
476.094	0.0429
476.401	0.0427
476.708	0.0414
477.015	0.0414
477.322	0.041
477.629	0.0414
477.936	0.0408
478.242	0.0406
478.549	0.0399
478.856	0.0397
479.162	0.0388
479.469	0.0392
479.775	0.0382
480.081	0.0385
480.388	0.0379
480.694	0.0387
481	0.0376
481.306	0.0383
481.612	0.0378
481.918	0.0379
482.224	0.0371
482.53	0.0367
482.835	0.0361
483.141	0.0359
483.446	0.0357
483.752	0.0351
484.057	0.035
484.363	0.0342
484.668	0.0342
484.973	0.0336
485.278	0.0336
485.583	0.0333
485.888	0.0331
486.193	0.032
486.498	0.0326
486.803	0.0322
487.107	0.0309
487.412	0.0308
487.717	0.0307
488.021	0.0297
488.325	0.0299
488.63	0.0302
488.934	0.0304
489.238	0.0297
489.542	0.0296
489.846	0.0289
490.15	0.0277
490.454	0.0278
490.758	0.0283
491.062	0.0282
491.366	0.0276
491.669	0.027
491.973	0.0271
492.276	0.0269
492.58	0.0273
492.883	0.0262
493.186	0.0262
493.489	0.0258
493.792	0.0256
494.096	0.0248
494.399	0.0251
494.701	0.0249
495.004	0.0247
495.307	0.0246
495.61	0.0253
495.912	0.0237
496.215	0.0244
496.517	0.0235
496.82	0.0233
497.122	0.0233
497.424	0.0226
497.727	0.0222
498.029	0.0222
498.331	0.0216
498.633	0.0219
498.935	0.0218
499.237	0.0211
499.538	0.0214
499.84	0.0212
500.142	0.0205
500.443	0.0215
500.745	0.0195
501.046	0.0201
501.348	0.02
501.649	0.0199
501.95	0.0203
502.251	0.0196
502.552	0.0188
502.853	0.019
503.154	0.0187
503.455	0.0187
503.756	0.0178
504.057	0.0185
504.357	0.0173
504.658	0.0176
504.958	0.0163
505.259	0.0167
505.559	0.0168
505.859	0.017
506.16	0.017
506.46	0.0164
506.76	0.0157
507.06	0.0157
507.36	0.0163
507.66	0.0163
507.96	0.0148
508.259	0.0145
508.559	0.0143
508.859	0.015
509.158	0.0154
509.457	0.015
509.757	0.0129
510.056	0.0137
510.355	0.0141
510.655	0.0139
510.954	0.0127
511.253	0.0138
511.552	0.0126
511.851	0.0128
512.149	0.0122
512.448	0.0128
512.747	0.0121
513.045	0.0113
513.344	0.0113
513.642	0.0127
513.941	0.0112
514.239	0.0129
514.537	0.012
514.836	0.013
515.134	0.0109
515.432	0.0116
515.73	0.0117
516.028	0.0104
516.326	0.0113
516.623	0.0109
516.921	0.0109
517.219	0.0115
517.516	0.0111
517.814	0.0108
518.111	0.0091
518.409	0.0089
518.706	0.01
519.003	0.01
519.3	0.0098
519.597	0.0099
519.894	0.0092
520.191	0.01
520.488	0.0095
520.785	0.0082
521.082	0.0092
521.378	0.0093
521.675	0.0082
521.971	0.0083
522.268	0.0094
522.564	0.008
522.861	0.0085
523.157	0.0076
523.453	0.0079
523.749	0.0068
524.045	0.0056
524.341	0.0071
524.637	0.0081
524.933	0.0075
525.229	0.0078
525.524	0.0076
525.82	0.0069
526.115	0.0058
526.411	0.0073
526.706	0.0057
527.002	0.0057
527.297	0.0063
527.592	0.0064
527.887	0.0056
528.182	0.0046
528.477	0.0054
528.772	0.0054
529.067	0.0053
529.362	0.0051
529.657	0.0059
529.951	0.006
530.246	0.0053
530.54	0.0053
530.835	0.0052
531.129	0.0064
531.423	0.0045
531.718	0.006
532.012	0.0048
532.306	0.0058
532.6	0.0046
532.894	0.0053
533.188	0.0038
533.482	0.0054
533.775	0.0053
534.069	0.0045
534.363	0.0033
534.656	0.0047
534.95	0.0047
535.243	0.0045
535.536	0.0055
535.83	0.0039
536.123	0.0043
536.416	0.0043
536.709	0.0042
537.002	0.0038
537.295	0.0037
537.588	0.0042
537.881	0.0039
538.173	0.0044
538.466	0.0033
538.759	0.0031
539.051	0.0043
539.344	0.0036
539.636	0.0037
539.928	0.0035
540.22	0.0026
540.513	0.0029
540.805	0.0029
541.097	0.0036
541.389	0.0032
541.681	0.0045
541.972	0.0033
542.264	0.0039
542.556	0.0035
542.847	0.0027
543.139	0.0023
543.431	0.0023
543.722	0.0023
544.013	0.0021
544.305	0.0031
544.596	0.0016
544.887	0.0022
545.178	0.0025
545.469	0.0019
545.76	0.0036
546.051	0.0031
546.342	0.0027
546.632	0.0033
546.923	0.0041
547.214	0.0025
547.504	0.0025
547.795	0.0022
548.085	0.0022
548.375	0.0026
548.666	0.0014
548.956	0.0027
549.246	0.0025
549.536	0.0024
549.826	0.0028
550.116	0.0022
550.406	0.0025
550.695	0.0046
550.985	0.0026
551.275	0.0023
551.564	0.0023
551.854	0.002
552.143	0.0022
552.433	0.0033
552.722	0.0021
553.011	0.0015
553.3	0.0021
553.589	0.0027
553.879	-0.0002
554.167	0.0025
554.456	0.0022
554.745	0.0027
555.034	0.002
555.323	0.0005
555.611	0.0009
555.9	0.0019
556.188	0.0016
556.477	0.0027
556.765	0.0025
557.053	0.002
557.342	0.0026
557.63	0.0015
557.918	0.0022
558.206	0.0034
558.494	0.0029
558.782	0.0022
559.069	0.0027
559.357	0.0035
559.645	0.0037
559.932	0.0023
560.22	0.0037
560.507	0.0015
560.795	0.0026
561.082	0.0016
561.37	0.0027
561.657	0.0032
561.944	0.0012
562.231	0.0018
562.518	0.0023
562.805	0.0014
563.092	0.0021
563.379	0.0012
563.665	0.0016
563.952	0.0012
564.239	0.0031
564.525	0.0025
564.811	0.0039
565.098	0.002
565.384	0.0029
565.67	0.0035
565.957	0.0029
566.243	0.0019
566.529	0.0034
566.815	0.002
567.101	0.0019
567.387	0.0028
567.672	0.0011
567.958	0.0027
568.244	0.0026
568.529	0.0024
568.815	0.0032
569.1	0.0017
569.386	0.0026
569.671	0.0033
569.956	0.0026
570.242	0.003
570.527	0.0031
570.812	0.0027
571.097	0.0026
571.382	0.0039
571.666	0.0035
571.951	0.003
572.236	0.0031
572.521	0.0029
572.805	0.0031
573.09	0.002
573.374	0.0021
573.659	0.004
573.943	0.0028
574.227	0.0031
574.511	0.0025
574.795	0.0025
575.079	0.0029
575.363	0.0018
575.647	0.0024
575.931	0.0021
576.215	0.0011
576.499	0.0011
576.782	0.0022
577.066	0.0011
577.349	0.002
577.633	0.0023
577.916	0.0022
578.2	0.0028
578.483	0.0028
578.766	0.0024
579.049	0.0028
579.332	0.0023
579.615	0.0019
579.898	0.0022
580.181	0.0019
580.464	0.0018
580.746	0.0023
581.029	0.0029
581.312	0.0018
581.594	0.0019
581.877	0.0027
582.159	0.0014
582.441	0.002
582.724	0.002
583.006	0.0022
583.288	0.0019
583.57	0.0029
583.852	0.0018
584.134	0.0017
584.416	0.0024
584.697	0.0022
584.979	0.0016
585.261	0.0014
585.542	0.002
585.824	0.0015
586.105	0.0021
586.387	0.0019
586.668	0.0027
586.949	0.0021
587.231	0.0021
587.512	0.0017
587.793	0.0021
588.074	0.0028
588.355	0.0013
588.636	0.002
588.916	0.0025
589.197	0.0029
589.478	0.0013
589.758	0.002
590.039	0.0014
590.319	0.0023
590.6	0.0017
590.88	0.0017
591.16	0.0013
591.441	0.0017
591.721	0.0015
592.001	0.0018
592.281	0.0012
592.561	0.0023
592.841	0.0016
593.12	0.0024
593.4	0.0009
593.68	0.0015
593.959	0.0023
594.239	0.002
594.518	0.0025
594.798	0.0019
595.077	0.0028
595.356	0.0018
595.636	0.0016
595.915	0.0025
596.194	0.0022
596.473	0.0018
596.752	0.0029
597.031	0.0018
597.31	0.0006
597.588	0.0021
597.867	0.0013
598.146	0.0017
598.424	0.0018
598.703	0.0013
598.981	0.0016
599.259	0.0015
599.538	0.0013
599.816	0.0016
600.094	0.0014
600.372	0.0011
600.65	0.0013
600.928	0.0011
601.206	-0.0002
601.484	0.0009
601.762	0.0001
602.04	0.0001
602.317	0.0006
602.595	0.0016
602.872	0.0016
603.15	0.0015
603.427	0.0022
603.704	0.0028
603.982	0.0024
604.259	0.0015
604.536	0.0019
604.813	0.0011
605.09	0.0014
605.367	0.0018
605.644	0.001
605.921	0.0002
606.197	0.0001
606.474	0.0011
606.751	0.0006
607.027	0.0012
607.304	0.0012
607.58	0.0015
607.856	0.0006
608.133	0.0014
608.409	0.0008
608.685	0.0018
608.961	0.0007
609.237	0.0012
609.513	0.0012
609.789	0.0007
610.065	0.0011
610.341	0.0014
610.616	0.0013
610.892	0.0009
611.167	0.0021
611.443	0.0031
611.718	0.0023
611.994	0.0017
612.269	0.0025
612.544	0.0017
612.819	0.002
613.095	0.0014
613.37	0.0024
613.645	0.0025
613.919	0.003
614.194	0.0033
614.469	0.0022
614.744	0.0022
615.019	0.0016
615.293	0.0014
615.568	0.0011
615.842	0.0011
616.116	0.0008
616.391	0.0013
616.665	0.0004
616.939	0.0011
617.213	0.0011
617.488	0.0001
617.762	0.0008
618.035	0.0007
618.309	0.0004
618.583	0.0016
618.857	0.0016
619.131	0.0008
619.404	0.0003
619.678	0
619.951	0.001
620.225	0.0009
620.498	0.0022
620.771	0.0016
621.045	0.0012
621.318	0.0018
621.591	0.0016
621.864	0.0015
622.137	0.003
622.41	0.0028
622.683	0.0024
622.956	0.0014
623.228	0.0006
623.501	0.0009
623.774	0.0006
624.046	0.0015
624.319	0.001
624.591	0.0006
624.863	0.0007
625.136	0.0001
625.408	0.0015
625.68	0.0006
625.952	0.0017
626.224	0.0009
626.496	-0.0007
626.768	0.0003
627.04	0.0001
627.311	-0.0006
627.583	-0.0003
627.855	0.0002
628.126	0.0003
628.398	0.0001
628.669	-0.0021
628.941	-0.0003
629.212	-0.0003
629.483	0.0002
629.755	0.0002
630.026	0.0013
630.297	0.0009
630.568	-0.0007
630.839	0.0007
631.11	-0.0006
631.38	-0.0006
631.651	0.0001
631.922	0.0004
632.192	-0.0003
632.463	0.0009
632.733	0.0009
633.004	0.0014
633.274	0.0009
633.545	0.0013
633.815	0.0017
634.085	0.0012
634.355	0.0024
634.625	0.0011
634.895	0.002
635.165	0.0019
635.435	0.0021
635.705	0.0006
635.974	-0.0003
636.244	0.0002
636.514	0.0017
636.783	0.0014
637.053	0.0031
637.322	0.0022
637.591	0.0008
637.861	0.0006
638.13	0.0011
638.399	0.001
638.668	0.0021
638.937	0.0007
639.206	0.0015
639.475	0.0014
639.744	0.0016
640.013	0.003
640.281	0.0027
640.55	0.0017
640.819	0.0024
641.087	0.0018
641.356	0.0031
641.624	0.0024
641.892	0.0005
642.161	0.0019
642.429	0.0024
642.697	0.0017
642.965	0.0025
643.233	0.0011
643.501	0.0008
643.769	0.0008
644.037	0.0004
644.305	0.001
644.572	0.0004
644.84	-0.0007
645.108	-0.0001
645.375	-0.0017
645.643	-0.0018
645.91	-0.0015
646.177	-0.0013
646.445	-0.0018
646.712	-0.0017
646.979	-0.001
647.246	-0.0007
647.513	0.0006
647.78	0.0009
648.047	0.0023
648.314	0.0022
648.58	0.0011
648.847	0.0011
649.114	0.0002
649.38	0.0003
649.647	-0
649.913	-0.0006
650.18	-0.0016
650.446	-0.0016
650.712	-0.0011
650.978	-0.0016
651.245	-0.0018
651.511	-0.0008
651.777	0.0003
652.043	0.0012
652.309	-0.0003
652.574	-0.0003
652.84	-0.0004
653.106	-0.0012
653.371	-0.0007
653.637	-0.0016
653.903	0.0002
654.168	0.0009
654.433	0.0006
654.699	0.0017
654.964	0.0023
655.229	0.0023
655.494	0.0013
655.759	-0.0007
656.024	0.0008
656.289	-0
656.554	0.0016
656.819	0.0007
657.084	0.0006
657.349	-0.0003
657.613	0.0013
657.878	0.0004
658.142	0.0001
658.407	0.0002
658.671	0.0005
658.936	0.0024
659.2	0.002
659.464	0.0013
659.728	0.0011
659.992	0.0008
660.256	0.0004
660.52	-0.0004
660.784	-0.0004
661.048	0.0008
661.312	0.0011
661.575	0.0002
661.839	-0.0005
662.103	-0.0005
662.366	-0.0006
662.63	0.0013
662.893	0.0018
663.156	0.0016
663.42	0.0012
663.683	0.0004
663.946	0.0016
664.209	0.0013
664.472	0.002
664.735	0.0018
664.998	0.0023
665.261	0.002
665.524	0.0005
665.786	0.001
666.049	0.0011
666.312	0.0022
666.574	0.0031
666.837	0.0012
667.099	0.0014
667.361	0.0001
667.624	-0.0006
667.886	-0.0006
668.148	0.0011
668.41	-0.0002
668.672	0.0005
668.934	0.0013
669.196	0.0009
669.458	0.0012
669.72	0.0017
669.982	0.0004
670.243	0.0008
670.505	0.0003
670.766	0.0002
671.028	0.0011
671.289	0.0006
671.551	-0.0003
671.812	0
672.073	0.0013
672.334	-0.0004
672.596	0.0012
672.857	0.0022
673.118	0.0028
673.379	0.0026
673.639	0.0021
673.9	0.0008
674.161	0.0013
674.422	0.0011
674.682	0.0012
674.943	0.0011
675.203	0.0021
675.464	0.0021
675.724	0.002
675.985	0.0017
676.245	0.0025
676.505	0.0004
676.765	0.0008
677.025	0.0008
677.285	0.0007
677.545	0.0006
677.805	0.0004
678.065	0.0011
678.325	0.002
678.585	0.0018
678.844	0.0018
679.104	0.002
679.363	0.002
679.623	0.0011
679.882	0.0013
680.142	0.0019
680.401	0.002
680.66	0.0014
680.919	0.0016
681.178	0.0012
681.437	0.0013
681.696	0.0017
681.955	0.0014
682.214	0.0015
682.473	0.0014
682.732	0.001
682.99	-0.0006
683.249	-0.0003
683.508	0.0005
683.766	0.0016
684.024	0.0011
684.283	0.0014
684.541	0.001
684.799	0.0013
685.058	0.0019
685.316	0.0012
685.574	0.0009
685.832	0.0007
686.09	0.0006
686.348	-0.0006
686.606	-0.0008
686.863	0.0003
687.121	-0.0002
687.379	-0.0002
687.636	-0.0006
687.894	0.0001
688.151	0.0005
688.409	-0.0005
688.666	-0
688.923	0.0007
689.181	0.0012
689.438	0.0019
689.695	0.0026
689.952	0.0038
690.209	0.0033
690.466	0.0025
690.723	0.0018
690.979	0.0016
691.236	0.0006
691.493	0.0007
691.75	0.0006
692.006	-0.0002
692.263	0.0007
692.519	0.0003
692.775	-0.0002
693.032	-0.0002
693.288	0.0005
693.544	-0.0003
693.8	-0.0004
694.056	-0.0002
694.313	-0.0003
694.568	0.0011
694.824	-0
695.08	-0.0007
695.336	0.0004
695.592	-0.0001
695.847	0.0002
696.103	-0.0007
696.359	-0.0001
696.614	0
696.869	-0.0005
697.125	-0.0008
697.38	0.0007
697.635	-0.0002
697.891	0
698.146	-0.0013
698.401	-0.0012
698.656	-0.0011
698.911	-0.0015
699.166	-0.0023
699.42	-0.0022
699.675	-0.0023
699.93	-0.0015
700.185	-0.0008
700.439	0.0004
700.694	0.001
700.948	-0.0001
701.203	0.0003
701.457	-0.0006
701.711	-0.0005
701.965	-0.0001
702.22	0.0005
702.474	0.0004
702.728	0.0014
702.982	0.0019
703.236	0.0012
703.49	0.0017
703.743	0.0007
703.997	-0.0013
704.251	0
704.504	-0.0013
704.758	0.0004
705.012	-0.0008
705.265	-0.0003
705.518	-0.0002
705.772	0.0008
706.025	0
706.278	-0.0001
706.531	0.0004
706.785	-0.0003
707.038	-0.0008
707.291	-0.0006
707.543	-0.0005
707.796	0.0001
708.049	-0.0004
708.302	0.0004
708.555	0.0009
708.807	0.0016
709.06	0.0014
709.312	0.0001
709.565	0.0005
709.817	-0.0009
710.069	0.0001
710.322	-0.001
710.574	-0.0002
710.826	0.0005
711.078	0.0017
711.33	0.0025
711.582	0.0026
711.834	0.0005
712.086	-0.0002
712.338	-0.0006
712.59	-0.0013
712.841	-0.0019
713.093	-0.0019
713.344	-0.003
713.596	-0.0019
713.847	-0.0007
714.099	-0.0001
714.35	-0.0017
714.601	-0.0022
714.853	-0.0028
715.104	-0.0027
715.355	-0.0024
715.606	-0.0011
715.857	-0.0013
716.108	-0.0014
716.359	-0.0017
716.609	-0.0024
716.86	-0.0019
717.111	-0.0017
717.361	-0.0031
717.612	-0.0028
717.863	-0.0033
718.113	-0.0035
718.363	-0.0038
718.614	-0.0036
718.864	-0.0022
719.114	-0.0022
719.364	-0.002
719.614	-0.0025
719.865	-0.0031
720.114	-0.0044
720.364	-0.0026
720.614	-0.0033
720.864	-0.0026
721.114	-0.0008
721.364	-0.0008
721.613	-0.0002
721.863	-0.0008
722.112	-0.0004
722.362	-0.0009
722.611	-0.0013
722.86	-0.0016
723.11	-0.0023
723.359	-0.0028
723.608	-0.002
723.857	-0.0017
724.106	-0.0017
724.355	-0.0011
724.604	-0.0007
724.853	-0.0015
725.102	-0.0016
725.351	-0.0005
725.599	-0.0006
725.848	0.0006
726.097	0.0011
726.345	0.002
726.594	0.002
726.842	0.0013
727.09	0.0008
727.339	-0.0005
727.587	-0.0008
727.835	-0.0027
728.083	-0.0021
728.331	-0.0036
728.579	-0.0017
728.827	-0.0012
729.075	-0.0009
729.323	0.0003
729.571	0.0016
729.818	0.0012
730.066	0.0008
730.314	0.0001
730.561	-0.0001
730.809	-0.0019
731.056	-0.0019
731.303	-0.0006
731.551	-0.0007
731.798	-0.0014
732.045	-0.0002
732.292	-0.0001
732.539	-0.0006
732.786	-0.0009
733.033	-0.001
733.28	-0.0004
733.527	-0.0002
733.774	-0.0004
734.021	-0
734.267	-0.0007
734.514	-0.0002
734.76	0.0004
735.007	-0.0009
735.253	-0.0004
735.5	-0.0007
735.746	0.0003
735.992	-0.0005
736.238	-0.0015
736.485	-0.0014
736.731	-0.002
736.977	-0.0022
737.223	-0.002
737.469	-0.0021
737.715	-0.0005
737.96	-0
738.206	0.0012
738.452	0.0022
738.697	0.0029
738.943	0.0026
739.189	0.0015
739.434	0.0014
739.679	0.0007
739.925	0.0013
740.17	0.001
740.415	0.0012
740.66	0.0017
740.906	0.0016
741.151	0.0024
741.396	0.0013
741.641	0.0006
741.886	-0.0001
742.13	-0.0004
742.375	0.0004
742.62	-0.0003
742.865	-0.0005
743.109	-0.0017
743.354	-0.0013
743.598	-0.0014
743.843	-0.0009
744.087	-0.0004
744.331	-0.0005
744.576	0
744.82	-0.0016
745.064	-0.0021
745.308	-0.0014
745.552	-0.0017
745.796	-0.0009
746.04	-0.001
746.284	-0.001
746.528	-0.0019
746.771	-0.0024
747.015	-0.002
747.259	-0.0016
747.502	-0.0011
747.746	-0.001
747.989	-0.0015
748.233	-0.0019
748.476	-0.0012
748.719	-0.002
748.963	-0.0017
749.206	-0.0009
749.449	-0.0004
749.692	0.0001
749.935	0.0008
750.178	-0
750.421	-0.001
750.664	-0.003
750.906	-0.0036
751.149	-0.0028
751.392	-0.0035
751.635	-0.003
751.877	-0.0026
752.12	-0.0023
752.362	-0.0027
752.604	-0.0034
752.847	-0.0024
753.089	-0.0025
753.331	-0.0025
753.573	-0.0021
753.816	-0.0012
754.058	-0.0026
754.3	-0.0019
754.542	-0.0017
754.783	-0.0018
755.025	-0.001
755.267	-0.0033
755.509	-0.0035
755.75	-0.0033
755.992	-0.003
756.234	-0.0032
756.475	-0.0024
756.716	-0.001
756.958	-0.0004
757.199	0.0001
757.44	-0.002
757.682	-0.0022
757.923	-0.0018
758.164	-0.002
758.405	-0.0017
758.646	-0.0017
758.887	-0.0009
759.128	-0.0021
759.369	-0.0033
759.609	-0.002
759.85	-0.0026
760.091	-0.0027
760.331	-0.0023
760.572	-0.0026
760.812	-0.0026
761.053	-0.0009
761.293	-0.0008
761.533	-0.0009
761.774	0.0019
762.014	0.0003
762.254	-0.0002
762.494	0.0001
762.734	-0.001
762.974	-0.0011
763.214	-0.0009
763.454	-0.0007
763.694	-0.0005
763.933	0.0001
764.173	0.0011
764.413	0.0008
764.652	0.0001
764.892	-0.0005
765.131	-0.0013
765.371	-0.0015
765.61	-0.0014
765.849	-0.0023
766.089	-0.0019
766.328	-0.0024
766.567	-0.0011
766.806	-0.0021
767.045	0.0002
767.284	-0.0001
767.523	-0.0003
767.762	-0.0016
768.001	-0.0008
768.239	-0.0023
768.478	-0.0011
768.717	-0.0011
768.955	-0.0009
769.194	-0.0002
769.432	-0.001
769.671	-0.0005
769.909	0.0007
770.148	-0.0002
770.386	0.0004
770.624	0.0005
770.862	0.0007
771.1	0.0017
771.338	0.0014
771.576	0.0017
771.814	0.0006
772.052	-0.0003
772.29	-0.0007
772.528	-0.0001
772.765	0.0004
773.003	0.0007
773.24	0.0007
773.478	0.0013
773.716	0.0021
773.953	0.0019
774.19	0.0025
774.428	0.0024
774.665	0.0035
774.902	0.0036
775.139	0.0034
775.376	0.0026
775.613	0.0033
775.85	0.0038
776.087	0.0043
776.324	0.0043
776.561	0.0051
776.798	0.0051
777.034	0.0054
777.271	0.0049
777.508	0.0043
777.744	0.0036
777.981	0.0033
778.217	0.0027
778.454	0.0028
778.69	0.0025
778.926	0.0012
779.162	0.0003
779.399	-0.001
779.635	-0.0019
779.871	-0.0027
780.107	-0.0012
780.343	-0.0007
780.579	-0.0002
780.814	-0.0006
781.05	-0.0004
781.286	-0.0017
781.522	-0.0002
781.757	0.0009
781.993	0.0008
782.228	0.002
782.464	0.0013
782.699	0.0017
782.934	0.0011
783.17	0.0018
783.405	0.002
783.64	0.0013
783.875	0.0014
784.11	0.0022
784.345	0.0026
784.58	0.0031
784.815	0.0039
785.05	0.0019
785.285	0.0019
785.52	0.0033
785.754	0.003
785.989	0.0022
786.223	0.0026
786.458	0.0029
786.692	0.0029
786.927	0.0038
787.161	0.0029
787.396	0.0032
787.63	0.0043
787.864	0.0033
788.098	0.0032
788.332	0.003
788.566	0.0015
788.8	0.0016
789.034	0.0016
789.268	0.0018
789.502	0.0032
789.736	0.0038
789.969	0.0032
790.203	0.0021
790.437	0.0018
790.67	0.0012
790.904	0.0006
791.137	0.0011
791.37	0.0003
791.604	-0.0004
791.837	-0.0008
792.07	-0.001
792.303	-0.0009
792.537	-0.0014
792.77	-0.0015
793.003	-0.0021
793.236	-0.0015
793.469	-0.0002
793.701	0.0001
793.934	-0.0009
794.167	-0.0007
794.4	-0.0005
794.632	-0.0006
794.865	-0.0005
795.097	-0.0004
795.33	-0.0005
795.562	-0.0003
795.795	-0.0001
796.027	-0.0011
796.259	-0.0018
796.491	-0.0019
796.724	-0.0021
796.956	-0.001
797.188	-0.0006
797.42	-0.0008
797.652	-0
797.883	-0.0007
798.115	-0.0014
798.347	-0.0012
798.579	-0.001
798.81	-0.0025
799.042	-0.0023
799.274	-0.0015
799.505	-0.0009
799.737	-0
799.968	0.001
800.199	0.0009
800.431	0.0021
800.662	0.0023
800.893	0.002
801.124	0.0019
801.355	0.0022
801.586	0.0041
801.817	0.001
802.048	0.0009
802.279	0.0008
802.51	-0.0001
802.741	0.001
802.971	0
803.202	-0.0006
803.433	-0.0011
803.663	-0.0004
803.894	-0.0001
804.124	0.0005
804.354	-0.0012
804.585	-0.001
804.815	-0.0007
805.045	-0.0019
805.275	0
805.506	-0.0645
805.736	0.0943
805.966	0.242
806.196	0.236
