Data from 03 0.5 mM K2Cr2O7 0.2 mM BQDS 1 M H2SO4 5 min_Absorbance_0001.txt Node
Date: Thu Dec 09 15:51:44 EST 2021
User: kwabilab-user
Spectrometer: HDX00518
Trigger mode: 0
Integration Time (sec): 5.000000E-2
Scans to average: 50
Nonlinearity correction enabled: false
Boxcar width: 0
Storing dark spectrum: false
XAxis mode: Wavelengths
Number of Pixels in Spectrum: 2068
>>>>>Begin Spectral Data<<<<<
195.27	0.1796
195.642	0.1379
196.014	0.1672
196.386	0.3278
196.758	0.0301
197.129	0.0105
197.501	0.078
197.872	0.1269
198.244	0.1289
198.615	0.1455
198.986	0.1321
199.357	0.1221
199.728	0.1387
200.099	0.1495
200.47	0.1572
200.841	0.1398
201.212	0.1517
201.582	0.1158
201.953	0.1323
202.323	0.1391
202.694	0.1424
203.064	0.1298
203.434	0.1497
203.804	0.1389
204.174	0.1597
204.544	0.1595
204.914	0.1464
205.284	0.1461
205.653	0.1438
206.023	0.1517
206.393	0.1494
206.762	0.1479
207.131	0.167
207.501	0.1359
207.87	0.1493
208.239	0.1314
208.608	0.1548
208.977	0.1424
209.346	0.16
209.715	0.1685
210.083	0.1546
210.452	0.1632
210.82	0.1589
211.189	0.1814
211.557	0.1577
211.925	0.1696
212.294	0.1795
212.662	0.1651
213.03	0.2069
213.398	0.1913
213.766	0.1955
214.133	0.1866
214.501	0.2084
214.869	0.1878
215.236	0.2078
215.604	0.2236
215.971	0.245
216.338	0.2549
216.705	0.2475
217.072	0.2851
217.439	0.2784
217.806	0.3189
218.173	0.3389
218.54	0.3643
218.907	0.3953
219.273	0.426
219.64	0.4675
220.006	0.4737
220.373	0.5161
220.739	0.5468
221.105	0.5947
221.471	0.6046
221.837	0.6781
222.203	0.7202
222.569	0.7394
222.935	0.7893
223.3	0.8244
223.666	0.8611
224.031	0.9098
224.397	0.9215
224.762	0.9573
225.127	0.9761
225.493	1.0329
225.858	1.0572
226.223	1.0592
226.588	1.1023
226.952	1.0992
227.317	1.151
227.682	1.144
228.046	1.141
228.411	1.1669
228.775	1.1813
229.14	1.1696
229.504	1.1749
229.868	1.1872
230.232	1.192
230.596	1.1777
230.96	1.2054
231.324	1.1817
231.688	1.194
232.052	1.1977
232.415	1.1923
232.779	1.1832
233.142	1.1738
233.505	1.1699
233.869	1.1743
234.232	1.1596
234.595	1.1471
234.958	1.1446
235.321	1.1387
235.684	1.1329
236.047	1.128
236.409	1.1178
236.772	1.1071
237.134	1.1001
237.497	1.0869
237.859	1.0893
238.222	1.083
238.584	1.0731
238.946	1.0682
239.308	1.0605
239.67	1.0532
240.032	1.0412
240.393	1.0361
240.755	1.0297
241.117	1.0315
241.478	1.0143
241.84	1.0122
242.201	1.0026
242.562	0.9998
242.924	0.9913
243.285	0.9854
243.646	0.9798
244.007	0.9778
244.368	0.9768
244.728	0.9659
245.089	0.9632
245.45	0.9561
245.81	0.9567
246.171	0.9546
246.531	0.9477
246.891	0.9431
247.252	0.9406
247.612	0.94
247.972	0.9281
248.332	0.9327
248.692	0.9304
249.051	0.9293
249.411	0.9257
249.771	0.9151
250.13	0.916
250.49	0.9179
250.849	0.9133
251.208	0.9119
251.568	0.906
251.927	0.9083
252.286	0.9085
252.645	0.905
253.004	0.9028
253.363	0.9024
253.721	0.9005
254.08	0.897
254.439	0.8927
254.797	0.8948
255.155	0.8927
255.514	0.8889
255.872	0.8915
256.23	0.8907
256.588	0.8885
256.946	0.8895
257.304	0.8834
257.662	0.8853
258.02	0.8833
258.377	0.8826
258.735	0.8825
259.093	0.8803
259.45	0.8769
259.807	0.8771
260.165	0.8782
260.522	0.8737
260.879	0.8757
261.236	0.8739
261.593	0.8711
261.95	0.8698
262.306	0.8675
262.663	0.8615
263.02	0.8638
263.376	0.8602
263.733	0.863
264.089	0.8614
264.445	0.8568
264.802	0.8564
265.158	0.855
265.514	0.8507
265.87	0.8492
266.226	0.8498
266.581	0.8475
266.937	0.845
267.293	0.8456
267.648	0.8432
268.004	0.8381
268.359	0.8408
268.714	0.8353
269.07	0.8326
269.425	0.8305
269.78	0.8268
270.135	0.8284
270.49	0.8262
270.844	0.824
271.199	0.822
271.554	0.8157
271.908	0.8163
272.263	0.8177
272.617	0.808
272.972	0.8064
273.326	0.8081
273.68	0.8015
274.034	0.8017
274.388	0.7957
274.742	0.7933
275.096	0.7917
275.45	0.7875
275.803	0.7848
276.157	0.783
276.51	0.7778
276.864	0.7738
277.217	0.7703
277.571	0.7676
277.924	0.7616
278.277	0.7603
278.63	0.7557
278.983	0.7534
279.336	0.7484
279.688	0.743
280.041	0.7389
280.394	0.7385
280.746	0.7303
281.099	0.7271
281.451	0.7212
281.803	0.716
282.156	0.7115
282.508	0.7063
282.86	0.7021
283.212	0.6965
283.564	0.6906
283.916	0.6847
284.267	0.6803
284.619	0.6733
284.971	0.667
285.322	0.6611
285.673	0.6567
286.025	0.6505
286.376	0.6467
286.727	0.6391
287.078	0.6314
287.429	0.6238
287.78	0.6189
288.131	0.6135
288.482	0.6057
288.833	0.5996
289.183	0.5918
289.534	0.587
289.884	0.5796
290.235	0.5715
290.585	0.5656
290.935	0.5596
291.285	0.5528
291.635	0.5456
291.985	0.5402
292.335	0.533
292.685	0.5254
293.035	0.5194
293.384	0.5121
293.734	0.5047
294.083	0.4985
294.433	0.4927
294.782	0.4863
295.131	0.4797
295.48	0.473
295.829	0.4662
296.179	0.4601
296.527	0.4533
296.876	0.4473
297.225	0.4406
297.574	0.4355
297.922	0.4285
298.271	0.4225
298.619	0.4169
298.968	0.4111
299.316	0.4061
299.664	0.3993
300.012	0.3943
300.36	0.3899
300.708	0.3839
301.056	0.3789
301.404	0.3728
301.752	0.3688
302.099	0.365
302.447	0.3591
302.794	0.3552
303.142	0.3505
303.489	0.3464
303.836	0.3423
304.183	0.3393
304.531	0.3352
304.878	0.3314
305.224	0.3274
305.571	0.3243
305.918	0.3207
306.265	0.3176
306.611	0.3142
306.958	0.3124
307.304	0.3098
307.651	0.3067
307.997	0.3047
308.343	0.3026
308.689	0.2999
309.035	0.2977
309.381	0.2966
309.727	0.2954
310.073	0.2928
310.419	0.2917
310.764	0.2902
311.11	0.2888
311.455	0.2879
311.801	0.287
312.146	0.2865
312.491	0.2851
312.837	0.2843
313.182	0.2843
313.527	0.2843
313.872	0.284
314.216	0.2834
314.561	0.284
314.906	0.2838
315.251	0.2835
315.595	0.284
315.94	0.2847
316.284	0.2855
316.628	0.2859
316.972	0.2867
317.317	0.2867
317.661	0.2882
318.005	0.2885
318.348	0.2897
318.692	0.2909
319.036	0.2914
319.38	0.2926
319.723	0.2938
320.067	0.2961
320.41	0.2974
320.754	0.2991
321.097	0.3011
321.44	0.3021
321.783	0.3047
322.126	0.306
322.469	0.3074
322.812	0.3103
323.155	0.312
323.498	0.3141
323.84	0.3167
324.183	0.3178
324.525	0.3214
324.868	0.3227
325.21	0.3245
325.552	0.3276
325.894	0.3295
326.236	0.3317
326.578	0.3349
326.92	0.337
327.262	0.339
327.604	0.3417
327.946	0.3444
328.287	0.3457
328.629	0.3491
328.97	0.352
329.312	0.3547
329.653	0.3569
329.994	0.3597
330.335	0.3632
330.676	0.3656
331.017	0.3681
331.358	0.3712
331.699	0.3742
332.04	0.3765
332.38	0.3798
332.721	0.3819
333.061	0.3846
333.402	0.3868
333.742	0.3904
334.083	0.3926
334.423	0.395
334.763	0.3967
335.103	0.3989
335.443	0.4015
335.783	0.4029
336.123	0.4056
336.462	0.408
336.802	0.4104
337.141	0.4126
337.481	0.4144
337.82	0.4162
338.16	0.4187
338.499	0.4205
338.838	0.4236
339.177	0.4257
339.516	0.4271
339.855	0.4295
340.194	0.4318
340.533	0.4335
340.872	0.4351
341.21	0.4374
341.549	0.438
341.887	0.4403
342.226	0.4416
342.564	0.4427
342.902	0.4427
343.24	0.4437
343.578	0.4452
343.916	0.446
344.254	0.4467
344.592	0.4464
344.93	0.4483
345.268	0.4482
345.605	0.4479
345.943	0.4488
346.28	0.4496
346.618	0.4499
346.955	0.4498
347.292	0.4507
347.629	0.4509
347.966	0.4522
348.303	0.4517
348.64	0.4527
348.977	0.4518
349.314	0.4523
349.65	0.4522
349.987	0.4522
350.324	0.4516
350.66	0.4519
350.996	0.4516
351.333	0.4494
351.669	0.4491
352.005	0.4479
352.341	0.4472
352.677	0.4447
353.013	0.4436
353.349	0.4431
353.685	0.4405
354.02	0.4396
354.356	0.4375
354.691	0.4362
355.027	0.4347
355.362	0.4324
355.697	0.4318
356.033	0.4292
356.368	0.4275
356.703	0.4257
357.038	0.4245
357.373	0.4231
357.707	0.4217
358.042	0.4198
358.377	0.4182
358.711	0.4167
359.046	0.4145
359.38	0.4129
359.715	0.4124
360.049	0.4098
360.383	0.4071
360.717	0.406
361.051	0.4024
361.385	0.401
361.719	0.3977
362.053	0.3938
362.387	0.3926
362.72	0.3894
363.054	0.3855
363.387	0.3829
363.721	0.3804
364.054	0.3772
364.387	0.3744
364.721	0.3712
365.054	0.369
365.387	0.3644
365.72	0.3612
366.053	0.3604
366.385	0.3572
366.718	0.3544
367.051	0.3525
367.383	0.3491
367.716	0.3468
368.048	0.3452
368.381	0.3427
368.713	0.3402
369.045	0.3376
369.377	0.3354
369.709	0.3331
370.041	0.3307
370.373	0.3277
370.705	0.3245
371.037	0.3222
371.368	0.3198
371.7	0.3169
372.031	0.3143
372.363	0.3101
372.694	0.3071
373.025	0.3047
373.356	0.3004
373.688	0.2965
374.019	0.2936
374.35	0.2907
374.68	0.2879
375.011	0.2836
375.342	0.2795
375.673	0.2764
376.003	0.2742
376.334	0.27
376.664	0.2664
376.995	0.264
377.325	0.2606
377.655	0.2584
377.985	0.2555
378.315	0.2521
378.645	0.2506
378.975	0.2481
379.305	0.2458
379.635	0.2434
379.964	0.2413
380.294	0.239
380.623	0.2364
380.953	0.2337
381.282	0.2309
381.611	0.2289
381.941	0.2267
382.27	0.224
382.599	0.2221
382.928	0.2193
383.257	0.2165
383.585	0.2136
383.914	0.2115
384.243	0.208
384.571	0.2045
384.9	0.2023
385.228	0.1988
385.557	0.1961
385.885	0.1935
386.213	0.1899
386.541	0.1868
386.869	0.1842
387.197	0.1816
387.525	0.1777
387.853	0.1761
388.181	0.1734
388.508	0.1711
388.836	0.1673
389.164	0.1659
389.491	0.1638
389.818	0.1623
390.146	0.1586
390.473	0.1558
390.8	0.1544
391.127	0.1521
391.454	0.1506
391.781	0.1487
392.108	0.1465
392.435	0.1449
392.761	0.1428
393.088	0.141
393.415	0.1393
393.741	0.1384
394.067	0.1367
394.394	0.1346
394.72	0.1333
395.046	0.1315
395.372	0.1298
395.698	0.1277
396.024	0.126
396.35	0.124
396.676	0.1225
397.001	0.1207
397.327	0.1186
397.653	0.1175
397.978	0.1147
398.303	0.1137
398.629	0.1126
398.954	0.1112
399.279	0.1101
399.604	0.1069
399.929	0.1061
400.254	0.1057
400.579	0.1041
400.904	0.1018
401.229	0.1012
401.553	0.1003
401.878	0.0993
402.202	0.0966
402.527	0.0962
402.851	0.0953
403.175	0.0942
403.5	0.0937
403.824	0.0918
404.148	0.0909
404.472	0.0909
404.796	0.0898
405.119	0.0896
405.443	0.0878
405.767	0.0875
406.09	0.0879
406.414	0.0863
406.737	0.0854
407.061	0.085
407.384	0.0849
407.707	0.0841
408.03	0.0833
408.353	0.0831
408.676	0.0828
408.999	0.0821
409.322	0.0817
409.645	0.0811
409.968	0.0806
410.29	0.0796
410.613	0.0797
410.935	0.0794
411.258	0.0796
411.58	0.0788
411.902	0.0786
412.224	0.0784
412.546	0.0783
412.868	0.0781
413.19	0.0772
413.512	0.0774
413.834	0.0767
414.156	0.0763
414.477	0.0762
414.799	0.0759
415.121	0.0766
415.442	0.0757
415.763	0.076
416.085	0.0764
416.406	0.0753
416.727	0.0746
417.048	0.0758
417.369	0.0752
417.69	0.0749
418.011	0.075
418.331	0.0751
418.652	0.075
418.973	0.0749
419.293	0.0747
419.614	0.0751
419.934	0.0752
420.254	0.0753
420.574	0.0747
420.895	0.0742
421.215	0.0744
421.535	0.0738
421.855	0.0739
422.174	0.0739
422.494	0.0737
422.814	0.0743
423.134	0.0738
423.453	0.0746
423.773	0.0742
424.092	0.0745
424.411	0.0737
424.731	0.0745
425.05	0.0741
425.369	0.0746
425.688	0.0744
426.007	0.0744
426.326	0.0739
426.644	0.0743
426.963	0.0746
427.282	0.074
427.6	0.074
427.919	0.0746
428.237	0.075
428.556	0.0737
428.874	0.0741
429.192	0.0747
429.51	0.0739
429.828	0.0739
430.146	0.0742
430.464	0.0747
430.782	0.0745
431.1	0.0741
431.418	0.0737
431.735	0.0741
432.053	0.074
432.37	0.0746
432.688	0.0742
433.005	0.0747
433.322	0.0741
433.639	0.0737
433.957	0.0743
434.274	0.0741
434.591	0.0745
434.907	0.0745
435.224	0.0742
435.541	0.0748
435.858	0.0744
436.174	0.0742
436.491	0.0743
436.807	0.073
437.124	0.0744
437.44	0.0738
437.756	0.0735
438.072	0.0739
438.388	0.074
438.704	0.0742
439.02	0.0738
439.336	0.0735
439.652	0.0746
439.968	0.0733
440.283	0.074
440.599	0.0733
440.914	0.0728
441.23	0.0725
441.545	0.0725
441.86	0.0727
442.175	0.073
442.491	0.0724
442.806	0.073
443.121	0.0735
443.435	0.0728
443.75	0.0735
444.065	0.0729
444.38	0.073
444.694	0.0729
445.009	0.0725
445.323	0.0723
445.638	0.072
445.952	0.072
446.266	0.0719
446.58	0.0714
446.894	0.0711
447.208	0.0719
447.522	0.071
447.836	0.0709
448.15	0.0708
448.464	0.0705
448.777	0.0705
449.091	0.0702
449.404	0.0703
449.718	0.0703
450.031	0.0706
450.345	0.0696
450.658	0.0696
450.971	0.0699
451.284	0.07
451.597	0.0698
451.91	0.069
452.223	0.0685
452.535	0.069
452.848	0.0692
453.161	0.0688
453.473	0.0688
453.786	0.0691
454.098	0.0675
454.411	0.069
454.723	0.0681
455.035	0.0679
455.347	0.0672
455.659	0.0667
455.971	0.0656
456.283	0.0664
456.595	0.0657
456.907	0.0667
457.218	0.0661
457.53	0.0665
457.841	0.0651
458.153	0.0658
458.464	0.0643
458.776	0.0657
459.087	0.0641
459.398	0.064
459.709	0.064
460.02	0.0641
460.331	0.064
460.642	0.0626
460.953	0.0629
461.263	0.0631
461.574	0.0627
461.885	0.0628
462.195	0.0623
462.506	0.0621
462.816	0.0618
463.126	0.0617
463.437	0.0613
463.747	0.0614
464.057	0.0599
464.367	0.0609
464.677	0.0604
464.987	0.0592
465.296	0.0593
465.606	0.0588
465.916	0.0585
466.225	0.0588
466.535	0.058
466.844	0.0585
467.154	0.057
467.463	0.0572
467.772	0.0566
468.081	0.0573
468.39	0.056
468.699	0.0559
469.008	0.0559
469.317	0.0559
469.626	0.0556
469.935	0.0549
470.243	0.0547
470.552	0.054
470.86	0.053
471.169	0.0527
471.477	0.0528
471.785	0.0524
472.093	0.0521
472.402	0.0517
472.71	0.0514
473.018	0.0512
473.326	0.0505
473.633	0.0503
473.941	0.0495
474.249	0.0499
474.556	0.0503
474.864	0.0489
475.171	0.0486
475.479	0.0484
475.786	0.0483
476.094	0.0477
476.401	0.0484
476.708	0.0472
477.015	0.0479
477.322	0.0465
477.629	0.0461
477.936	0.0469
478.242	0.0462
478.549	0.0453
478.856	0.0451
479.162	0.0453
479.469	0.0448
479.775	0.044
480.081	0.044
480.388	0.0425
480.694	0.0433
481	0.0427
481.306	0.0433
481.612	0.0428
481.918	0.0424
482.224	0.0421
482.53	0.0415
482.835	0.0406
483.141	0.0401
483.446	0.0408
483.752	0.0402
484.057	0.0397
484.363	0.0396
484.668	0.0396
484.973	0.0383
485.278	0.0388
485.583	0.0381
485.888	0.0368
486.193	0.036
486.498	0.0383
486.803	0.0373
487.107	0.0355
487.412	0.0354
487.717	0.035
488.021	0.035
488.325	0.0347
488.63	0.0347
488.934	0.0344
489.238	0.034
489.542	0.0334
489.846	0.0335
490.15	0.032
490.454	0.0322
490.758	0.0323
491.062	0.0321
491.366	0.0317
491.669	0.0299
491.973	0.0306
492.276	0.0307
492.58	0.0311
492.883	0.0299
493.186	0.0299
493.489	0.0292
493.792	0.0294
494.096	0.029
494.399	0.0289
494.701	0.0281
495.004	0.0279
495.307	0.0279
495.61	0.0283
495.912	0.0269
496.215	0.0281
496.517	0.0268
496.82	0.0269
497.122	0.026
497.424	0.026
497.727	0.0252
498.029	0.0253
498.331	0.0248
498.633	0.0247
498.935	0.025
499.237	0.0246
499.538	0.0245
499.84	0.0245
500.142	0.0241
500.443	0.0238
500.745	0.0223
501.046	0.0228
501.348	0.0223
501.649	0.023
501.95	0.0225
502.251	0.0215
502.552	0.0221
502.853	0.0222
503.154	0.0216
503.455	0.022
503.756	0.0216
504.057	0.021
504.357	0.0203
504.658	0.0202
504.958	0.0204
505.259	0.0204
505.559	0.0191
505.859	0.0205
506.16	0.0205
506.46	0.0193
506.76	0.0183
507.06	0.0186
507.36	0.0192
507.66	0.0187
507.96	0.0175
508.259	0.0162
508.559	0.0176
508.859	0.0166
509.158	0.0167
509.457	0.0173
509.757	0.0162
510.056	0.0154
510.355	0.0159
510.655	0.0164
510.954	0.0157
511.253	0.0158
511.552	0.0147
511.851	0.0146
512.149	0.0147
512.448	0.015
512.747	0.0136
513.045	0.0143
513.344	0.0138
513.642	0.014
513.941	0.0141
514.239	0.0134
514.537	0.0137
514.836	0.0146
515.134	0.0134
515.432	0.0128
515.73	0.0129
516.028	0.0126
516.326	0.0132
516.623	0.0125
516.921	0.0123
517.219	0.0142
517.516	0.0124
517.814	0.0122
518.111	0.0115
518.409	0.011
518.706	0.0118
519.003	0.0114
519.3	0.0112
519.597	0.011
519.894	0.0103
520.191	0.0117
520.488	0.0105
520.785	0.0097
521.082	0.0103
521.378	0.0112
521.675	0.0102
521.971	0.0105
522.268	0.0109
522.564	0.0094
522.861	0.0092
523.157	0.0093
523.453	0.0092
523.749	0.0081
524.045	0.0079
524.341	0.0088
524.637	0.0088
524.933	0.0095
525.229	0.0088
525.524	0.009
525.82	0.0077
526.115	0.0076
526.411	0.0079
526.706	0.007
527.002	0.0062
527.297	0.007
527.592	0.0083
527.887	0.0065
528.182	0.0066
528.477	0.0066
528.772	0.0062
529.067	0.007
529.362	0.0063
529.657	0.0061
529.951	0.0063
530.246	0.0068
530.54	0.0061
530.835	0.0059
531.129	0.0069
531.423	0.0059
531.718	0.0061
532.012	0.0062
532.306	0.0068
532.6	0.0062
532.894	0.0057
533.188	0.0054
533.482	0.0061
533.775	0.0064
534.069	0.0054
534.363	0.0052
534.656	0.0061
534.95	0.0052
535.243	0.006
535.536	0.0056
535.83	0.0053
536.123	0.005
536.416	0.0063
536.709	0.0052
537.002	0.0043
537.295	0.0052
537.588	0.0043
537.881	0.0053
538.173	0.0051
538.466	0.0042
538.759	0.0032
539.051	0.0046
539.344	0.0048
539.636	0.004
539.928	0.005
540.22	0.004
540.513	0.0041
540.805	0.0037
541.097	0.0041
541.389	0.0038
541.681	0.0056
541.972	0.0039
542.264	0.0042
542.556	0.0039
542.847	0.0025
543.139	0.0033
543.431	0.004
543.722	0.0026
544.013	0.0025
544.305	0.0042
544.596	0.002
544.887	0.0023
545.178	0.002
545.469	0.0018
545.76	0.0033
546.051	0.0035
546.342	0.0022
546.632	0.0035
546.923	0.0041
547.214	0.0025
547.504	0.002
547.795	0.0017
548.085	0.0038
548.375	0.0031
548.666	0.0024
548.956	0.0039
549.246	0.0026
549.536	0.0021
549.826	0.0029
550.116	0.0037
550.406	0.0037
550.695	0.0037
550.985	0.0031
551.275	0.0026
551.564	0.0027
551.854	0.0031
552.143	0.0023
552.433	0.0024
552.722	0.0017
553.011	0.002
553.3	0.0028
553.589	0.0028
553.879	0.0016
554.167	0.0016
554.456	0.0026
554.745	0.0029
555.034	0.0025
555.323	0.0003
555.611	0.0018
555.9	0.0028
556.188	0.0023
556.477	0.0031
556.765	0.0027
557.053	0.0026
557.342	0.0024
557.63	0.0017
557.918	0.0022
558.206	0.0028
558.494	0.0038
558.782	0.0027
559.069	0.0031
559.357	0.0051
559.645	0.0032
559.932	0.0023
560.22	0.0035
560.507	0.0019
560.795	0.0028
561.082	0.0022
561.37	0.0024
561.657	0.0029
561.944	0.0022
562.231	0.0015
562.518	0.0024
562.805	0.0013
563.092	0.0018
563.379	0.0021
563.665	0.0022
563.952	0.0027
564.239	0.0032
564.525	0.0032
564.811	0.0031
565.098	0.002
565.384	0.0037
565.67	0.0024
565.957	0.0033
566.243	0.0027
566.529	0.0038
566.815	0.0023
567.101	0.0021
567.387	0.0028
567.672	0.0018
567.958	0.003
568.244	0.0024
568.529	0.0024
568.815	0.0019
569.1	0.0012
569.386	0.0031
569.671	0.0029
569.956	0.0024
570.242	0.0026
570.527	0.0028
570.812	0.0029
571.097	0.0027
571.382	0.0036
571.666	0.0031
571.951	0.0033
572.236	0.0031
572.521	0.003
572.805	0.0036
573.09	0.0021
573.374	0.0018
573.659	0.0034
573.943	0.0047
574.227	0.0027
574.511	0.0023
574.795	0.0032
575.079	0.0031
575.363	0.0025
575.647	0.0029
575.931	0.0024
576.215	0.0011
576.499	0.001
576.782	0.0013
577.066	0.0011
577.349	0.0019
577.633	0.0017
577.916	0.0018
578.2	0.0023
578.483	0.0031
578.766	0.0028
579.049	0.0035
579.332	0.0032
579.615	0.0026
579.898	0.0018
580.181	0.0028
580.464	0.0019
580.746	0.0023
581.029	0.0033
581.312	0.0024
581.594	0.0017
581.877	0.0035
582.159	0.0026
582.441	0.0021
582.724	0.003
583.006	0.0029
583.288	0.0017
583.57	0.0029
583.852	0.0026
584.134	0.0019
584.416	0.0022
584.697	0.0018
584.979	0.0018
585.261	0.001
585.542	0.0023
585.824	0.0016
586.105	0.0019
586.387	0.0019
586.668	0.0011
586.949	0.0016
587.231	0.0012
587.512	0.0015
587.793	0.0021
588.074	0.0023
588.355	0.002
588.636	0.0024
588.916	0.0033
589.197	0.0035
589.478	0.0026
589.758	0.0021
590.039	0.0024
590.319	0.0026
590.6	0.002
590.88	0.0024
591.16	0.0014
591.441	0.0019
591.721	0.0015
592.001	0.0018
592.281	0.002
592.561	0.0017
592.841	0.0009
593.12	0.002
593.4	0.0018
593.68	0.0018
593.959	0.0022
594.239	0.0025
594.518	0.0033
594.798	0.0018
595.077	0.0023
595.356	0.0023
595.636	0.0021
595.915	0.0025
596.194	0.003
596.473	0.002
596.752	0.0027
597.031	0.0015
597.31	0.0017
597.588	0.0026
597.867	0.0016
598.146	0.0025
598.424	0.0022
598.703	0.0006
598.981	0.001
599.259	0.0012
599.538	0.002
599.816	0.002
600.094	0.0003
600.372	0.0019
600.65	0.0014
600.928	0.0016
601.206	-0.0005
601.484	0.0006
601.762	-0
602.04	-0.0006
602.317	0.0007
602.595	0.0004
602.872	0.0004
603.15	0.0008
603.427	0.0011
603.704	0.0019
603.982	0.0025
604.259	0.0013
604.536	0.0019
604.813	0.0016
605.09	0.0011
605.367	0.0004
605.644	0.001
605.921	0.0003
606.197	-0.0002
606.474	0.0015
606.751	0
607.027	0.0005
607.304	0.0008
607.58	0.0014
607.856	0.0012
608.133	0.0016
608.409	0.0006
608.685	0.0004
608.961	0.0002
609.237	0.0011
609.513	0.0007
609.789	0.0007
610.065	0.0005
610.341	0.0006
610.616	0.001
610.892	0.0008
611.167	0.001
611.443	0.0006
611.718	0.0008
611.994	0.0001
612.269	0.0009
612.544	0.0009
612.819	0.001
613.095	0.0006
613.37	0.0014
613.645	0.0015
613.919	0.002
614.194	0.0017
614.469	0.0016
614.744	0.0006
615.019	0.0012
615.293	0.0006
615.568	0.0013
615.842	0.0011
616.116	0.0012
616.391	0.0003
616.665	-0.0001
616.939	-0.0006
617.213	0.0006
617.488	0.0004
617.762	0.0007
618.035	0.0003
618.309	-0.0001
618.583	0.0017
618.857	0.0013
619.131	0.0002
619.404	0.0008
619.678	0.0006
619.951	0.0003
620.225	0
620.498	0.0016
620.771	0.0005
621.045	0.0019
621.318	0.0018
621.591	0.0008
621.864	0.0003
622.137	0.0017
622.41	0.0019
622.683	0.0023
622.956	0.0011
623.228	0.0006
623.501	0.0013
623.774	0.0006
624.046	-0.0004
624.319	0.0005
624.591	-0.0005
624.863	-0.0001
625.136	-0.0001
625.408	0.0002
625.68	0.0002
625.952	0.0014
626.224	-0.0002
626.496	0.0001
626.768	-0.0002
627.04	-0.0016
627.311	-0.0009
627.583	-0.0002
627.855	0.0007
628.126	0.0013
628.398	0.0007
628.669	-0.001
628.941	-0.0009
629.212	-0.0002
629.483	0.0011
629.755	-0.0001
630.026	0.0011
630.297	0.001
630.568	-0
630.839	0.0011
631.11	-0.0001
631.38	-0.0004
631.651	-0.0008
631.922	0.0005
632.192	0.0007
632.463	0
632.733	0.0003
633.004	0.0001
633.274	0.0002
633.545	-0.0006
633.815	0.0005
634.085	-0.001
634.355	0.0007
634.625	0.0005
634.895	0.0011
635.165	0.0006
635.435	0.001
635.705	-0.0002
635.974	0.0003
636.244	-0.001
636.514	0.0018
636.783	0.0007
637.053	0.0019
637.322	0.0021
637.591	0.0011
637.861	-0.0002
638.13	0.0009
638.399	0.0009
638.668	0.0016
638.937	0.0001
639.206	0.0023
639.475	0.0022
639.744	0.0016
640.013	0.0025
640.281	0.0022
640.55	0.0016
640.819	0.003
641.087	0.0032
641.356	0.0029
641.624	0.0029
641.892	0.001
642.161	0.0012
642.429	0.0015
642.697	0.0005
642.965	0.0013
643.233	0.0002
643.501	0.0013
643.769	0.0008
644.037	0.0012
644.305	0.0008
644.572	0.001
644.84	0.0003
645.108	-0.0014
645.375	-0.0021
645.643	-0.0021
645.91	-0.0013
646.177	-0.0008
646.445	-0.0028
646.712	-0.0023
646.979	-0.0016
647.246	-0.0006
647.513	0.0001
647.78	-0.0001
648.047	0
648.314	0.0004
648.58	0.0007
648.847	0.0018
649.114	0.0001
649.38	-0.0011
649.647	-0
649.913	-0.0005
650.18	-0.0005
650.446	-0.0016
650.712	-0.0013
650.978	-0.0008
651.245	-0.0017
651.511	0
651.777	0.0008
652.043	0.0012
652.309	0.0001
652.574	0.0003
652.84	-0.0004
653.106	-0.0014
653.371	-0.0008
653.637	-0.0019
653.903	-0.0005
654.168	-0.0003
654.433	0.0002
654.699	0.0019
654.964	0.0013
655.229	0.0005
655.494	0.0001
655.759	-0.0038
656.024	0.001
656.289	-0
656.554	0.0059
656.819	0.0021
657.084	0.0007
657.349	-0.0001
657.613	0.0003
657.878	0.0003
658.142	-0.0007
658.407	0.001
658.671	0.0008
658.936	0.0018
659.2	0.0013
659.464	0.0023
659.728	0.0019
659.992	0.0007
660.256	0.0016
660.52	-0.0002
660.784	0.0014
661.048	0.0018
661.312	0.0018
661.575	0.0014
661.839	0.0002
662.103	0
662.366	0.0001
662.63	0.0009
662.893	0.0011
663.156	-0.0001
663.42	0.0009
663.683	0.0001
663.946	0.0004
664.209	0.0006
664.472	0.0019
664.735	0.0017
664.998	0.002
665.261	0.0018
665.524	0.0011
665.786	0.001
666.049	0.0011
666.312	0.0013
666.574	0.0028
666.837	0.0014
667.099	0.0017
667.361	0.0005
667.624	-0.0005
667.886	0.0003
668.148	0.0009
668.41	0.0007
668.672	0.0014
668.934	0.0015
669.196	0.0004
669.458	0.0014
669.72	0.0004
669.982	0.0013
670.243	0.0016
670.505	0.0016
670.766	-0.0001
671.028	0.0014
671.289	0.0007
671.551	0.0003
671.812	0.0002
672.073	0.0011
672.334	0.0008
672.596	0.0017
672.857	0.0018
673.118	0.0024
673.379	0.0014
673.639	0.0009
673.9	0.0005
674.161	0.0018
674.422	0.0014
674.682	0.0022
674.943	0.0009
675.203	0.0024
675.464	0.0017
675.724	0.0025
675.985	0.0016
676.245	0.002
676.505	-0.0002
676.765	0.0004
677.025	-0.0001
677.285	-0.0002
677.545	0
677.805	-0.0004
678.065	-0.0003
678.325	0.0016
678.585	0.001
678.844	0.0005
679.104	0.0021
679.363	0.0003
679.623	0.0009
679.882	0.0011
680.142	0.0015
680.401	0.0012
680.66	0.0009
680.919	0.0002
681.178	0
681.437	0.0015
681.696	0.0006
681.955	0.0021
682.214	0.0022
682.473	0.0028
682.732	0.0018
682.99	0.0008
683.249	0.001
683.508	0.0007
683.766	0.0008
684.024	0.0008
684.283	0.0005
684.541	0.0009
684.799	0.0017
685.058	0.0019
685.316	0.0017
685.574	0.0014
685.832	0.0013
686.09	0.0011
686.348	0.0006
686.606	-0.0004
686.863	-0.0004
687.121	-0.0006
687.379	-0.0016
687.636	-0.0017
687.894	-0.0002
688.151	0.0001
688.409	-0.0005
688.666	-0.0005
688.923	-0.0012
689.181	-0.0009
689.438	0.0004
689.695	0.0005
689.952	0.0022
690.209	0.0013
690.466	0.0008
690.723	-0.0002
690.979	-0.0003
691.236	-0.0002
691.493	0.0006
691.75	-0.0003
692.006	0.0005
692.263	-0.0003
692.519	0.0003
692.775	-0.0003
693.032	0.0002
693.288	-0.0008
693.544	-0.0006
693.8	-0.0004
694.056	-0.0004
694.313	-0.0008
694.568	-0.0004
694.824	-0.0006
695.08	-0.0006
695.336	-0.0002
695.592	-0.0006
695.847	0.0007
696.103	-0.0011
696.359	0.0004
696.614	-0.0003
696.869	-0.0002
697.125	-0.0013
697.38	0.0008
697.635	-0.0001
697.891	-0.0001
698.146	-0.0008
698.401	-0.0022
698.656	-0.0021
698.911	-0.0016
699.166	-0.0036
699.42	-0.0025
699.675	-0.0014
699.93	-0.0015
700.185	-0.001
700.439	0.0003
700.694	0.0009
700.948	-0.0006
701.203	0.0005
701.457	-0.0006
701.711	-0.0004
701.965	-0.0007
702.22	-0.0001
702.474	-0.0002
702.728	0.0007
702.982	0.0014
703.236	0.0002
703.49	0.0001
703.743	0.0005
703.997	-0.0008
704.251	0.0003
704.504	-0.0006
704.758	0.0002
705.012	0.0003
705.265	0.0001
705.518	-0.0005
705.772	-0.0001
706.025	-0.0003
706.278	0.0001
706.531	0.0006
706.785	-0.0007
707.038	-0.0002
707.291	0.0006
707.543	-0.0004
707.796	0.0011
708.049	0.0003
708.302	0.0001
708.555	-0
708.807	0.0008
709.06	-0.0008
709.312	-0.0004
709.565	-0
709.817	-0.0006
710.069	-0.0007
710.322	-0.002
710.574	-0.0013
710.826	-0.0009
711.078	0.0009
711.33	0.0009
711.582	0.0019
711.834	0.0006
712.086	-0
712.338	-0.0013
712.59	-0.0011
712.841	-0.002
713.093	-0.0001
713.344	-0.002
713.596	-0.0012
713.847	-0.0011
714.099	0.0005
714.35	-0.0006
714.601	-0.0016
714.853	-0.0014
715.104	-0.0029
715.355	-0.0027
715.606	-0.0005
715.857	-0.0021
716.108	-0.0017
716.359	-0.0027
716.609	-0.002
716.86	-0.0019
717.111	-0.0018
717.361	-0.0013
717.612	-0.0015
717.863	-0.0004
718.113	-0.0019
718.363	-0.0028
718.614	-0.0017
718.864	-0.0011
719.114	-0.0016
719.364	-0.0021
719.614	-0.0021
719.865	-0.0018
720.114	-0.0036
720.364	-0.0033
720.614	-0.0028
720.864	-0.0027
721.114	-0.001
721.364	-0.0008
721.613	-0.0008
721.863	-0.0008
722.112	-0.001
722.362	-0.0026
722.611	-0.002
722.86	-0.003
723.11	-0.0039
723.359	-0.0028
723.608	-0.0027
723.857	-0.0024
724.106	-0.002
724.355	-0.0012
724.604	-0.0014
724.853	-0.0013
725.102	-0.0018
725.351	-0.0008
725.599	-0.0004
725.848	-0.0002
726.097	0.0007
726.345	0.0008
726.594	0.0028
726.842	0.0014
727.09	0.0005
727.339	-0.0014
727.587	-0.0012
727.835	-0.0021
728.083	-0.0014
728.331	-0.0023
728.579	-0.0012
728.827	-0.0002
729.075	-0
729.323	0.0005
729.571	0.0012
729.818	0.0018
730.066	0.0015
730.314	0.0004
730.561	0.0006
730.809	-0.0019
731.056	-0.0012
731.303	0.0003
731.551	-0.0011
731.798	-0.002
732.045	-0.0004
732.292	-0.0007
732.539	-0.0005
732.786	-0.0014
733.033	-0.0012
733.28	-0.0002
733.527	-0.001
733.774	-0.0012
734.021	-0.0004
734.267	-0.0001
734.514	-0.0002
734.76	0.0006
735.007	-0.0002
735.253	-0.0009
735.5	-0.0002
735.746	-0.0003
735.992	0.0005
736.238	0.0005
736.485	-0.0004
736.731	-0.0008
736.977	-0.0009
737.223	-0.0011
737.469	-0.0014
737.715	-0.0009
737.96	-0.0014
738.206	-0.0002
738.452	0.0008
738.697	0.0011
738.943	0.0004
739.189	-0.001
739.434	-0.0002
739.679	0.0005
739.925	0.0011
740.17	0.0006
740.415	0.0006
740.66	0.0006
740.906	0.0006
741.151	0.0005
741.396	-0.0005
741.641	-0.0003
741.886	-0.0008
742.13	-0.001
742.375	-0.0002
742.62	-0.0013
742.865	-0.0008
743.109	-0.0012
743.354	-0.002
743.598	-0.0012
743.843	-0.0012
744.087	-0.0006
744.331	-0.0002
744.576	0.0004
744.82	-0.0009
745.064	-0.0008
745.308	-0.0007
745.552	-0.0012
745.796	-0.0009
746.04	-0.0006
746.284	-0.0016
746.528	-0.002
746.771	-0.0024
747.015	-0.0027
747.259	-0.0034
747.502	-0.002
747.746	-0.0011
747.989	-0.0025
748.233	-0.0024
748.476	-0.002
748.719	-0.0037
748.963	-0.0029
749.206	-0.0017
749.449	-0.0025
749.692	-0.0014
749.935	-0.0006
750.178	-0.001
750.421	-0.0026
750.664	-0.003
750.906	-0.0036
751.149	-0.0042
751.392	-0.0043
751.635	-0.0032
751.877	-0.0022
752.12	-0.0028
752.362	-0.0037
752.604	-0.0036
752.847	-0.0034
753.089	-0.0026
753.331	-0.0028
753.573	-0.0027
753.816	-0.002
754.058	-0.0018
754.3	-0.0019
754.542	-0.002
754.783	-0.0032
755.025	-0.0027
755.267	-0.0043
755.509	-0.004
755.75	-0.0049
755.992	-0.004
756.234	-0.0045
756.475	-0.0041
756.716	-0.0027
756.958	-0.0018
757.199	-0.0008
757.44	-0.0034
757.682	-0.0034
757.923	-0.0019
758.164	-0.0021
758.405	-0.0023
758.646	-0.0014
758.887	-0.0018
759.128	-0.0023
759.369	-0.0026
759.609	-0.0023
759.85	-0.0021
760.091	-0.0013
760.331	-0.0023
760.572	-0.002
760.812	-0.0024
761.053	-0.0007
761.293	-0.0005
761.533	-0.0004
761.774	0.0011
762.014	-0
762.254	-0.0002
762.494	0.0007
762.734	0.0003
762.974	-0.0005
763.214	-0.0001
763.454	-0.0007
763.694	-0.0009
763.933	0.0006
764.173	-0.0001
764.413	-0.0005
764.652	-0.0016
764.892	-0.0013
765.131	-0.0024
765.371	-0.0016
765.61	-0.0015
765.849	-0.003
766.089	-0.0017
766.328	-0.0018
766.567	-0.0014
766.806	-0.0017
767.045	0.0005
767.284	0.001
767.523	0.0012
767.762	-0.0011
768.001	-0.0012
768.239	-0.0011
768.478	-0
768.717	-0.0006
768.955	-0.0014
769.194	-0.0003
769.432	-0.0006
769.671	-0.0011
769.909	0.0005
770.148	0.0001
770.386	0.0004
770.624	0.0001
770.862	0.001
771.1	0.0015
771.338	0.0008
771.576	0.0016
771.814	0.0003
772.052	-0.0008
772.29	-0.0009
772.528	-0.0014
772.765	-0.0003
773.003	-0
773.24	0.0001
773.478	0.001
773.716	0.0009
773.953	0.001
774.19	0.0016
774.428	0.0014
774.665	0.0023
774.902	0.0016
775.139	0.0022
775.376	0.0009
775.613	0.0019
775.85	0.0018
776.087	0.0035
776.324	0.0037
776.561	0.0038
776.798	0.0042
777.034	0.0051
777.271	0.004
777.508	0.0033
777.744	0.0028
777.981	0.0023
778.217	0.0017
778.454	0.0022
778.69	0.001
778.926	0.0017
779.162	0.0007
779.399	0.0005
779.635	-0.0001
779.871	-0.0006
780.107	-0.0005
780.343	-0.0006
780.579	0.0008
780.814	-0
781.05	-0.0005
781.286	-0.0017
781.522	0.0004
781.757	0.0013
781.993	0.0003
782.228	0.0015
782.464	0.0015
782.699	0.0017
782.934	0.0006
783.17	0.0024
783.405	0.0023
783.64	0.0017
783.875	0.0013
784.11	0.0024
784.345	0.0021
784.58	0.0016
784.815	0.0018
785.05	0.0005
785.285	0.0001
785.52	0.0008
785.754	0.0006
785.989	-0.0008
786.223	-0.0004
786.458	0.0004
786.692	0.0002
786.927	0.0008
787.161	0.0005
787.396	0.0006
787.63	0.0021
787.864	0.0009
788.098	0.0018
788.332	0.0008
788.566	0
788.8	0.0009
789.034	0.0006
789.268	0.0011
789.502	0.0015
789.736	0.002
789.969	0.0021
790.203	0.0007
790.437	0.0004
790.67	0.0003
790.904	0.0005
791.137	0.0005
791.37	0.0006
791.604	-0.0001
791.837	-0.0003
792.07	-0.0002
792.303	-0
792.537	-0.0012
792.77	-0.0021
793.003	-0.0016
793.236	-0.0015
793.469	0.0003
793.701	-0.0004
793.934	-0.0011
794.167	-0.0016
794.4	-0.0008
794.632	0.0005
794.865	-0.0001
795.097	-0.0001
795.33	-0.0002
795.562	-0.0003
795.795	0.0009
796.027	-0.0008
796.259	-0.0015
796.491	-0.0021
796.724	-0.0017
796.956	-0.0013
797.188	-0.0018
797.42	-0.0011
797.652	-0.0016
797.883	-0.0016
798.115	-0.0007
798.347	-0.0007
798.579	-0.0011
798.81	-0.0016
799.042	-0.001
799.274	-0.001
799.505	-0.0005
799.737	0.0004
799.968	0.0012
800.199	0.0015
800.431	0.0019
800.662	0.0024
800.893	0.0025
801.124	0.0022
801.355	0.0025
801.586	0.0039
801.817	0.0015
802.048	0.0018
802.279	0.0019
802.51	0.0001
802.741	0.0019
802.971	0.0008
803.202	-0.0001
803.433	-0
803.663	0.0001
803.894	-0.0003
804.124	-0.0001
804.354	-0.0002
804.585	-0.001
804.815	0.0001
805.045	-0.0006
805.275	-0.0003
805.506	-0.082
805.736	0.2106
805.966	0.5111
806.196	0.3068
