Data from 03 0.5 mM K2Cr2O7 0.2 mM BQDS 1 M H2SO4 5 min_Absorbance_0010.txt Node
Date: Thu Dec 09 16:36:44 EST 2021
User: kwabilab-user
Spectrometer: HDX00518
Trigger mode: 0
Integration Time (sec): 5.000000E-2
Scans to average: 50
Nonlinearity correction enabled: false
Boxcar width: 0
Storing dark spectrum: false
XAxis mode: Wavelengths
Number of Pixels in Spectrum: 2068
>>>>>Begin Spectral Data<<<<<
195.27	0.0952
195.642	0.1314
196.014	0.1655
196.386	0.3354
196.758	0.0183
197.129	0.0256
197.501	0.062
197.872	0.1064
198.244	0.1335
198.615	0.1217
198.986	0.1202
199.357	0.1207
199.728	0.1268
200.099	0.1348
200.47	0.1365
200.841	0.1232
201.212	0.1404
201.582	0.1388
201.953	0.1247
202.323	0.1303
202.694	0.1265
203.064	0.1399
203.434	0.1383
203.804	0.1249
204.174	0.1383
204.544	0.1587
204.914	0.1355
205.284	0.1345
205.653	0.1376
206.023	0.1435
206.393	0.1522
206.762	0.1288
207.131	0.1344
207.501	0.1332
207.87	0.14
208.239	0.1176
208.608	0.1584
208.977	0.1457
209.346	0.1451
209.715	0.1746
210.083	0.1586
210.452	0.1623
210.82	0.1446
211.189	0.1615
211.557	0.1716
211.925	0.1791
212.294	0.153
212.662	0.1735
213.03	0.1936
213.398	0.1862
213.766	0.1973
214.133	0.1713
214.501	0.1967
214.869	0.196
215.236	0.202
215.604	0.2039
215.971	0.224
216.338	0.2506
216.705	0.249
217.072	0.2862
217.439	0.2632
217.806	0.313
218.173	0.3452
218.54	0.3593
218.907	0.3913
219.273	0.4207
219.64	0.4535
220.006	0.4772
220.373	0.5004
220.739	0.5595
221.105	0.5771
221.471	0.6083
221.837	0.6673
222.203	0.7134
222.569	0.7408
222.935	0.7729
223.3	0.8086
223.666	0.8464
224.031	0.8833
224.397	0.8989
224.762	0.9471
225.127	0.9784
225.493	1.0003
225.858	1.0166
226.223	1.0477
226.588	1.0584
226.952	1.0685
227.317	1.1048
227.682	1.0941
228.046	1.1075
228.411	1.1113
228.775	1.1322
229.14	1.1363
229.504	1.1384
229.868	1.1444
230.232	1.1479
230.596	1.1445
230.96	1.1557
231.324	1.1432
231.688	1.1348
232.052	1.1352
232.415	1.1276
232.779	1.1276
233.142	1.1202
233.505	1.116
233.869	1.1161
234.232	1.1137
234.595	1.0898
234.958	1.086
235.321	1.0802
235.684	1.0722
236.047	1.0705
236.409	1.0497
236.772	1.0473
237.134	1.0436
237.497	1.029
237.859	1.0303
238.222	1.0246
238.584	1.013
238.946	1.0037
239.308	0.993
239.67	0.9908
240.032	0.9846
240.393	0.9721
240.755	0.9679
241.117	0.9638
241.478	0.9553
241.84	0.9527
242.201	0.9464
242.562	0.9394
242.924	0.9337
243.285	0.9327
243.646	0.9289
244.007	0.9208
244.368	0.9183
244.728	0.9091
245.089	0.9097
245.45	0.9029
245.81	0.9017
246.171	0.8988
246.531	0.894
246.891	0.8928
247.252	0.8867
247.612	0.8875
247.972	0.8825
248.332	0.887
248.692	0.8808
249.051	0.8815
249.411	0.8783
249.771	0.8743
250.13	0.8731
250.49	0.8721
250.849	0.8733
251.208	0.8692
251.568	0.8687
251.927	0.8642
252.286	0.8696
252.645	0.8687
253.004	0.8619
253.363	0.8619
253.721	0.8662
254.08	0.8626
254.439	0.8589
254.797	0.861
255.155	0.8593
255.514	0.8583
255.872	0.8593
256.23	0.8571
256.588	0.862
256.946	0.8605
257.304	0.8542
257.662	0.8597
258.02	0.854
258.377	0.8569
258.735	0.8594
259.093	0.853
259.45	0.8552
259.807	0.855
260.165	0.8558
260.522	0.8518
260.879	0.8519
261.236	0.8505
261.593	0.8535
261.95	0.8507
262.306	0.8488
262.663	0.8443
263.02	0.8455
263.376	0.8436
263.733	0.8445
264.089	0.8429
264.445	0.8399
264.802	0.8408
265.158	0.8395
265.514	0.837
265.87	0.8343
266.226	0.8318
266.581	0.8311
266.937	0.8292
267.293	0.8249
267.648	0.8241
268.004	0.8192
268.359	0.8203
268.714	0.817
269.07	0.8148
269.425	0.8155
269.78	0.8136
270.135	0.8093
270.49	0.8077
270.844	0.8046
271.199	0.8015
271.554	0.7953
271.908	0.794
272.263	0.7923
272.617	0.7878
272.972	0.7837
273.326	0.7815
273.68	0.7782
274.034	0.7746
274.388	0.7718
274.742	0.7655
275.096	0.7646
275.45	0.7592
275.803	0.7555
276.157	0.7506
276.51	0.7488
276.864	0.7422
277.217	0.7385
277.571	0.7338
277.924	0.726
278.277	0.7242
278.63	0.7198
278.983	0.7141
279.336	0.7103
279.688	0.7045
280.041	0.6987
280.394	0.6918
280.746	0.6877
281.099	0.6822
281.451	0.6772
281.803	0.669
282.156	0.6649
282.508	0.6601
282.86	0.6545
283.212	0.6478
283.564	0.6422
283.916	0.6366
284.267	0.6309
284.619	0.624
284.971	0.6172
285.322	0.6128
285.673	0.6064
286.025	0.6002
286.376	0.5948
286.727	0.5886
287.078	0.5799
287.429	0.5737
287.78	0.5671
288.131	0.5622
288.482	0.5537
288.833	0.5472
289.183	0.5411
289.534	0.5353
289.884	0.5272
290.235	0.5207
290.585	0.5139
290.935	0.5078
291.285	0.502
291.635	0.4965
291.985	0.4877
292.335	0.4834
292.685	0.4762
293.035	0.4693
293.384	0.4621
293.734	0.4563
294.083	0.4501
294.433	0.444
294.782	0.4373
295.131	0.432
295.48	0.425
295.829	0.4202
296.179	0.4124
296.527	0.4064
296.876	0.4004
297.225	0.394
297.574	0.3885
297.922	0.3835
298.271	0.3764
298.619	0.3709
298.968	0.3665
299.316	0.3609
299.664	0.3552
300.012	0.3508
300.36	0.346
300.708	0.3409
301.056	0.3356
301.404	0.3295
301.752	0.3253
302.099	0.3223
302.447	0.3174
302.794	0.3133
303.142	0.3086
303.489	0.3041
303.836	0.3007
304.183	0.2976
304.531	0.2935
304.878	0.2897
305.224	0.2873
305.571	0.2835
305.918	0.28
306.265	0.2765
306.611	0.2745
306.958	0.2717
307.304	0.2691
307.651	0.2656
307.997	0.2639
308.343	0.2618
308.689	0.2592
309.035	0.2581
309.381	0.2558
309.727	0.2544
310.073	0.2524
310.419	0.2507
310.764	0.2491
311.11	0.2485
311.455	0.2463
311.801	0.246
312.146	0.245
312.491	0.2438
312.837	0.2432
313.182	0.2424
313.527	0.2424
313.872	0.2423
314.216	0.2419
314.561	0.2413
314.906	0.2415
315.251	0.2413
315.595	0.2416
315.94	0.2416
316.284	0.2426
316.628	0.2423
316.972	0.2435
317.317	0.2437
317.661	0.2449
318.005	0.2445
318.348	0.2455
318.692	0.2463
319.036	0.2473
319.38	0.2485
319.723	0.2492
320.067	0.2504
320.41	0.2524
320.754	0.2531
321.097	0.2553
321.44	0.2562
321.783	0.2579
322.126	0.2594
322.469	0.2609
322.812	0.2622
323.155	0.2649
323.498	0.2665
323.84	0.2686
324.183	0.2699
324.525	0.2724
324.868	0.2739
325.21	0.2757
325.552	0.2781
325.894	0.2795
326.236	0.2816
326.578	0.2842
326.92	0.2864
327.262	0.2885
327.604	0.2906
327.946	0.2928
328.287	0.2951
328.629	0.2974
328.97	0.2997
329.312	0.3021
329.653	0.3044
329.994	0.3072
330.335	0.3095
330.676	0.3121
331.017	0.3147
331.358	0.3176
331.699	0.3203
332.04	0.3225
332.38	0.3244
332.721	0.3263
333.061	0.3297
333.402	0.3323
333.742	0.3344
334.083	0.3366
334.423	0.3385
334.763	0.3407
335.103	0.3425
335.443	0.344
335.783	0.347
336.123	0.3491
336.462	0.3511
336.802	0.3526
337.141	0.3551
337.481	0.3569
337.82	0.3586
338.16	0.3607
338.499	0.3622
338.838	0.3652
339.177	0.3675
339.516	0.3691
339.855	0.3707
340.194	0.3735
340.533	0.375
340.872	0.3772
341.21	0.3783
341.549	0.3786
341.887	0.3802
342.226	0.3823
342.564	0.3833
342.902	0.3834
343.24	0.3847
343.578	0.3864
343.916	0.3861
344.254	0.3864
344.592	0.3871
344.93	0.3887
345.268	0.3891
345.605	0.3891
345.943	0.3889
346.28	0.3905
346.618	0.3902
346.955	0.3907
347.292	0.3908
347.629	0.3915
347.966	0.3928
348.303	0.3931
348.64	0.3928
348.977	0.3927
349.314	0.3932
349.65	0.3927
349.987	0.3932
350.324	0.3925
350.66	0.3929
350.996	0.3922
351.333	0.3906
351.669	0.3909
352.005	0.3893
352.341	0.3886
352.677	0.3874
353.013	0.3867
353.349	0.3854
353.685	0.3834
354.02	0.3817
354.356	0.3808
354.691	0.379
355.027	0.3779
355.362	0.376
355.697	0.3753
356.033	0.3728
356.368	0.3712
356.703	0.3705
357.038	0.3694
357.373	0.3675
357.707	0.3666
358.042	0.3648
358.377	0.3632
358.711	0.3628
359.046	0.3597
359.38	0.3591
359.715	0.3576
360.049	0.3555
360.383	0.3533
360.717	0.3515
361.051	0.3493
361.385	0.3471
361.719	0.3448
362.053	0.3415
362.387	0.3385
362.72	0.3365
363.054	0.3345
363.387	0.3312
363.721	0.3289
364.054	0.3258
364.387	0.3226
364.721	0.3206
365.054	0.3174
365.387	0.3145
365.72	0.3117
366.053	0.3097
366.385	0.3075
366.718	0.305
367.051	0.3022
367.383	0.2994
367.716	0.2975
368.048	0.2957
368.381	0.2931
368.713	0.2914
369.045	0.2888
369.377	0.2875
369.709	0.2847
370.041	0.2829
370.373	0.2806
370.705	0.2777
371.037	0.2757
371.368	0.2732
371.7	0.2708
372.031	0.2681
372.363	0.2648
372.694	0.262
373.025	0.259
373.356	0.2548
373.688	0.252
374.019	0.2488
374.35	0.2456
374.68	0.2435
375.011	0.2399
375.342	0.2368
375.673	0.2335
376.003	0.231
376.334	0.2283
376.664	0.2249
376.995	0.2228
377.325	0.2198
377.655	0.2182
377.985	0.2145
378.315	0.212
378.645	0.2105
378.975	0.2081
379.305	0.206
379.635	0.2039
379.964	0.2021
380.294	0.1998
380.623	0.1985
380.953	0.1953
381.282	0.1935
381.611	0.1913
381.941	0.1894
382.27	0.1869
382.599	0.1853
382.928	0.1822
383.257	0.1797
383.585	0.178
383.914	0.1758
384.243	0.1728
384.571	0.1697
384.9	0.1674
385.228	0.1645
385.557	0.1623
385.885	0.1595
386.213	0.1576
386.541	0.1543
386.869	0.152
387.197	0.1499
387.525	0.1462
387.853	0.1447
388.181	0.1424
388.508	0.1401
388.836	0.1369
389.164	0.135
389.491	0.1339
389.818	0.1313
390.146	0.13
390.473	0.1277
390.8	0.1263
391.127	0.1236
391.454	0.122
391.781	0.121
392.108	0.1189
392.435	0.1177
392.761	0.1154
393.088	0.1146
393.415	0.1132
393.741	0.1114
394.067	0.1097
394.394	0.1087
394.72	0.1076
395.046	0.1061
395.372	0.1051
395.698	0.1026
396.024	0.1018
396.35	0.1
396.676	0.0986
397.001	0.0977
397.327	0.0957
397.653	0.0947
397.978	0.0927
398.303	0.0919
398.629	0.0906
398.954	0.0892
399.279	0.0883
399.604	0.0863
399.929	0.0851
400.254	0.0839
400.579	0.0833
400.904	0.0819
401.229	0.0809
401.553	0.0796
401.878	0.0788
402.202	0.0778
402.527	0.077
402.851	0.0761
403.175	0.0757
403.5	0.0749
403.824	0.0736
404.148	0.0728
404.472	0.0729
404.796	0.0719
405.119	0.0717
405.443	0.0704
405.767	0.0702
406.09	0.0702
406.414	0.0692
406.737	0.0683
407.061	0.0685
407.384	0.0686
407.707	0.0679
408.03	0.0673
408.353	0.0671
408.676	0.0672
408.999	0.0662
409.322	0.066
409.645	0.0656
409.968	0.0652
410.29	0.0657
410.613	0.065
410.935	0.0647
411.258	0.0649
411.58	0.0639
411.902	0.0641
412.224	0.0643
412.546	0.0644
412.868	0.0646
413.19	0.0635
413.512	0.0636
413.834	0.0632
414.156	0.0633
414.477	0.0631
414.799	0.0626
415.121	0.0632
415.442	0.0629
415.763	0.0631
416.085	0.0634
416.406	0.0631
416.727	0.0628
417.048	0.063
417.369	0.0635
417.69	0.0635
418.011	0.0631
418.331	0.0638
418.652	0.0634
418.973	0.0635
419.293	0.0636
419.614	0.064
419.934	0.0638
420.254	0.064
420.574	0.0635
420.895	0.0634
421.215	0.0633
421.535	0.0633
421.855	0.0637
422.174	0.0635
422.494	0.0634
422.814	0.0636
423.134	0.0639
423.453	0.0641
423.773	0.0638
424.092	0.0641
424.411	0.0636
424.731	0.0648
425.05	0.0647
425.369	0.0644
425.688	0.0647
426.007	0.0648
426.326	0.0647
426.644	0.0649
426.963	0.0651
427.282	0.0646
427.6	0.065
427.919	0.0651
428.237	0.0652
428.556	0.0657
428.874	0.0648
429.192	0.0663
429.51	0.0655
429.828	0.0658
430.146	0.0657
430.464	0.0654
430.782	0.0659
431.1	0.0652
431.418	0.0655
431.735	0.0659
432.053	0.0662
432.37	0.0656
432.688	0.0656
433.005	0.0661
433.322	0.0656
433.639	0.0659
433.957	0.0669
434.274	0.0659
434.591	0.0657
434.907	0.0657
435.224	0.0668
435.541	0.0674
435.858	0.0676
436.174	0.0666
436.491	0.067
436.807	0.0665
437.124	0.0665
437.44	0.066
437.756	0.0665
438.072	0.0662
438.388	0.0663
438.704	0.0664
439.02	0.0659
439.336	0.0661
439.652	0.0667
439.968	0.066
440.283	0.0662
440.599	0.0663
440.914	0.0664
441.23	0.0662
441.545	0.0655
441.86	0.0653
442.175	0.0654
442.491	0.066
442.806	0.066
443.121	0.0665
443.435	0.0657
443.75	0.0661
444.065	0.0659
444.38	0.0664
444.694	0.0662
445.009	0.066
445.323	0.0659
445.638	0.0653
445.952	0.0652
446.266	0.0652
446.58	0.0649
446.894	0.065
447.208	0.065
447.522	0.0641
447.836	0.0644
448.15	0.0641
448.464	0.0641
448.777	0.0642
449.091	0.0633
449.404	0.0636
449.718	0.0639
450.031	0.064
450.345	0.0633
450.658	0.0638
450.971	0.0631
451.284	0.0635
451.597	0.0634
451.91	0.0625
452.223	0.0622
452.535	0.0625
452.848	0.0628
453.161	0.0621
453.473	0.0626
453.786	0.0622
454.098	0.0621
454.411	0.0625
454.723	0.0622
455.035	0.0621
455.347	0.0617
455.659	0.0604
455.971	0.06
456.283	0.0604
456.595	0.0607
456.907	0.0609
457.218	0.0599
457.53	0.0601
457.841	0.0595
458.153	0.0594
458.464	0.059
458.776	0.0594
459.087	0.0587
459.398	0.0585
459.709	0.0582
460.02	0.0584
460.331	0.0576
460.642	0.0571
460.953	0.058
461.263	0.0569
461.574	0.0572
461.885	0.0573
462.195	0.0565
462.506	0.0565
462.816	0.0558
463.126	0.0552
463.437	0.0557
463.747	0.0561
464.057	0.0554
464.367	0.0556
464.677	0.0546
464.987	0.0543
465.296	0.0543
465.606	0.054
465.916	0.0537
466.225	0.0536
466.535	0.0528
466.844	0.0527
467.154	0.0525
467.463	0.0526
467.772	0.0509
468.081	0.0524
468.39	0.0512
468.699	0.0507
469.008	0.0509
469.317	0.0507
469.626	0.0495
469.935	0.0496
470.243	0.0496
470.552	0.0492
470.86	0.0482
471.169	0.0474
471.477	0.0475
471.785	0.0481
472.093	0.0483
472.402	0.0481
472.71	0.047
473.018	0.0466
473.326	0.0462
473.633	0.0459
473.941	0.0447
474.249	0.0453
474.556	0.0445
474.864	0.0444
475.171	0.0447
475.479	0.0437
475.786	0.0437
476.094	0.0434
476.401	0.0444
476.708	0.0428
477.015	0.0424
477.322	0.0422
477.629	0.0423
477.936	0.0426
478.242	0.0421
478.549	0.0412
478.856	0.041
479.162	0.0403
479.469	0.0411
479.775	0.0396
480.081	0.0395
480.388	0.0396
480.694	0.0401
481	0.0395
481.306	0.0391
481.612	0.0392
481.918	0.0386
482.224	0.0387
482.53	0.0373
482.835	0.037
483.141	0.0372
483.446	0.0373
483.752	0.0361
484.057	0.0356
484.363	0.0359
484.668	0.036
484.973	0.035
485.278	0.0349
485.583	0.0343
485.888	0.0334
486.193	0.0333
486.498	0.0332
486.803	0.0334
487.107	0.0332
487.412	0.0315
487.717	0.0315
488.021	0.0308
488.325	0.0312
488.63	0.0317
488.934	0.0315
489.238	0.0304
489.542	0.0304
489.846	0.0304
490.15	0.0284
490.454	0.0288
490.758	0.0292
491.062	0.0279
491.366	0.0284
491.669	0.0281
491.973	0.0279
492.276	0.0278
492.58	0.0282
492.883	0.0274
493.186	0.0268
493.489	0.0267
493.792	0.0262
494.096	0.026
494.399	0.0257
494.701	0.0254
495.004	0.0251
495.307	0.0252
495.61	0.0256
495.912	0.0242
496.215	0.0248
496.517	0.0245
496.82	0.0246
497.122	0.0235
497.424	0.0237
497.727	0.0227
498.029	0.0236
498.331	0.0212
498.633	0.0224
498.935	0.0223
499.237	0.0214
499.538	0.0217
499.84	0.0217
500.142	0.0213
500.443	0.0213
500.745	0.0206
501.046	0.0212
501.348	0.0203
501.649	0.0208
501.95	0.0204
502.251	0.0189
502.552	0.0202
502.853	0.0186
503.154	0.0192
503.455	0.0194
503.756	0.0194
504.057	0.0193
504.357	0.0189
504.658	0.0193
504.958	0.0179
505.259	0.0176
505.559	0.0183
505.859	0.0177
506.16	0.0173
506.46	0.0164
506.76	0.0164
507.06	0.0161
507.36	0.0165
507.66	0.0169
507.96	0.0155
508.259	0.0153
508.559	0.0156
508.859	0.0157
509.158	0.0144
509.457	0.0154
509.757	0.0148
510.056	0.0145
510.355	0.0149
510.655	0.0139
510.954	0.0145
511.253	0.014
511.552	0.0133
511.851	0.0139
512.149	0.0122
512.448	0.0131
512.747	0.0135
513.045	0.012
513.344	0.0129
513.642	0.0131
513.941	0.0119
514.239	0.0126
514.537	0.0126
514.836	0.0125
515.134	0.0114
515.432	0.0121
515.73	0.0118
516.028	0.0107
516.326	0.0117
516.623	0.0119
516.921	0.0113
517.219	0.0117
517.516	0.0105
517.814	0.0107
518.111	0.0105
518.409	0.0098
518.706	0.0104
519.003	0.009
519.3	0.0105
519.597	0.0101
519.894	0.01
520.191	0.0096
520.488	0.009
520.785	0.0098
521.082	0.0092
521.378	0.0096
521.675	0.0088
521.971	0.0088
522.268	0.0093
522.564	0.0078
522.861	0.0079
523.157	0.0078
523.453	0.0088
523.749	0.0074
524.045	0.0075
524.341	0.0081
524.637	0.0075
524.933	0.0072
525.229	0.0084
525.524	0.0077
525.82	0.0071
526.115	0.0061
526.411	0.0071
526.706	0.0057
527.002	0.0061
527.297	0.0058
527.592	0.0062
527.887	0.0056
528.182	0.0056
528.477	0.0054
528.772	0.0057
529.067	0.0053
529.362	0.0046
529.657	0.0048
529.951	0.0061
530.246	0.0058
530.54	0.0059
530.835	0.0059
531.129	0.0066
531.423	0.0053
531.718	0.0057
532.012	0.0054
532.306	0.0056
532.6	0.0055
532.894	0.0067
533.188	0.0049
533.482	0.0051
533.775	0.0055
534.069	0.0043
534.363	0.0039
534.656	0.0052
534.95	0.0045
535.243	0.0032
535.536	0.0052
535.83	0.0045
536.123	0.0047
536.416	0.0059
536.709	0.0037
537.002	0.0042
537.295	0.0028
537.588	0.0031
537.881	0.0049
538.173	0.0048
538.466	0.0034
538.759	0.0031
539.051	0.0038
539.344	0.0037
539.636	0.0029
539.928	0.0032
540.22	0.0028
540.513	0.0036
540.805	0.003
541.097	0.0029
541.389	0.0041
541.681	0.0041
541.972	0.0025
542.264	0.004
542.556	0.0029
542.847	0.0029
543.139	0.0019
543.431	0.0033
543.722	0.0035
544.013	0.0018
544.305	0.003
544.596	0.0013
544.887	0.0016
545.178	0.0021
545.469	0.0014
545.76	0.0028
546.051	0.0025
546.342	0.0009
546.632	0.0024
546.923	0.003
547.214	0.0021
547.504	0.0027
547.795	0.0012
548.085	0.0031
548.375	0.0029
548.666	0.0024
548.956	0.0022
549.246	0.0027
549.536	0.0019
549.826	0.0026
550.116	0.0031
550.406	0.0029
550.695	0.0033
550.985	0.0031
551.275	0.002
551.564	0.0015
551.854	0.0032
552.143	0.0028
552.433	0.0022
552.722	0.0007
553.011	0.0018
553.3	0.0026
553.589	0.0018
553.879	0.0014
554.167	0.0011
554.456	0.0016
554.745	0.0025
555.034	0.0015
555.323	0.0012
555.611	0.0023
555.9	0.0024
556.188	0.001
556.477	0.0027
556.765	0.001
557.053	0.0022
557.342	0.0024
557.63	0.0021
557.918	0.0027
558.206	0.0028
558.494	0.003
558.782	0.0017
559.069	0.0034
559.357	0.0042
559.645	0.0033
559.932	0.0021
560.22	0.004
560.507	0.002
560.795	0.0022
561.082	0.0018
561.37	0.0026
561.657	0.0027
561.944	0.001
562.231	0.0014
562.518	0.0015
562.805	0.0016
563.092	0.0012
563.379	0.0024
563.665	0.002
563.952	0.0018
564.239	0.0033
564.525	0.0027
564.811	0.0033
565.098	0.0018
565.384	0.0025
565.67	0.004
565.957	0.0032
566.243	0.0031
566.529	0.0034
566.815	0.0014
567.101	0.0027
567.387	0.0028
567.672	0.0015
567.958	0.0022
568.244	0.0022
568.529	0.0019
568.815	0.002
569.1	0.0015
569.386	0.003
569.671	0.0033
569.956	0.0023
570.242	0.0023
570.527	0.0025
570.812	0.0018
571.097	0.0025
571.382	0.0035
571.666	0.0033
571.951	0.0027
572.236	0.0026
572.521	0.0028
572.805	0.0031
573.09	0.0016
573.374	0.0024
573.659	0.0029
573.943	0.0031
574.227	0.0032
574.511	0.0031
574.795	0.0022
575.079	0.0022
575.363	0.0017
575.647	0.0017
575.931	0.0016
576.215	0.001
576.499	0.0016
576.782	0.0027
577.066	0.0011
577.349	0.0014
577.633	0.0017
577.916	0.002
578.2	0.0025
578.483	0.0018
578.766	0.0021
579.049	0.0028
579.332	0.0019
579.615	0.0026
579.898	0.0023
580.181	0.0014
580.464	0.0014
580.746	0.0019
581.029	0.0029
581.312	0.003
581.594	0.0025
581.877	0.0026
582.159	0.0015
582.441	0.0021
582.724	0.0018
583.006	0.0018
583.288	0.0014
583.57	0.0021
583.852	0.0009
584.134	0.0017
584.416	0.0021
584.697	0.0021
584.979	0.0022
585.261	0.0021
585.542	0.0013
585.824	0.0011
586.105	0.0011
586.387	0.0013
586.668	0.0014
586.949	0.0015
587.231	0.0017
587.512	0.0016
587.793	0.0019
588.074	0.002
588.355	0.0012
588.636	0.0022
588.916	0.0023
589.197	0.0024
589.478	0.0022
589.758	0.0029
590.039	0.0023
590.319	0.0023
590.6	0.0021
590.88	0.0018
591.16	0.0011
591.441	0.0016
591.721	0.0019
592.001	0.0019
592.281	0.001
592.561	0.0017
592.841	0.0022
593.12	0.0026
593.4	0.0005
593.68	0.0014
593.959	0.0017
594.239	0.0017
594.518	0.002
594.798	0.0023
595.077	0.0028
595.356	0.002
595.636	0.0013
595.915	0.0014
596.194	0.0018
596.473	0.0013
596.752	0.0017
597.031	0.0021
597.31	0.0022
597.588	0.0022
597.867	0.0015
598.146	0.0015
598.424	0.0021
598.703	0.0014
598.981	0.0017
599.259	0.0014
599.538	0.0008
599.816	0.0017
600.094	0.0016
600.372	0.0018
600.65	0.0007
600.928	0.0011
601.206	-0.0006
601.484	0.0006
601.762	-0.0009
602.04	-0.0006
602.317	0.0002
602.595	0.0007
602.872	0.0004
603.15	0.001
603.427	0.0014
603.704	0.0022
603.982	0.0014
604.259	0.001
604.536	0.0017
604.813	0.0005
605.09	0.0004
605.367	0.0008
605.644	0.0001
605.921	-0.0007
606.197	0.0002
606.474	0.0008
606.751	0
607.027	0.0006
607.304	0.0011
607.58	0.0011
607.856	0.0003
608.133	0.0004
608.409	-0.0002
608.685	0.0007
608.961	0
609.237	0.0002
609.513	0.0005
609.789	0.0003
610.065	0.0007
610.341	0.0008
610.616	0.0001
610.892	-0.0001
611.167	0.0009
611.443	0.0011
611.718	0.0007
611.994	0.0004
612.269	0.0008
612.544	0.0006
612.819	0.0014
613.095	0.0007
613.37	0.0009
613.645	0.0019
613.919	0.0024
614.194	0.0026
614.469	0.0031
614.744	0.0018
615.019	0.0012
615.293	0.0008
615.568	-0.0003
615.842	0.0002
616.116	0.0008
616.391	0.0004
616.665	0.0005
616.939	-0.0002
617.213	-0.0001
617.488	0.0001
617.762	0.0003
618.035	0.0003
618.309	-0.0003
618.583	0.0011
618.857	0.0009
619.131	0.0014
619.404	-0.0001
619.678	0.0003
619.951	0.0015
620.225	0.0011
620.498	0.0001
620.771	0.0009
621.045	0.0009
621.318	0.0006
621.591	0.0007
621.864	0.0011
622.137	0.0015
622.41	0.0008
622.683	0.002
622.956	0.0011
623.228	0.0005
623.501	0.0009
623.774	0.0001
624.046	0.0007
624.319	0.0009
624.591	-0.0004
624.863	0.0003
625.136	-0.001
625.408	0.0005
625.68	-0.0004
625.952	0.0005
626.224	-0.0002
626.496	0.0001
626.768	0.0005
627.04	0.0003
627.311	-0.0008
627.583	-0.0003
627.855	0.0001
628.126	0.0004
628.398	-0.0001
628.669	-0.0021
628.941	0.0001
629.212	0.0007
629.483	0.0008
629.755	-0
630.026	0.0007
630.297	0.001
630.568	0.0001
630.839	0.0004
631.11	-0.0009
631.38	-0.0006
631.651	-0.001
631.922	-0.0011
632.192	-0.0012
632.463	0.0005
632.733	-0.0001
633.004	0.0003
633.274	-0.0005
633.545	0.0002
633.815	0.0004
634.085	0.0004
634.355	0.0007
634.625	0.0004
634.895	0.0013
635.165	0.0004
635.435	0.0009
635.705	-0.0006
635.974	0.0002
636.244	-0.0005
636.514	0.0009
636.783	0.0004
637.053	0.0021
637.322	0.0018
637.591	0.0017
637.861	0.0004
638.13	0.001
638.399	0.002
638.668	0.002
638.937	0.0007
639.206	0.0018
639.475	0.0011
639.744	0.0006
640.013	0.0022
640.281	0.0028
640.55	0.0024
640.819	0.0025
641.087	0.0022
641.356	0.0024
641.624	0.0028
641.892	0.0015
642.161	0.0009
642.429	0.0016
642.697	0.001
642.965	0.0022
643.233	0.0019
643.501	0.0022
643.769	0.0009
644.037	0.0014
644.305	0.0004
644.572	0.0007
644.84	-0.0007
645.108	-0.0012
645.375	-0.0016
645.643	-0.0026
645.91	-0.0012
646.177	-0.0008
646.445	-0.0022
646.712	-0.0018
646.979	-0.0015
647.246	-0.001
647.513	0.0008
647.78	0.001
648.047	0.0012
648.314	0.0014
648.58	0.0003
648.847	0.0011
649.114	0.0003
649.38	-0.0007
649.647	-0.0004
649.913	-0.0005
650.18	-0.002
650.446	-0.0015
650.712	-0.0007
650.978	-0.0019
651.245	-0.0015
651.511	0
651.777	-0.0008
652.043	0.0006
652.309	-0.0001
652.574	-0.0004
652.84	-0.0008
653.106	-0.0002
653.371	-0
653.637	-0.0013
653.903	0.0005
654.168	0.0008
654.433	0.0013
654.699	0.0024
654.964	0.003
655.229	0.002
655.494	0.0021
655.759	0.0016
656.024	0.0012
656.289	-0
656.554	-0.0006
656.819	-0.001
657.084	0.0002
657.349	-0.0005
657.613	0.0012
657.878	-0.0002
658.142	-0.0003
658.407	0.0009
658.671	-0
658.936	0.0014
659.2	0.0016
659.464	0.0014
659.728	0.0023
659.992	0.0014
660.256	0.0016
660.52	-0
660.784	0.0012
661.048	0.0017
661.312	0.0014
661.575	0.0007
661.839	0.0005
662.103	0.0003
662.366	0.0003
662.63	0
662.893	0.0009
663.156	0.0008
663.42	0.001
663.683	0.0004
663.946	0.0001
664.209	0.0008
664.472	0.0009
664.735	0.0019
664.998	0.0021
665.261	0.002
665.524	0.0006
665.786	0.0003
666.049	0.0015
666.312	0.0022
666.574	0.0032
666.837	0.0019
667.099	0.0027
667.361	0.0009
667.624	-0.0002
667.886	0.0005
668.148	0.0015
668.41	0.0013
668.672	0.0016
668.934	0.0019
669.196	0.0018
669.458	0.002
669.72	0.0023
669.982	0.0015
670.243	0.0014
670.505	0.0012
670.766	0.0009
671.028	0.0014
671.289	0.0004
671.551	0.0008
671.812	0.001
672.073	0.0016
672.334	0.0012
672.596	0.0028
672.857	0.0021
673.118	0.0026
673.379	0.0033
673.639	0.0025
673.9	0.0015
674.161	0.0017
674.422	0.0017
674.682	0.0008
674.943	0.002
675.203	0.0036
675.464	0.0029
675.724	0.0022
675.985	0.0019
676.245	0.0022
676.505	0.0004
676.765	0.0003
677.025	0.0002
677.285	0.0004
677.545	0.0003
677.805	0.0005
678.065	-0
678.325	0.0019
678.585	0.0013
678.844	0.002
679.104	0.0021
679.363	0.0007
679.623	0.0009
679.882	0.0005
680.142	0.0011
680.401	0.0013
680.66	0.0012
680.919	0.0005
681.178	0.0015
681.437	0.0019
681.696	0.0015
681.955	0.0022
682.214	0.003
682.473	0.0031
682.732	0.0029
682.99	0.0006
683.249	0.0013
683.508	0.001
683.766	0.001
684.024	0.0009
684.283	0.0013
684.541	0.0007
684.799	0.0012
685.058	0.001
685.316	0.001
685.574	0.0008
685.832	0.0001
686.09	-0.0003
686.348	-0.0003
686.606	-0.001
686.863	-0.0007
687.121	-0.0017
687.379	-0.0011
687.636	-0.0014
687.894	-0.0002
688.151	-0.0003
688.409	-0.001
688.666	-0.0011
688.923	-0.0015
689.181	-0.0005
689.438	0.0006
689.695	0.0018
689.952	0.0017
690.209	0.0015
690.466	0.0016
690.723	0.0008
690.979	0.0006
691.236	0.0008
691.493	0.0004
691.75	-0.0001
692.006	0.0003
692.263	0.0008
692.519	0.0005
692.775	0.0003
693.032	-0.0002
693.288	0.001
693.544	-0.0003
693.8	-0.0005
694.056	-0.0006
694.313	-0.001
694.568	-0.0005
694.824	-0.0008
695.08	-0.0004
695.336	0.0006
695.592	0.0005
695.847	-0.0001
696.103	-0.0011
696.359	0.0002
696.614	0.0004
696.869	0.0009
697.125	0.0005
697.38	0.0002
697.635	0.0002
697.891	0.0003
698.146	-0.0013
698.401	-0.0018
698.656	-0.0021
698.911	-0.0024
699.166	-0.0035
699.42	-0.003
699.675	-0.0018
699.93	-0.0023
700.185	-0.0006
700.439	-0.0005
700.694	0.0011
700.948	0.0002
701.203	0.0002
701.457	-0.0004
701.711	-0.0003
701.965	-0.0003
702.22	-0.0005
702.474	0.0007
702.728	0.001
702.982	0.001
703.236	0.0002
703.49	0.0001
703.743	-0.0001
703.997	-0.0003
704.251	0.0001
704.504	-0.0006
704.758	0.0005
705.012	-0.0005
705.265	-0.0004
705.518	-0.0003
705.772	0.0001
706.025	-0.0002
706.278	-0.0002
706.531	0.0002
706.785	-0.0004
707.038	-0.0011
707.291	0.0004
707.543	-0.0004
707.796	-0.0004
708.049	-0.0001
708.302	0
708.555	0.0012
708.807	0.0013
709.06	0.0002
709.312	-0.0004
709.565	-0.0003
709.817	-0.0016
710.069	-0.0008
710.322	-0.0024
710.574	-0.001
710.826	-0.001
711.078	0.0004
711.33	0.0014
711.582	0.0019
711.834	0.0008
712.086	-0.0002
712.338	-0.0015
712.59	-0.0012
712.841	-0.0007
713.093	-0.0013
713.344	-0.0016
713.596	-0.0005
713.847	-0.0007
714.099	0.0006
714.35	-0.0011
714.601	-0.0012
714.853	-0.0019
715.104	-0.002
715.355	-0.0023
715.606	-0.0012
715.857	-0.0015
716.108	-0.0016
716.359	-0.002
716.609	-0.0024
716.86	-0.0019
717.111	-0.0008
717.361	-0.0018
717.612	-0.0016
717.863	-0.0015
718.113	-0.0019
718.363	-0.002
718.614	-0.0031
718.864	-0.0013
719.114	-0.0021
719.364	-0.0019
719.614	-0.0025
719.865	-0.003
720.114	-0.0032
720.364	-0.0025
720.614	-0.0023
720.864	-0.0017
721.114	-0.0003
721.364	-0.0012
721.613	-0.0001
721.863	-0.0005
722.112	-0.0008
722.362	-0.0014
722.611	-0.002
722.86	-0.0024
723.11	-0.0028
723.359	-0.0016
723.608	-0.0024
723.857	-0.0017
724.106	-0.0015
724.355	-0.0013
724.604	-0.0013
724.853	-0.001
725.102	-0.0017
725.351	-0.001
725.599	-0.0009
725.848	-0.0002
726.097	0.0002
726.345	0.0016
726.594	0.002
726.842	0.0013
727.09	0.0002
727.339	-0.0008
727.587	-0.0002
727.835	-0.0011
728.083	-0.0015
728.331	-0.0022
728.579	-0.0014
728.827	-0.0005
729.075	-0.0004
729.323	0.0008
729.571	0.0014
729.818	0.0022
730.066	0.001
730.314	0.0012
730.561	0.0002
730.809	-0.0012
731.056	-0.001
731.303	-0.0006
731.551	-0.0006
731.798	-0.0014
732.045	-0.0017
732.292	-0.0007
732.539	-0.0011
732.786	-0.0008
733.033	-0.0007
733.28	-0.0008
733.527	-0.0007
733.774	-0.0015
734.021	-0.0009
734.267	-0.0007
734.514	-0.0001
734.76	-0.0002
735.007	-0.0007
735.253	-0.0007
735.5	-0.0004
735.746	0.0001
735.992	-0.0004
736.238	-0.0008
736.485	-0.0008
736.731	-0.002
736.977	-0.0015
737.223	-0.0014
737.469	-0.0025
737.715	-0.0011
737.96	-0.0012
738.206	-0.0008
738.452	0.0008
738.697	0.002
738.943	0.0014
739.189	0.001
739.434	0.0006
739.679	-0.0004
739.925	-0.0002
740.17	0.0002
740.415	0.0006
740.66	0.0004
740.906	-0.0007
741.151	-0.0001
741.396	-0.0007
741.641	-0.0007
741.886	-0.0017
742.13	-0.0011
742.375	-0.001
742.62	-0.0005
742.865	-0.0016
743.109	-0.0021
743.354	-0.0025
743.598	-0.0018
743.843	-0.0018
744.087	-0.0011
744.331	-0.0018
744.576	-0.0008
744.82	-0.0024
745.064	-0.0019
745.308	-0.0022
745.552	-0.0019
745.796	-0.0007
746.04	-0.002
746.284	-0.0015
746.528	-0.0027
746.771	-0.0028
747.015	-0.0026
747.259	-0.0027
747.502	-0.0019
747.746	-0.0017
747.989	-0.0018
748.233	-0.0027
748.476	-0.0022
748.719	-0.0031
748.963	-0.0027
749.206	-0.0014
749.449	-0.0021
749.692	-0.0005
749.935	-0.0002
750.178	-0.0011
750.421	-0.0015
750.664	-0.0035
750.906	-0.0038
751.149	-0.0038
751.392	-0.0027
751.635	-0.0028
751.877	-0.0026
752.12	-0.0027
752.362	-0.0037
752.604	-0.0033
752.847	-0.0028
753.089	-0.0021
753.331	-0.0017
753.573	-0.0015
753.816	-0.0015
754.058	-0.0018
754.3	-0.0014
754.542	-0.0018
754.783	-0.0018
755.025	-0.0018
755.267	-0.0032
755.509	-0.0038
755.75	-0.0038
755.992	-0.0038
756.234	-0.0035
756.475	-0.0035
756.716	-0.0013
756.958	-0.0007
757.199	-0.0011
757.44	-0.003
757.682	-0.0024
757.923	-0.0024
758.164	-0.0026
758.405	-0.002
758.646	-0.0017
758.887	-0.0015
759.128	-0.0023
759.369	-0.0024
759.609	-0.0019
759.85	-0.0022
760.091	-0.0022
760.331	-0.0008
760.572	-0.0009
760.812	-0.0016
761.053	-0.0011
761.293	-0.0007
761.533	-0.0003
761.774	0.0004
762.014	0.001
762.254	-0.0002
762.494	0.0003
762.734	-0.0004
762.974	-0.0001
763.214	-0.0004
763.454	-0.0009
763.694	-0.0009
763.933	-0.0002
764.173	-0.0007
764.413	0.0003
764.652	-0.0007
764.892	-0.0016
765.131	-0.0019
765.371	-0.0015
765.61	-0.0014
765.849	-0.0024
766.089	-0.0027
766.328	-0.0023
766.567	-0.0011
766.806	-0.0022
767.045	0.0009
767.284	0.0007
767.523	0.0005
767.762	-0.0013
768.001	-0.001
768.239	-0.0009
768.478	0.0003
768.717	-0.0005
768.955	-0.0004
769.194	-0.0002
769.432	-0.0008
769.671	-0.0007
769.909	0.0008
770.148	0.0003
770.386	0.0013
770.624	0.0007
770.862	0.0019
771.1	0.0013
771.338	0.0012
771.576	0.0013
771.814	0.0006
772.052	-0.001
772.29	-0.0002
772.528	-0.0011
772.765	-0.0002
773.003	-0.0003
773.24	-0.0002
773.478	-0
773.716	0.001
773.953	0.0014
774.19	0.002
774.428	0.0016
774.665	0.0034
774.902	0.0023
775.139	0.0027
775.376	0.0009
775.613	0.0023
775.85	0.0024
776.087	0.0026
776.324	0.0045
776.561	0.0042
776.798	0.0041
777.034	0.005
777.271	0.0033
777.508	0.0031
777.744	0.0027
777.981	0.0019
778.217	0.0019
778.454	0.0016
778.69	0.0013
778.926	0.0015
779.162	0.0006
779.399	-0.0006
779.635	-0.0012
779.871	-0.0022
780.107	-0.0008
780.343	-0.001
780.579	0.0005
780.814	-0.0003
781.05	-0.0004
781.286	-0.0011
781.522	-0.0004
781.757	0.0001
781.993	0.0008
782.228	0.0017
782.464	0.0013
782.699	0.0017
782.934	0.0014
783.17	0.002
783.405	0.0021
783.64	0.0016
783.875	0.0016
784.11	0.0018
784.345	0.0016
784.58	0.0012
784.815	0.0015
785.05	0.0007
785.285	0.0006
785.52	0.0007
785.754	0.0001
785.989	-0
786.223	0.0002
786.458	0.0002
786.692	0
786.927	0.0008
787.161	0.0004
787.396	0.0015
787.63	0.0023
787.864	0.0013
788.098	0.0012
788.332	0.001
788.566	0.0007
788.8	0.0009
789.034	0.0005
789.268	0.0012
789.502	0.0016
789.736	0.0015
789.969	0.0023
790.203	0.0019
790.437	0.0018
790.67	0.0016
790.904	0.0005
791.137	0.0009
791.37	0.0006
791.604	-0.0004
791.837	-0.0008
792.07	-0.0006
792.303	-0.0015
792.537	-0.0022
792.77	-0.0025
793.003	-0.0027
793.236	-0.0019
793.469	-0.0004
793.701	-0.0014
793.934	-0.0023
794.167	-0.0023
794.4	-0.0015
794.632	-0.0009
794.865	-0.0022
795.097	-0.0013
795.33	-0.001
795.562	-0.0009
795.795	-0.0006
796.027	-0.0014
796.259	-0.0019
796.491	-0.0023
796.724	-0.0021
796.956	-0.0016
797.188	-0.0017
797.42	-0.0016
797.652	-0.0013
797.883	-0.0016
798.115	-0.0019
798.347	-0.0019
798.579	-0.002
798.81	-0.0026
799.042	-0.0023
799.274	-0.0016
799.505	-0.0009
799.737	-0.0005
799.968	0.0002
800.199	0.0006
800.431	0.0021
800.662	0.0021
800.893	0.0026
801.124	0.0022
801.355	0.0022
801.586	0.0036
801.817	0.0013
802.048	0.0009
802.279	0.0017
802.51	-0.0001
802.741	0.0013
802.971	-0.0002
803.202	-0.0006
803.433	-0.0011
803.663	-0.0005
803.894	-0.0012
804.124	-0.0008
804.354	-0.0011
804.585	-0.0016
804.815	-0.0006
805.045	-0.0015
805.275	0.0002
805.506	-0.0697
805.736	0.1053
805.966	0.2513
806.196	0.191
