Data from 03 0.5 mM K2Cr2O7 0.2 mM BQDS 1 M H2SO4 5 min_Absorbance_0021.txt Node
Date: Thu Dec 09 17:31:44 EST 2021
User: kwabilab-user
Spectrometer: HDX00518
Trigger mode: 0
Integration Time (sec): 5.000000E-2
Scans to average: 50
Nonlinearity correction enabled: false
Boxcar width: 0
Storing dark spectrum: false
XAxis mode: Wavelengths
Number of Pixels in Spectrum: 2068
>>>>>Begin Spectral Data<<<<<
195.27	0.4232
195.642	0.314
196.014	0.2058
196.386	0.351
196.758	0.0454
197.129	0.0342
197.501	0.0812
197.872	0.1212
198.244	0.1399
198.615	0.1337
198.986	0.1272
199.357	0.1162
199.728	0.1311
200.099	0.1469
200.47	0.1436
200.841	0.1338
201.212	0.1462
201.582	0.1555
201.953	0.1276
202.323	0.1294
202.694	0.1552
203.064	0.1249
203.434	0.1376
203.804	0.1301
204.174	0.1372
204.544	0.1281
204.914	0.1612
205.284	0.1395
205.653	0.1536
206.023	0.1638
206.393	0.1552
206.762	0.1568
207.131	0.1558
207.501	0.1449
207.87	0.1642
208.239	0.1406
208.608	0.1789
208.977	0.1321
209.346	0.1673
209.715	0.1683
210.083	0.153
210.452	0.1653
210.82	0.1768
211.189	0.1728
211.557	0.1511
211.925	0.2003
212.294	0.1768
212.662	0.178
213.03	0.1926
213.398	0.1997
213.766	0.1981
214.133	0.1783
214.501	0.2184
214.869	0.2104
215.236	0.2144
215.604	0.2239
215.971	0.2499
216.338	0.275
216.705	0.2675
217.072	0.2627
217.439	0.2784
217.806	0.326
218.173	0.3432
218.54	0.3688
218.907	0.3712
219.273	0.4357
219.64	0.4613
220.006	0.4988
220.373	0.5101
220.739	0.5433
221.105	0.5945
221.471	0.6316
221.837	0.6738
222.203	0.7132
222.569	0.7515
222.935	0.7883
223.3	0.8016
223.666	0.8368
224.031	0.8823
224.397	0.8964
224.762	0.925
225.127	0.9613
225.493	0.9932
225.858	1.0194
226.223	1.0308
226.588	1.0545
226.952	1.0641
227.317	1.0958
227.682	1.085
228.046	1.0901
228.411	1.1084
228.775	1.1182
229.14	1.1115
229.504	1.1233
229.868	1.1323
230.232	1.13
230.596	1.1316
230.96	1.1244
231.324	1.1197
231.688	1.1153
232.052	1.1131
232.415	1.1186
232.779	1.1049
233.142	1.1031
233.505	1.0969
233.869	1.0905
234.232	1.0838
234.595	1.0595
234.958	1.0616
235.321	1.0536
235.684	1.0492
236.047	1.0447
236.409	1.0244
236.772	1.0215
237.134	1.0157
237.497	1.0078
237.859	1.0024
238.222	0.99
238.584	0.9813
238.946	0.9769
239.308	0.9693
239.67	0.9619
240.032	0.9578
240.393	0.9491
240.755	0.9461
241.117	0.9402
241.478	0.9324
241.84	0.925
242.201	0.9176
242.562	0.9152
242.924	0.9083
243.285	0.9028
243.646	0.9044
244.007	0.8947
244.368	0.8938
244.728	0.8878
245.089	0.8836
245.45	0.8788
245.81	0.8764
246.171	0.8757
246.531	0.8702
246.891	0.8667
247.252	0.8667
247.612	0.8626
247.972	0.8607
248.332	0.856
248.692	0.8563
249.051	0.8588
249.411	0.853
249.771	0.8452
250.13	0.847
250.49	0.8461
250.849	0.848
251.208	0.8461
251.568	0.8467
251.927	0.8434
252.286	0.8437
252.645	0.8431
253.004	0.8417
253.363	0.8409
253.721	0.8429
254.08	0.8389
254.439	0.8379
254.797	0.8386
255.155	0.8359
255.514	0.8354
255.872	0.8371
256.23	0.8355
256.588	0.839
256.946	0.8362
257.304	0.8351
257.662	0.8363
258.02	0.8355
258.377	0.8319
258.735	0.8333
259.093	0.8325
259.45	0.8308
259.807	0.8319
260.165	0.8291
260.522	0.832
260.879	0.8295
261.236	0.8274
261.593	0.828
261.95	0.824
262.306	0.8255
262.663	0.8214
263.02	0.8228
263.376	0.8177
263.733	0.8187
264.089	0.8166
264.445	0.8153
264.802	0.8147
265.158	0.8131
265.514	0.8159
265.87	0.808
266.226	0.8085
266.581	0.8057
266.937	0.8034
267.293	0.8002
267.648	0.7977
268.004	0.7969
268.359	0.7941
268.714	0.7916
269.07	0.7885
269.425	0.7856
269.78	0.7816
270.135	0.7824
270.49	0.78
270.844	0.7754
271.199	0.771
271.554	0.7698
271.908	0.7676
272.263	0.765
272.617	0.7591
272.972	0.7562
273.326	0.7507
273.68	0.7461
274.034	0.7459
274.388	0.7391
274.742	0.7382
275.096	0.7354
275.45	0.7274
275.803	0.7253
276.157	0.7214
276.51	0.715
276.864	0.7127
277.217	0.7055
277.571	0.7024
277.924	0.6952
278.277	0.693
278.63	0.6868
278.983	0.6813
279.336	0.6768
279.688	0.6724
280.041	0.6654
280.394	0.6605
280.746	0.6555
281.099	0.6497
281.451	0.6424
281.803	0.6385
282.156	0.6314
282.508	0.6266
282.86	0.6217
283.212	0.6164
283.564	0.6095
283.916	0.6028
284.267	0.5969
284.619	0.591
284.971	0.5857
285.322	0.5794
285.673	0.5734
286.025	0.5681
286.376	0.5626
286.727	0.5567
287.078	0.5478
287.429	0.5427
287.78	0.5363
288.131	0.5304
288.482	0.5245
288.833	0.5176
289.183	0.5105
289.534	0.5043
289.884	0.4989
290.235	0.4907
290.585	0.4856
290.935	0.4794
291.285	0.4728
291.635	0.4673
291.985	0.4595
292.335	0.4543
292.685	0.4481
293.035	0.4418
293.384	0.4346
293.734	0.4285
294.083	0.4243
294.433	0.4173
294.782	0.4115
295.131	0.4048
295.48	0.398
295.829	0.3933
296.179	0.3877
296.527	0.3821
296.876	0.3747
297.225	0.3697
297.574	0.364
297.922	0.3582
298.271	0.3531
298.619	0.3475
298.968	0.3419
299.316	0.3365
299.664	0.3322
300.012	0.3266
300.36	0.3219
300.708	0.3175
301.056	0.3127
301.404	0.3073
301.752	0.3032
302.099	0.3002
302.447	0.2945
302.794	0.2917
303.142	0.2865
303.489	0.2828
303.836	0.279
304.183	0.2752
304.531	0.2721
304.878	0.2679
305.224	0.2651
305.571	0.2622
305.918	0.2587
306.265	0.256
306.611	0.2533
306.958	0.2508
307.304	0.2476
307.651	0.2458
307.997	0.243
308.343	0.241
308.689	0.2389
309.035	0.2373
309.381	0.236
309.727	0.234
310.073	0.2324
310.419	0.2306
310.764	0.2291
311.11	0.2282
311.455	0.2268
311.801	0.2259
312.146	0.2252
312.491	0.2244
312.837	0.2235
313.182	0.2229
313.527	0.2223
313.872	0.2223
314.216	0.2218
314.561	0.222
314.906	0.2216
315.251	0.2216
315.595	0.2215
315.94	0.222
316.284	0.2229
316.628	0.222
316.972	0.2235
317.317	0.2239
317.661	0.2247
318.005	0.2248
318.348	0.2257
318.692	0.2264
319.036	0.2273
319.38	0.2285
319.723	0.2299
320.067	0.2308
320.41	0.232
320.754	0.233
321.097	0.235
321.44	0.2357
321.783	0.2374
322.126	0.239
322.469	0.2403
322.812	0.2422
323.155	0.2437
323.498	0.2463
323.84	0.2476
324.183	0.2499
324.525	0.252
324.868	0.253
325.21	0.2556
325.552	0.2576
325.894	0.2595
326.236	0.2611
326.578	0.2639
326.92	0.2658
327.262	0.2683
327.604	0.2695
327.946	0.2725
328.287	0.2739
328.629	0.2765
328.97	0.2785
329.312	0.2815
329.653	0.2831
329.994	0.2858
330.335	0.2882
330.676	0.2909
331.017	0.2935
331.358	0.2963
331.699	0.2989
332.04	0.3006
332.38	0.3027
332.721	0.3047
333.061	0.308
333.402	0.3096
333.742	0.3118
334.083	0.3148
334.423	0.3161
334.763	0.3186
335.103	0.3209
335.443	0.3219
335.783	0.3244
336.123	0.3268
336.462	0.3288
336.802	0.3304
337.141	0.3322
337.481	0.3341
337.82	0.3364
338.16	0.338
338.499	0.3397
338.838	0.3418
339.177	0.3442
339.516	0.3458
339.855	0.3475
340.194	0.3498
340.533	0.3516
340.872	0.3529
341.21	0.3549
341.549	0.3559
341.887	0.3572
342.226	0.3585
342.564	0.3596
342.902	0.3603
343.24	0.3612
343.578	0.3621
343.916	0.3623
344.254	0.3632
344.592	0.363
344.93	0.3648
345.268	0.3653
345.605	0.3649
345.943	0.3657
346.28	0.3662
346.618	0.3663
346.955	0.3662
347.292	0.3672
347.629	0.3675
347.966	0.3684
348.303	0.3685
348.64	0.3681
348.977	0.3678
349.314	0.3694
349.65	0.3686
349.987	0.3692
350.324	0.3689
350.66	0.3677
350.996	0.3683
351.333	0.3674
351.669	0.3657
352.005	0.3651
352.341	0.3641
352.677	0.3639
353.013	0.3624
353.349	0.3609
353.685	0.3594
354.02	0.3577
354.356	0.3566
354.691	0.355
355.027	0.3537
355.362	0.3522
355.697	0.3505
356.033	0.3495
356.368	0.3477
356.703	0.347
357.038	0.3458
357.373	0.3443
357.707	0.3431
358.042	0.3415
358.377	0.34
358.711	0.3384
359.046	0.3374
359.38	0.3357
359.715	0.3341
360.049	0.3323
360.383	0.3301
360.717	0.3284
361.051	0.3259
361.385	0.3241
361.719	0.3217
362.053	0.3194
362.387	0.3158
362.72	0.3147
363.054	0.311
363.387	0.3093
363.721	0.3055
364.054	0.3041
364.387	0.3009
364.721	0.299
365.054	0.296
365.387	0.2932
365.72	0.2899
366.053	0.2886
366.385	0.2863
366.718	0.284
367.051	0.2817
367.383	0.2786
367.716	0.2761
368.048	0.275
368.381	0.2729
368.713	0.2707
369.045	0.2688
369.377	0.2667
369.709	0.2648
370.041	0.2625
370.373	0.2607
370.705	0.2583
371.037	0.2555
371.368	0.2529
371.7	0.251
372.031	0.2476
372.363	0.2455
372.694	0.2431
373.025	0.2397
373.356	0.237
373.688	0.233
374.019	0.2305
374.35	0.2271
374.68	0.2245
375.011	0.2209
375.342	0.2188
375.673	0.2152
376.003	0.2138
376.334	0.2095
376.664	0.2068
376.995	0.2052
377.325	0.2023
377.655	0.2003
377.985	0.1978
378.315	0.1957
378.645	0.1939
378.975	0.1913
379.305	0.1894
379.635	0.1874
379.964	0.1859
380.294	0.1838
380.623	0.1819
380.953	0.1797
381.282	0.1779
381.611	0.1752
381.941	0.1737
382.27	0.1709
382.599	0.1699
382.928	0.1667
383.257	0.1651
383.585	0.1628
383.914	0.1603
384.243	0.1588
384.571	0.1554
384.9	0.1536
385.228	0.1511
385.557	0.1482
385.885	0.1456
386.213	0.143
386.541	0.1412
386.869	0.1385
387.197	0.1364
387.525	0.1332
387.853	0.1316
388.181	0.1291
388.508	0.1271
388.836	0.1242
389.164	0.1228
389.491	0.1211
389.818	0.1199
390.146	0.1171
390.473	0.1161
390.8	0.1143
391.127	0.1124
391.454	0.1109
391.781	0.1098
392.108	0.108
392.435	0.106
392.761	0.1051
393.088	0.1031
393.415	0.1017
393.741	0.1008
394.067	0.0995
394.394	0.0977
394.72	0.0971
395.046	0.096
395.372	0.0945
395.698	0.093
396.024	0.0915
396.35	0.0903
396.676	0.0888
397.001	0.0874
397.327	0.0857
397.653	0.0851
397.978	0.0833
398.303	0.0824
398.629	0.0812
398.954	0.0798
399.279	0.0789
399.604	0.0771
399.929	0.0767
400.254	0.0758
400.579	0.0748
400.904	0.0739
401.229	0.0726
401.553	0.0712
401.878	0.0711
402.202	0.0704
402.527	0.069
402.851	0.068
403.175	0.0681
403.5	0.0674
403.824	0.0663
404.148	0.0658
404.472	0.0652
404.796	0.0645
405.119	0.065
405.443	0.0637
405.767	0.063
406.09	0.0633
406.414	0.0623
406.737	0.0622
407.061	0.0623
407.384	0.0616
407.707	0.0619
408.03	0.0601
408.353	0.0607
408.676	0.0606
408.999	0.0603
409.322	0.0609
409.645	0.0601
409.968	0.0592
410.29	0.0592
410.613	0.0589
410.935	0.0595
411.258	0.0597
411.58	0.0589
411.902	0.0587
412.224	0.0589
412.546	0.059
412.868	0.0584
413.19	0.0582
413.512	0.0584
413.834	0.0581
414.156	0.0579
414.477	0.0578
414.799	0.0581
415.121	0.058
415.442	0.0584
415.763	0.0586
416.085	0.0585
416.406	0.0579
416.727	0.058
417.048	0.0582
417.369	0.0578
417.69	0.0588
418.011	0.0581
418.331	0.0586
418.652	0.0591
418.973	0.059
419.293	0.0584
419.614	0.0593
419.934	0.0593
420.254	0.059
420.574	0.0593
420.895	0.0587
421.215	0.0589
421.535	0.0588
421.855	0.0587
422.174	0.0587
422.494	0.0591
422.814	0.0592
423.134	0.0587
423.453	0.06
423.773	0.0597
424.092	0.0602
424.411	0.0599
424.731	0.0599
425.05	0.0601
425.369	0.0601
425.688	0.0603
426.007	0.0605
426.326	0.0607
426.644	0.0606
426.963	0.0612
427.282	0.0604
427.6	0.0605
427.919	0.0609
428.237	0.0615
428.556	0.0614
428.874	0.0604
429.192	0.0617
429.51	0.0611
429.828	0.0616
430.146	0.0612
430.464	0.0614
430.782	0.0618
431.1	0.0615
431.418	0.0614
431.735	0.0619
432.053	0.0621
432.37	0.0623
432.688	0.0613
433.005	0.0627
433.322	0.0626
433.639	0.0627
433.957	0.0629
434.274	0.0625
434.591	0.0629
434.907	0.0625
435.224	0.063
435.541	0.0634
435.858	0.0644
436.174	0.0638
436.491	0.0634
436.807	0.0626
437.124	0.0637
437.44	0.0625
437.756	0.063
438.072	0.0629
438.388	0.0628
438.704	0.0627
439.02	0.0629
439.336	0.0635
439.652	0.0633
439.968	0.0629
440.283	0.063
440.599	0.0631
440.914	0.0629
441.23	0.0625
441.545	0.0627
441.86	0.0624
442.175	0.0625
442.491	0.0624
442.806	0.0627
443.121	0.0631
443.435	0.0629
443.75	0.0625
444.065	0.0629
444.38	0.0627
444.694	0.0626
445.009	0.0622
445.323	0.0625
445.638	0.0617
445.952	0.0619
446.266	0.0618
446.58	0.0619
446.894	0.0618
447.208	0.0623
447.522	0.0611
447.836	0.0606
448.15	0.0611
448.464	0.0601
448.777	0.0606
449.091	0.0603
449.404	0.0608
449.718	0.0601
450.031	0.0611
450.345	0.0603
450.658	0.0604
450.971	0.0607
451.284	0.0606
451.597	0.0608
451.91	0.06
452.223	0.0598
452.535	0.0604
452.848	0.0602
453.161	0.0602
453.473	0.0598
453.786	0.0603
454.098	0.0591
454.411	0.0601
454.723	0.059
455.035	0.0588
455.347	0.0584
455.659	0.0581
455.971	0.0571
456.283	0.0578
456.595	0.057
456.907	0.0575
457.218	0.0575
457.53	0.0574
457.841	0.0563
458.153	0.057
458.464	0.0561
458.776	0.0567
459.087	0.0557
459.398	0.0549
459.709	0.055
460.02	0.0552
460.331	0.0551
460.642	0.0548
460.953	0.0551
461.263	0.0543
461.574	0.0542
461.885	0.0543
462.195	0.0541
462.506	0.0545
462.816	0.054
463.126	0.0537
463.437	0.053
463.747	0.0529
464.057	0.0528
464.367	0.0524
464.677	0.0525
464.987	0.0518
465.296	0.0518
465.606	0.051
465.916	0.051
466.225	0.0507
466.535	0.0503
466.844	0.0502
467.154	0.05
467.463	0.0491
467.772	0.0484
468.081	0.0498
468.39	0.0486
468.699	0.0484
469.008	0.0488
469.317	0.0485
469.626	0.0484
469.935	0.0475
470.243	0.0472
470.552	0.0467
470.86	0.0461
471.169	0.0454
471.477	0.0457
471.785	0.0461
472.093	0.0455
472.402	0.0448
472.71	0.0447
473.018	0.0446
473.326	0.0448
473.633	0.0437
473.941	0.0433
474.249	0.0437
474.556	0.0427
474.864	0.0424
475.171	0.0423
475.479	0.0423
475.786	0.042
476.094	0.0417
476.401	0.0416
476.708	0.0409
477.015	0.0407
477.322	0.0401
477.629	0.0402
477.936	0.0401
478.242	0.0404
478.549	0.0397
478.856	0.0397
479.162	0.0388
479.469	0.0384
479.775	0.0377
480.081	0.0374
480.388	0.0378
480.694	0.0384
481	0.0373
481.306	0.0377
481.612	0.0372
481.918	0.0372
482.224	0.0375
482.53	0.0359
482.835	0.0351
483.141	0.0346
483.446	0.0358
483.752	0.0347
484.057	0.0342
484.363	0.0341
484.668	0.0336
484.973	0.0336
485.278	0.0332
485.583	0.0327
485.888	0.0319
486.193	0.0322
486.498	0.032
486.803	0.0318
487.107	0.0309
487.412	0.0302
487.717	0.0295
488.021	0.0301
488.325	0.0294
488.63	0.0301
488.934	0.0293
489.238	0.0292
489.542	0.0293
489.846	0.029
490.15	0.0271
490.454	0.0276
490.758	0.0274
491.062	0.0273
491.366	0.0271
491.669	0.0261
491.973	0.0272
492.276	0.0262
492.58	0.0267
492.883	0.0255
493.186	0.0254
493.489	0.0254
493.792	0.0246
494.096	0.0242
494.399	0.0247
494.701	0.0245
495.004	0.0247
495.307	0.0244
495.61	0.0244
495.912	0.0231
496.215	0.0238
496.517	0.0225
496.82	0.0228
497.122	0.023
497.424	0.0222
497.727	0.0211
498.029	0.0214
498.331	0.021
498.633	0.0216
498.935	0.0207
499.237	0.0212
499.538	0.021
499.84	0.0215
500.142	0.0201
500.443	0.0199
500.745	0.0197
501.046	0.0204
501.348	0.0195
501.649	0.0193
501.95	0.0199
502.251	0.0191
502.552	0.0183
502.853	0.0185
503.154	0.0185
503.455	0.0188
503.756	0.0172
504.057	0.0174
504.357	0.0177
504.658	0.0176
504.958	0.0171
505.259	0.0164
505.559	0.0167
505.859	0.0162
506.16	0.0164
506.46	0.0143
506.76	0.0164
507.06	0.0154
507.36	0.016
507.66	0.0159
507.96	0.0144
508.259	0.0139
508.559	0.0148
508.859	0.0143
509.158	0.0137
509.457	0.0145
509.757	0.013
510.056	0.0131
510.355	0.0139
510.655	0.0133
510.954	0.0135
511.253	0.0131
511.552	0.0122
511.851	0.0118
512.149	0.0118
512.448	0.0126
512.747	0.0114
513.045	0.0104
513.344	0.0117
513.642	0.012
513.941	0.0113
514.239	0.0112
514.537	0.0127
514.836	0.0122
515.134	0.0107
515.432	0.0114
515.73	0.0116
516.028	0.0099
516.326	0.0118
516.623	0.0102
516.921	0.0108
517.219	0.0112
517.516	0.0117
517.814	0.011
518.111	0.0094
518.409	0.0095
518.706	0.0101
519.003	0.0085
519.3	0.0098
519.597	0.0098
519.894	0.0095
520.191	0.0098
520.488	0.0089
520.785	0.0093
521.082	0.0091
521.378	0.009
521.675	0.0087
521.971	0.0091
522.268	0.0085
522.564	0.0071
522.861	0.0075
523.157	0.0071
523.453	0.0086
523.749	0.0076
524.045	0.0056
524.341	0.008
524.637	0.0076
524.933	0.0083
525.229	0.0078
525.524	0.0062
525.82	0.0063
526.115	0.0059
526.411	0.0063
526.706	0.0053
527.002	0.0063
527.297	0.0056
527.592	0.0061
527.887	0.005
528.182	0.005
528.477	0.0064
528.772	0.0045
529.067	0.0049
529.362	0.005
529.657	0.0051
529.951	0.0055
530.246	0.0054
530.54	0.0062
530.835	0.0051
531.129	0.0061
531.423	0.0042
531.718	0.0051
532.012	0.0048
532.306	0.0054
532.6	0.0052
532.894	0.0051
533.188	0.0039
533.482	0.0058
533.775	0.0051
534.069	0.0044
534.363	0.0041
534.656	0.0039
534.95	0.0038
535.243	0.0035
535.536	0.0047
535.83	0.0034
536.123	0.0045
536.416	0.0035
536.709	0.0034
537.002	0.0026
537.295	0.0031
537.588	0.0038
537.881	0.0044
538.173	0.0033
538.466	0.0025
538.759	0.0025
539.051	0.0029
539.344	0.0038
539.636	0.003
539.928	0.0029
540.22	0.0039
540.513	0.0037
540.805	0.0028
541.097	0.0022
541.389	0.0023
541.681	0.0044
541.972	0.002
542.264	0.0039
542.556	0.0035
542.847	0.0022
543.139	0.002
543.431	0.0032
543.722	0.0036
544.013	0.0022
544.305	0.0027
544.596	0.0018
544.887	0.0022
545.178	0.0025
545.469	0.002
545.76	0.0028
546.051	0.0033
546.342	0.0029
546.632	0.0035
546.923	0.0019
547.214	0.0019
547.504	0.002
547.795	0.0018
548.085	0.0028
548.375	0.0022
548.666	0.0025
548.956	0.0037
549.246	0.0028
549.536	0.003
549.826	0.0032
550.116	0.003
550.406	0.0035
550.695	0.0028
550.985	0.0025
551.275	0.0019
551.564	0.0017
551.854	0.0024
552.143	0.0025
552.433	0.0026
552.722	0.0019
553.011	0.0022
553.3	0.0029
553.589	0.0022
553.879	0.0001
554.167	0.0017
554.456	0.0024
554.745	0.0024
555.034	0.002
555.323	0.0013
555.611	0.0014
555.9	0.0021
556.188	0.0013
556.477	0.0027
556.765	0.0025
557.053	0.0022
557.342	0.0025
557.63	0.0014
557.918	0.003
558.206	0.0025
558.494	0.0036
558.782	0.0031
559.069	0.0031
559.357	0.0028
559.645	0.0039
559.932	0.003
560.22	0.0031
560.507	0.0021
560.795	0.0034
561.082	0.002
561.37	0.002
561.657	0.0026
561.944	0.0021
562.231	0.0018
562.518	0.0019
562.805	0.0007
563.092	0.002
563.379	0.002
563.665	0.002
563.952	0.0025
564.239	0.0029
564.525	0.0023
564.811	0.0025
565.098	0.0021
565.384	0.0019
565.67	0.0032
565.957	0.0029
566.243	0.0027
566.529	0.0037
566.815	0.0013
567.101	0.0019
567.387	0.0016
567.672	0.0014
567.958	0.0018
568.244	0.0023
568.529	0.0025
568.815	0.002
569.1	0.0015
569.386	0.0033
569.671	0.0039
569.956	0.0035
570.242	0.0029
570.527	0.0034
570.812	0.0026
571.097	0.0025
571.382	0.0032
571.666	0.0031
571.951	0.002
572.236	0.0035
572.521	0.0028
572.805	0.0028
573.09	0.0017
573.374	0.002
573.659	0.0028
573.943	0.0037
574.227	0.0037
574.511	0.0028
574.795	0.0024
575.079	0.0032
575.363	0.0018
575.647	0.002
575.931	0.002
576.215	0.0014
576.499	0.0008
576.782	0.0023
577.066	0.0018
577.349	0.002
577.633	0.002
577.916	0.0018
578.2	0.0025
578.483	0.0028
578.766	0.0027
579.049	0.0031
579.332	0.0023
579.615	0.0021
579.898	0.0022
580.181	0.0022
580.464	0.0019
580.746	0.0019
581.029	0.0027
581.312	0.0017
581.594	0.0015
581.877	0.0024
582.159	0.0019
582.441	0.0023
582.724	0.0024
583.006	0.0025
583.288	0.0015
583.57	0.0028
583.852	0.0017
584.134	0.0018
584.416	0.0022
584.697	0.0017
584.979	0.0017
585.261	0.0016
585.542	0.0024
585.824	0.0015
586.105	0.0024
586.387	0.0021
586.668	0.0013
586.949	0.0021
587.231	0.0021
587.512	0.0016
587.793	0.002
588.074	0.0024
588.355	0.0013
588.636	0.0019
588.916	0.0024
589.197	0.0025
589.478	0.0017
589.758	0.0028
590.039	0.0024
590.319	0.0023
590.6	0.0021
590.88	0.0017
591.16	0.0016
591.441	0.0016
591.721	0.0022
592.001	0.002
592.281	0.0026
592.561	0.0017
592.841	0.0017
593.12	0.0021
593.4	0.0013
593.68	0.0009
593.959	0.0015
594.239	0.0018
594.518	0.0026
594.798	0.0019
595.077	0.0021
595.356	0.0022
595.636	0.0019
595.915	0.0026
596.194	0.0024
596.473	0.0026
596.752	0.0018
597.031	0.0012
597.31	0.0012
597.588	0.0022
597.867	0.0014
598.146	0.0021
598.424	0.0025
598.703	0.0008
598.981	0.0012
599.259	0.0016
599.538	0.0015
599.816	0.0022
600.094	0.0011
600.372	0.0019
600.65	0.0013
600.928	0.0012
601.206	-0.0002
601.484	0.0014
601.762	0.0007
602.04	-0.0002
602.317	0.0012
602.595	0.0019
602.872	0.0013
603.15	0.0013
603.427	0.0013
603.704	0.0025
603.982	0.0027
604.259	0.0016
604.536	0.0022
604.813	0.0016
605.09	0.001
605.367	0.0012
605.644	0.001
605.921	0.0002
606.197	-0.0005
606.474	0.0012
606.751	0.0005
607.027	0.001
607.304	0.0013
607.58	0.0018
607.856	0.0012
608.133	0.002
608.409	0.0009
608.685	0.001
608.961	0.0007
609.237	0.0006
609.513	0.0012
609.789	0.0014
610.065	0.0004
610.341	0.0012
610.616	0.0013
610.892	0.0012
611.167	0.0018
611.443	0.0025
611.718	0.0025
611.994	0.002
612.269	0.002
612.544	0.002
612.819	0.0018
613.095	0.0018
613.37	0.0025
613.645	0.0023
613.919	0.0024
614.194	0.0024
614.469	0.0026
614.744	0.0015
615.019	0.0021
615.293	0.0013
615.568	0.0012
615.842	0.0009
616.116	0.0011
616.391	0.0001
616.665	0.0007
616.939	0.001
617.213	0.0024
617.488	0.0016
617.762	0.0007
618.035	0.001
618.309	0.0003
618.583	0.0019
618.857	0.0012
619.131	0.0001
619.404	0.0007
619.678	0.0007
619.951	0.0007
620.225	0.0009
620.498	0.0014
620.771	0.0004
621.045	0.0009
621.318	0.0022
621.591	0.0013
621.864	0.0019
622.137	0.0024
622.41	0.0023
622.683	0.0024
622.956	0.002
623.228	0.0015
623.501	0.0014
623.774	0.0005
624.046	0.0011
624.319	0.0015
624.591	0.0008
624.863	0.0016
625.136	0.0002
625.408	0.0013
625.68	0.0001
625.952	0.0006
626.224	-0.0005
626.496	-0.0001
626.768	0.0001
627.04	-0.0002
627.311	-0.0009
627.583	-0
627.855	0.0008
628.126	0.0006
628.398	-0.0006
628.669	-0.0012
628.941	-0.0002
629.212	-0.0003
629.483	0.001
629.755	0.0004
630.026	0.001
630.297	-0.0004
630.568	-0.0005
630.839	0.001
631.11	-0.0004
631.38	-0.0004
631.651	-0.0005
631.922	-0.0004
632.192	-0.0004
632.463	0.0005
632.733	0.0014
633.004	0.001
633.274	0.0005
633.545	0.0026
633.815	0.0022
634.085	0.0009
634.355	0.0017
634.625	0.0016
634.895	0.0029
635.165	0.0023
635.435	0.0023
635.705	0.0009
635.974	0.0005
636.244	0.0006
636.514	0.0019
636.783	0.0015
637.053	0.0021
637.322	0.0017
637.591	0.001
637.861	-0.0001
638.13	0.0011
638.399	0.0019
638.668	0.0011
638.937	0.001
639.206	0.0025
639.475	0.0015
639.744	0.0014
640.013	0.0025
640.281	0.0028
640.55	0.0003
640.819	0.0024
641.087	0.0025
641.356	0.0023
641.624	0.0022
641.892	0.0016
642.161	0.0014
642.429	0.0022
642.697	0.0022
642.965	0.0027
643.233	0.0014
643.501	0.0019
643.769	0.0011
644.037	0.0019
644.305	0.0013
644.572	0.0011
644.84	-0.0003
645.108	-0.0006
645.375	-0.0013
645.643	-0.0019
645.91	-0.0008
646.177	-0.0014
646.445	-0.0018
646.712	-0.0017
646.979	-0.0011
647.246	-0.0002
647.513	0.0003
647.78	0.0015
648.047	0.0027
648.314	0.0019
648.58	0.0018
648.847	0.0009
649.114	0.0007
649.38	0.0004
649.647	0.0003
649.913	-0.0004
650.18	-0.0009
650.446	-0.0013
650.712	-0.0008
650.978	-0.001
651.245	-0.0011
651.511	-0.0003
651.777	0.0005
652.043	0.0003
652.309	0.0005
652.574	-0.0004
652.84	-0.0012
653.106	-0.0004
653.371	-0.0012
653.637	-0.0019
653.903	0
654.168	-0.0009
654.433	-0.0002
654.699	0.0008
654.964	0.0018
655.229	0.0017
655.494	0.0011
655.759	-0.0018
656.024	0.0009
656.289	-0
656.554	0.0029
656.819	0.0017
657.084	0.0019
657.349	0.0001
657.613	0.0003
657.878	0.0005
658.142	-0.0003
658.407	0.0006
658.671	0.0005
658.936	0.0018
659.2	0.0015
659.464	0.0016
659.728	0.001
659.992	0.0002
660.256	0.0006
660.52	-0.0001
660.784	0.001
661.048	0.0007
661.312	0
661.575	0.0004
661.839	-0.0005
662.103	-0.0004
662.366	-0.0004
662.63	0.0011
662.893	0.0016
663.156	0.0008
663.42	0.0017
663.683	0.0011
663.946	0.0015
664.209	0.0022
664.472	0.0023
664.735	0.0027
664.998	0.0024
665.261	0.0015
665.524	0.0007
665.786	0.0005
666.049	0.0026
666.312	0.0022
666.574	0.0029
666.837	0.0023
667.099	0.0017
667.361	0.0015
667.624	0.0003
667.886	-0.0001
668.148	0.0007
668.41	0.0009
668.672	0.0002
668.934	0.0017
669.196	0.0006
669.458	0.0011
669.72	0.0016
669.982	0.0015
670.243	0.001
670.505	0.0014
670.766	0.0002
671.028	0.0009
671.289	-0.0003
671.551	-0.0006
671.812	-0.0002
672.073	0.0008
672.334	0.0004
672.596	0.0019
672.857	0.0018
673.118	0.002
673.379	0.0028
673.639	0.0026
673.9	0.0013
674.161	0.0014
674.422	0.0013
674.682	0.0014
674.943	0.0014
675.203	0.0025
675.464	0.0019
675.724	0.0012
675.985	0.0012
676.245	0.002
676.505	0.0003
676.765	0.0008
677.025	0.0011
677.285	0.001
677.545	0.0007
677.805	-0.0004
678.065	0.0007
678.325	0.0023
678.585	0.0015
678.844	0.0017
679.104	0.0031
679.363	0.001
679.623	0.0021
679.882	0.0017
680.142	0.002
680.401	0.0025
680.66	0.0017
680.919	0.0011
681.178	0.0011
681.437	0.002
681.696	0.0012
681.955	0.0021
682.214	0.0017
682.473	0.0019
682.732	0.0025
682.99	0
683.249	0.0001
683.508	0.001
683.766	0.0016
684.024	0.0018
684.283	0.0016
684.541	0.0011
684.799	0.0016
685.058	0.0018
685.316	0.0015
685.574	0.0019
685.832	0.001
686.09	0.0001
686.348	-0.0001
686.606	-0.0003
686.863	0.0002
687.121	-0.0015
687.379	-0.0013
687.636	-0.0012
687.894	0.0002
688.151	0.0004
688.409	-0.0001
688.666	0.0005
688.923	0.0005
689.181	0.0015
689.438	0.0016
689.695	0.0026
689.952	0.0031
690.209	0.0031
690.466	0.0027
690.723	0.0022
690.979	0.0013
691.236	0.001
691.493	0.0005
691.75	-0
692.006	0.0003
692.263	-0.0005
692.519	-0.0002
692.775	-0.0004
693.032	-0.0005
693.288	-0.0012
693.544	-0.0006
693.8	0.0001
694.056	-0.0002
694.313	-0.0001
694.568	0.0008
694.824	0
695.08	0
695.336	-0.0005
695.592	-0.0008
695.847	-0.0009
696.103	-0.002
696.359	-0.0006
696.614	0.0006
696.869	-0
697.125	-0.0002
697.38	0.0004
697.635	0.0004
697.891	-0.0001
698.146	-0.0011
698.401	-0.0011
698.656	-0.0016
698.911	-0.0007
699.166	-0.0021
699.42	-0.0018
699.675	-0.0019
699.93	-0.001
700.185	-0.0006
700.439	0.0001
700.694	0.0012
700.948	0.0004
701.203	0.0001
701.457	0.0001
701.711	-0.0004
701.965	0.0002
702.22	0.0006
702.474	0.0015
702.728	0.0012
702.982	0.0028
703.236	0.0016
703.49	0.0017
703.743	0.0004
703.997	-0.0006
704.251	0
704.504	-0.0006
704.758	0
705.012	-0.0006
705.265	-0.0001
705.518	-0.0002
705.772	0.0003
706.025	0.0003
706.278	0.0002
706.531	-0.0007
706.785	-0.0007
707.038	-0.0003
707.291	-0.0007
707.543	-0.001
707.796	0.0005
708.049	0
708.302	0.0008
708.555	0.0013
708.807	0.0021
709.06	0.0012
709.312	0.0014
709.565	0.0006
709.817	-0.0005
710.069	0.0001
710.322	-0.0001
710.574	0.0004
710.826	0.0002
711.078	0.0018
711.33	0.0026
711.582	0.0029
711.834	0.0016
712.086	0.0008
712.338	-0.0004
712.59	-0.0011
712.841	-0.0021
713.093	-0.0014
713.344	-0.0031
713.596	-0.0019
713.847	-0.0016
714.099	-0.0004
714.35	-0.0021
714.601	-0.0016
714.853	-0.0024
715.104	-0.0022
715.355	-0.0019
715.606	-0.0008
715.857	-0.0017
716.108	-0.0017
716.359	-0.0018
716.609	-0.0026
716.86	-0.0029
717.111	-0.0019
717.361	-0.0029
717.612	-0.0034
717.863	-0.0035
718.113	-0.0036
718.363	-0.005
718.614	-0.0031
718.864	-0.0021
719.114	-0.0026
719.364	-0.0021
719.614	-0.003
719.865	-0.0032
720.114	-0.0041
720.364	-0.004
720.614	-0.0025
720.864	-0.003
721.114	-0.001
721.364	-0.0013
721.613	-0.0009
721.863	-0.0002
722.112	-0.0005
722.362	-0.001
722.611	-0.0014
722.86	-0.0011
723.11	-0.0031
723.359	-0.0027
723.608	-0.0022
723.857	-0.0029
724.106	-0.0017
724.355	-0.001
724.604	-0.0012
724.853	-0.0014
725.102	-0.0019
725.351	-0.0011
725.599	-0.0006
725.848	0.0001
726.097	0.0009
726.345	0.0018
726.594	0.0022
726.842	0.0014
727.09	0.0002
727.339	-0.0015
727.587	-0.0006
727.835	-0.0021
728.083	-0.0023
728.331	-0.0038
728.579	-0.0018
728.827	-0.0006
729.075	-0.0004
729.323	0.0007
729.571	0.0017
729.818	0.0009
730.066	0.0013
730.314	0.0009
730.561	0.0001
730.809	-0.0021
731.056	-0.0017
731.303	0.0004
731.551	-0.0006
731.798	-0.002
732.045	-0.001
732.292	0.0002
732.539	-0.0008
732.786	-0.0004
733.033	-0.001
733.28	-0.0004
733.527	-0.0002
733.774	-0.0014
734.021	-0.0002
734.267	0.0003
734.514	-0
734.76	0.0011
735.007	-0.0001
735.253	-0.0007
735.5	-0.0001
735.746	-0.0006
735.992	-0.0006
736.238	-0.0011
736.485	-0.0017
736.731	-0.0031
736.977	-0.0029
737.223	-0.0014
737.469	-0.002
737.715	-0.001
737.96	0.0003
738.206	0.0009
738.452	0.0021
738.697	0.0027
738.943	0.0022
739.189	0.0013
739.434	0.0018
739.679	0.0012
739.925	0.0015
740.17	0.0011
740.415	0.001
740.66	0.0021
740.906	0.0023
741.151	0.0021
741.396	0.0015
741.641	0.0016
741.886	0.0006
742.13	-0.0002
742.375	0.0004
742.62	-0.001
742.865	-0.0005
743.109	-0.0006
743.354	-0.0024
743.598	-0.0021
743.843	-0.0017
744.087	-0.0007
744.331	-0.001
744.576	-0.0003
744.82	-0.0021
745.064	-0.0021
745.308	-0.0016
745.552	-0.0012
745.796	-0.0005
746.04	-0.0003
746.284	-0.0004
746.528	-0.0015
746.771	-0.0018
747.015	-0.0015
747.259	-0.0018
747.502	-0.0004
747.746	-0.0006
747.989	-0.0008
748.233	-0.0018
748.476	-0.0009
748.719	-0.0019
748.963	-0.0021
749.206	-0.001
749.449	-0.0014
749.692	0.0002
749.935	0.0008
750.178	-0
750.421	-0.0016
750.664	-0.0034
750.906	-0.0042
751.149	-0.0036
751.392	-0.0034
751.635	-0.0026
751.877	-0.0017
752.12	-0.0023
752.362	-0.0032
752.604	-0.0034
752.847	-0.0023
753.089	-0.0018
753.331	-0.0026
753.573	-0.0025
753.816	-0.0015
754.058	-0.0015
754.3	-0.0012
754.542	-0.0002
754.783	-0.0017
755.025	-0.0013
755.267	-0.0035
755.509	-0.0032
755.75	-0.0029
755.992	-0.0032
756.234	-0.0022
756.475	-0.0017
756.716	-0.0007
756.958	-0.0005
757.199	0.0003
757.44	-0.0018
757.682	-0.0026
757.923	-0.0017
758.164	-0.0019
758.405	-0.0019
758.646	-0.0011
758.887	-0.0007
759.128	-0.0018
759.369	-0.0034
759.609	-0.003
759.85	-0.003
760.091	-0.0021
760.331	-0.0025
760.572	-0.0023
760.812	-0.0018
761.053	-0.0009
761.293	-0.0004
761.533	-0.0014
761.774	0.0005
762.014	-0.0002
762.254	0.0004
762.494	-0.0004
762.734	-0.0007
762.974	-0.0008
763.214	-0.0008
763.454	-0.0011
763.694	-0.0014
763.933	0.0003
764.173	0.0004
764.413	0.0008
764.652	-0.0004
764.892	-0.0007
765.131	-0.0015
765.371	-0.0013
765.61	-0.0016
765.849	-0.0029
766.089	-0.0022
766.328	-0.0026
766.567	-0.0017
766.806	-0.0026
767.045	-0.0002
767.284	-0.0008
767.523	-0.0002
767.762	-0.002
768.001	-0.0017
768.239	-0.0022
768.478	-0.0013
768.717	-0.0013
768.955	-0.0016
769.194	-0.0011
769.432	-0.0013
769.671	-0.0006
769.909	0.0007
770.148	-0.0004
770.386	0.0003
770.624	-0.0002
770.862	0.0003
771.1	0.0017
771.338	0.0003
771.576	0.0015
771.814	0.0007
772.052	-0.0003
772.29	-0.0007
772.528	-0.0011
772.765	0.0007
773.003	0.0003
773.24	0.0004
773.478	0.001
773.716	0.0014
773.953	0.0019
774.19	0.0025
774.428	0.0026
774.665	0.0043
774.902	0.0033
775.139	0.004
775.376	0.0027
775.613	0.0037
775.85	0.0037
776.087	0.005
776.324	0.0046
776.561	0.004
776.798	0.0053
777.034	0.0059
777.271	0.0041
777.508	0.0043
777.744	0.0034
777.981	0.0031
778.217	0.0035
778.454	0.003
778.69	0.0018
778.926	0.0007
779.162	-0.0001
779.399	-0.0009
779.635	-0.0018
779.871	-0.0016
780.107	-0.0006
780.343	-0.001
780.579	-0.0001
780.814	-0.0007
781.05	-0.0009
781.286	-0.0013
781.522	-0.0001
781.757	0.0008
781.993	0.0014
782.228	0.002
782.464	0.0014
782.699	0.0017
782.934	0.001
783.17	0.0011
783.405	0.0013
783.64	0.0003
783.875	0.0004
784.11	0.0025
784.345	0.0025
784.58	0.0029
784.815	0.0046
785.05	0.0035
785.285	0.0034
785.52	0.0036
785.754	0.0032
785.989	0.0024
786.223	0.0031
786.458	0.0035
786.692	0.0036
786.927	0.0046
787.161	0.0038
787.396	0.0049
787.63	0.0055
787.864	0.0043
788.098	0.0038
788.332	0.0029
788.566	0.0018
788.8	0.002
789.034	0.0026
789.268	0.0026
789.502	0.0037
789.736	0.0029
789.969	0.0044
790.203	0.0028
790.437	0.0016
790.67	0.0014
790.904	0.0011
791.137	0.0005
791.37	0.0005
791.604	0.0002
791.837	-0.001
792.07	-0.0004
792.303	-0.0011
792.537	-0.0017
792.77	-0.0022
793.003	-0.0016
793.236	-0.0007
793.469	0.0009
793.701	0.0011
793.934	0.0005
794.167	-0
794.4	0.0005
794.632	0.0008
794.865	0.0001
795.097	0.0007
795.33	-0.0005
795.562	0.0004
795.795	0.0007
796.027	-0.0007
796.259	-0
796.491	-0.0015
796.724	-0.0012
796.956	-0
797.188	-0.0003
797.42	-0.0004
797.652	0.0001
797.883	0.0007
798.115	-0.0002
798.347	-0
798.579	-0.0018
798.81	-0.0017
799.042	-0.0009
799.274	-0.0007
799.505	-0.0004
799.737	0.0009
799.968	0.0014
800.199	0.0011
800.431	0.0016
800.662	0.0024
800.893	0.0021
801.124	0.0023
801.355	0.0027
801.586	0.0044
801.817	0.0019
802.048	0.0016
802.279	0.001
802.51	-0.0009
802.741	0.0012
802.971	0.0009
803.202	0.0002
803.433	-0.0007
803.663	0.0001
803.894	0.0001
804.124	0.0009
804.354	-0.0005
804.585	0
804.815	0.0004
805.045	-0.0007
805.275	-0.0001
805.506	-0.0788
805.736	0.127
805.966	0.4001
806.196	0.2344
