Data from 03 0.5 mM K2Cr2O7 0.2 mM BQDS 1 M H2SO4 5 min_Absorbance_0047.txt Node
Date: Thu Dec 09 19:41:44 EST 2021
User: kwabilab-user
Spectrometer: HDX00518
Trigger mode: 0
Integration Time (sec): 5.000000E-2
Scans to average: 50
Nonlinearity correction enabled: false
Boxcar width: 0
Storing dark spectrum: false
XAxis mode: Wavelengths
Number of Pixels in Spectrum: 2068
>>>>>Begin Spectral Data<<<<<
195.27	0.3876
195.642	0.1021
196.014	0.0588
196.386	0.1985
196.758	0.043
197.129	0.0148
197.501	0.0687
197.872	0.1115
198.244	0.1224
198.615	0.1266
198.986	0.1321
199.357	0.1066
199.728	0.1316
200.099	0.1322
200.47	0.1462
200.841	0.1309
201.212	0.1383
201.582	0.1308
201.953	0.1187
202.323	0.1365
202.694	0.1306
203.064	0.1314
203.434	0.1429
203.804	0.1309
204.174	0.1372
204.544	0.1314
204.914	0.1449
205.284	0.1395
205.653	0.1396
206.023	0.1338
206.393	0.1471
206.762	0.1427
207.131	0.1348
207.501	0.1366
207.87	0.1459
208.239	0.1183
208.608	0.1818
208.977	0.1449
209.346	0.1585
209.715	0.1679
210.083	0.1604
210.452	0.1595
210.82	0.1523
211.189	0.1672
211.557	0.1603
211.925	0.176
212.294	0.1696
212.662	0.167
213.03	0.2058
213.398	0.1877
213.766	0.1892
214.133	0.1841
214.501	0.1983
214.869	0.2193
215.236	0.1903
215.604	0.2062
215.971	0.2398
216.338	0.2615
216.705	0.2622
217.072	0.2821
217.439	0.2938
217.806	0.3209
218.173	0.3513
218.54	0.3712
218.907	0.384
219.273	0.4187
219.64	0.4569
220.006	0.4808
220.373	0.5097
220.739	0.5305
221.105	0.591
221.471	0.6046
221.837	0.6549
222.203	0.7177
222.569	0.7408
222.935	0.7703
223.3	0.8013
223.666	0.8405
224.031	0.8769
224.397	0.8905
224.762	0.9006
225.127	0.9437
225.493	0.996
225.858	1.0045
226.223	1.0137
226.588	1.0375
226.952	1.0584
227.317	1.0768
227.682	1.0703
228.046	1.0798
228.411	1.1006
228.775	1.0991
229.14	1.104
229.504	1.1032
229.868	1.1056
230.232	1.0995
230.596	1.0992
230.96	1.1056
231.324	1.0924
231.688	1.0828
232.052	1.0855
232.415	1.083
232.779	1.08
233.142	1.0755
233.505	1.0617
233.869	1.0612
234.232	1.0535
234.595	1.0419
234.958	1.0282
235.321	1.0182
235.684	1.0181
236.047	1.0093
236.409	0.9969
236.772	0.99
237.134	0.9887
237.497	0.971
237.859	0.9708
238.222	0.9596
238.584	0.9536
238.946	0.9409
239.308	0.9386
239.67	0.9298
240.032	0.9205
240.393	0.9156
240.755	0.9135
241.117	0.907
241.478	0.8978
241.84	0.8949
242.201	0.8855
242.562	0.8796
242.924	0.8742
243.285	0.8747
243.646	0.8671
244.007	0.8619
244.368	0.8597
244.728	0.8512
245.089	0.8485
245.45	0.8461
245.81	0.845
246.171	0.842
246.531	0.8386
246.891	0.8305
247.252	0.8282
247.612	0.8269
247.972	0.8219
248.332	0.8224
248.692	0.821
249.051	0.82
249.411	0.8184
249.771	0.8136
250.13	0.8142
250.49	0.8111
250.849	0.8122
251.208	0.8086
251.568	0.8017
251.927	0.8046
252.286	0.8049
252.645	0.8072
253.004	0.8023
253.363	0.8019
253.721	0.8037
254.08	0.8015
254.439	0.7979
254.797	0.7993
255.155	0.7978
255.514	0.7972
255.872	0.8005
256.23	0.7967
256.588	0.7978
256.946	0.7968
257.304	0.7934
257.662	0.7958
258.02	0.7958
258.377	0.7921
258.735	0.7946
259.093	0.7904
259.45	0.7902
259.807	0.789
260.165	0.7877
260.522	0.7894
260.879	0.7865
261.236	0.7873
261.593	0.7852
261.95	0.7835
262.306	0.783
262.663	0.7804
263.02	0.7795
263.376	0.777
263.733	0.7761
264.089	0.7743
264.445	0.7711
264.802	0.7728
265.158	0.772
265.514	0.7672
265.87	0.7674
266.226	0.7643
266.581	0.7615
266.937	0.7632
267.293	0.7561
267.648	0.7568
268.004	0.7542
268.359	0.7515
268.714	0.7484
269.07	0.7438
269.425	0.7428
269.78	0.7415
270.135	0.7376
270.49	0.7348
270.844	0.7315
271.199	0.7306
271.554	0.7265
271.908	0.7243
272.263	0.7212
272.617	0.7166
272.972	0.7129
273.326	0.7085
273.68	0.7062
274.034	0.7027
274.388	0.6988
274.742	0.6961
275.096	0.6915
275.45	0.6877
275.803	0.6825
276.157	0.679
276.51	0.6756
276.864	0.6702
277.217	0.6632
277.571	0.6609
277.924	0.6544
278.277	0.6541
278.63	0.6467
278.983	0.6422
279.336	0.6378
279.688	0.6324
280.041	0.6279
280.394	0.6232
280.746	0.6167
281.099	0.6134
281.451	0.6054
281.803	0.5999
282.156	0.5946
282.508	0.5898
282.86	0.5864
283.212	0.5795
283.564	0.5734
283.916	0.5686
284.267	0.5634
284.619	0.5573
284.971	0.5516
285.322	0.5452
285.673	0.541
286.025	0.5352
286.376	0.5286
286.727	0.5237
287.078	0.5152
287.429	0.5102
287.78	0.5056
288.131	0.4995
288.482	0.4932
288.833	0.4864
289.183	0.4807
289.534	0.4757
289.884	0.4699
290.235	0.4617
290.585	0.4559
290.935	0.4513
291.285	0.444
291.635	0.4384
291.985	0.4332
292.335	0.4273
292.685	0.4202
293.035	0.4143
293.384	0.4089
293.734	0.4012
294.083	0.3969
294.433	0.3917
294.782	0.3849
295.131	0.3795
295.48	0.3736
295.829	0.3676
296.179	0.3623
296.527	0.3562
296.876	0.3499
297.225	0.3451
297.574	0.3401
297.922	0.3338
298.271	0.33
298.619	0.3235
298.968	0.319
299.316	0.3136
299.664	0.3081
300.012	0.3038
300.36	0.2991
300.708	0.2952
301.056	0.29
301.404	0.2853
301.752	0.2815
302.099	0.2778
302.447	0.2727
302.794	0.2689
303.142	0.265
303.489	0.2609
303.836	0.258
304.183	0.2542
304.531	0.251
304.878	0.2477
305.224	0.2441
305.571	0.2419
305.918	0.2379
306.265	0.2353
306.611	0.2333
306.958	0.23
307.304	0.2278
307.651	0.2249
307.997	0.2234
308.343	0.2216
308.689	0.2194
309.035	0.2182
309.381	0.2158
309.727	0.2146
310.073	0.2126
310.419	0.2114
310.764	0.2101
311.11	0.209
311.455	0.2077
311.801	0.2069
312.146	0.2063
312.491	0.2052
312.837	0.2053
313.182	0.2048
313.527	0.204
313.872	0.2036
314.216	0.2034
314.561	0.203
314.906	0.2035
315.251	0.2035
315.595	0.203
315.94	0.204
316.284	0.2044
316.628	0.2042
316.972	0.2053
317.317	0.2057
317.661	0.207
318.005	0.2069
318.348	0.2078
318.692	0.2083
319.036	0.2094
319.38	0.2109
319.723	0.2116
320.067	0.2126
320.41	0.2142
320.754	0.2147
321.097	0.2171
321.44	0.2181
321.783	0.2207
322.126	0.2214
322.469	0.2222
322.812	0.2243
323.155	0.2261
323.498	0.2285
323.84	0.2296
324.183	0.2318
324.525	0.2336
324.868	0.2354
325.21	0.2374
325.552	0.2392
325.894	0.2412
326.236	0.2431
326.578	0.2452
326.92	0.2475
327.262	0.2493
327.604	0.2514
327.946	0.2543
328.287	0.2554
328.629	0.2581
328.97	0.2603
329.312	0.2626
329.653	0.2652
329.994	0.2668
330.335	0.27
330.676	0.2721
331.017	0.2746
331.358	0.2775
331.699	0.2799
332.04	0.2822
332.38	0.2845
332.721	0.2866
333.061	0.2892
333.402	0.2907
333.742	0.2934
334.083	0.2955
334.423	0.2976
334.763	0.2994
335.103	0.3016
335.443	0.3035
335.783	0.3054
336.123	0.3072
336.462	0.309
336.802	0.3112
337.141	0.3129
337.481	0.3151
337.82	0.3164
338.16	0.3183
338.499	0.3209
338.838	0.3227
339.177	0.3249
339.516	0.3271
339.855	0.3283
340.194	0.3305
340.533	0.3314
340.872	0.3334
341.21	0.3355
341.549	0.3357
341.887	0.3381
342.226	0.3384
342.564	0.3407
342.902	0.3395
343.24	0.341
343.578	0.3421
343.916	0.3426
344.254	0.3435
344.592	0.3431
344.93	0.3447
345.268	0.3458
345.605	0.3449
345.943	0.3459
346.28	0.3468
346.618	0.3475
346.955	0.3468
347.292	0.3476
347.629	0.3479
347.966	0.3492
348.303	0.3489
348.64	0.3485
348.977	0.3486
349.314	0.3492
349.65	0.3489
349.987	0.3494
350.324	0.3486
350.66	0.3487
350.996	0.3477
351.333	0.3478
351.669	0.3472
352.005	0.346
352.341	0.3456
352.677	0.344
353.013	0.3434
353.349	0.3419
353.685	0.3403
354.02	0.3388
354.356	0.3373
354.691	0.337
355.027	0.3354
355.362	0.3328
355.697	0.3331
356.033	0.3307
356.368	0.33
356.703	0.3286
357.038	0.3276
357.373	0.3257
357.707	0.3242
358.042	0.3232
358.377	0.3219
358.711	0.3207
359.046	0.3192
359.38	0.3177
359.715	0.3169
360.049	0.3155
360.383	0.3127
360.717	0.3105
361.051	0.3088
361.385	0.3071
361.719	0.304
362.053	0.3016
362.387	0.2989
362.72	0.2975
363.054	0.2951
363.387	0.2925
363.721	0.2892
364.054	0.288
364.387	0.2848
364.721	0.2828
365.054	0.2793
365.387	0.2764
365.72	0.2741
366.053	0.2718
366.385	0.2701
366.718	0.268
367.051	0.2663
367.383	0.2638
367.716	0.2614
368.048	0.2599
368.381	0.2576
368.713	0.2562
369.045	0.2536
369.377	0.2516
369.709	0.2503
370.041	0.2487
370.373	0.2455
370.705	0.2433
371.037	0.2408
371.368	0.2382
371.7	0.2368
372.031	0.2334
372.363	0.2312
372.694	0.229
373.025	0.2266
373.356	0.2234
373.688	0.2204
374.019	0.217
374.35	0.2137
374.68	0.2118
375.011	0.2081
375.342	0.2059
375.673	0.2032
376.003	0.2008
376.334	0.1981
376.664	0.1952
376.995	0.1924
377.325	0.1908
377.655	0.1885
377.985	0.1859
378.315	0.1841
378.645	0.1823
378.975	0.1805
379.305	0.1778
379.635	0.1758
379.964	0.1747
380.294	0.1725
380.623	0.1708
380.953	0.1686
381.282	0.1669
381.611	0.1647
381.941	0.1634
382.27	0.1603
382.599	0.1593
382.928	0.1567
383.257	0.1548
383.585	0.1532
383.914	0.1507
384.243	0.1491
384.571	0.1457
384.9	0.1436
385.228	0.1411
385.557	0.1383
385.885	0.136
386.213	0.1339
386.541	0.1317
386.869	0.1295
387.197	0.1273
387.525	0.1242
387.853	0.1227
388.181	0.1207
388.508	0.1185
388.836	0.1162
389.164	0.1145
389.491	0.1138
389.818	0.1121
390.146	0.1096
390.473	0.1079
390.8	0.1068
391.127	0.1049
391.454	0.1033
391.781	0.1021
392.108	0.1
392.435	0.0991
392.761	0.0972
393.088	0.0956
393.415	0.0946
393.741	0.0941
394.067	0.0923
394.394	0.0916
394.72	0.0903
395.046	0.0894
395.372	0.088
395.698	0.0864
396.024	0.0852
396.35	0.0839
396.676	0.0822
397.001	0.0818
397.327	0.08
397.653	0.0793
397.978	0.077
398.303	0.0761
398.629	0.0749
398.954	0.0745
399.279	0.0741
399.604	0.0716
399.929	0.0703
400.254	0.0706
400.579	0.0695
400.904	0.068
401.229	0.0672
401.553	0.0665
401.878	0.0657
402.202	0.0646
402.527	0.064
402.851	0.063
403.175	0.0625
403.5	0.062
403.824	0.0605
404.148	0.0609
404.472	0.0605
404.796	0.0596
405.119	0.0596
405.443	0.0594
405.767	0.0584
406.09	0.0587
406.414	0.058
406.737	0.0575
407.061	0.0576
407.384	0.0568
407.707	0.0568
408.03	0.0565
408.353	0.0566
408.676	0.0564
408.999	0.0559
409.322	0.0557
409.645	0.0556
409.968	0.0552
410.29	0.0556
410.613	0.0553
410.935	0.0554
411.258	0.0548
411.58	0.0548
411.902	0.0545
412.224	0.0548
412.546	0.0548
412.868	0.0549
413.19	0.0545
413.512	0.054
413.834	0.0542
414.156	0.0542
414.477	0.0543
414.799	0.0535
415.121	0.0545
415.442	0.0544
415.763	0.0545
416.085	0.0551
416.406	0.054
416.727	0.0542
417.048	0.055
417.369	0.0547
417.69	0.0551
418.011	0.0548
418.331	0.055
418.652	0.055
418.973	0.0554
419.293	0.055
419.614	0.0555
419.934	0.0555
420.254	0.0555
420.574	0.0559
420.895	0.0554
421.215	0.0554
421.535	0.0545
421.855	0.055
422.174	0.0556
422.494	0.0553
422.814	0.0557
423.134	0.0557
423.453	0.0565
423.773	0.0565
424.092	0.056
424.411	0.0562
424.731	0.0564
425.05	0.0566
425.369	0.0561
425.688	0.0574
426.007	0.0573
426.326	0.0566
426.644	0.0577
426.963	0.0575
427.282	0.0573
427.6	0.0569
427.919	0.0575
428.237	0.0575
428.556	0.0582
428.874	0.0572
429.192	0.0584
429.51	0.0576
429.828	0.0581
430.146	0.0578
430.464	0.0584
430.782	0.0584
431.1	0.058
431.418	0.0583
431.735	0.0589
432.053	0.0589
432.37	0.059
432.688	0.0586
433.005	0.0591
433.322	0.0592
433.639	0.0587
433.957	0.0594
434.274	0.0588
434.591	0.0598
434.907	0.0597
435.224	0.0599
435.541	0.0599
435.858	0.0616
436.174	0.0604
436.491	0.06
436.807	0.0595
437.124	0.0608
437.44	0.0596
437.756	0.0596
438.072	0.0597
438.388	0.0597
438.704	0.0605
439.02	0.0595
439.336	0.0592
439.652	0.0599
439.968	0.06
440.283	0.0603
440.599	0.0594
440.914	0.0596
441.23	0.0595
441.545	0.0589
441.86	0.0594
442.175	0.0597
442.491	0.0596
442.806	0.0601
443.121	0.0604
443.435	0.0593
443.75	0.0594
444.065	0.06
444.38	0.0592
444.694	0.06
445.009	0.0597
445.323	0.0601
445.638	0.059
445.952	0.0592
446.266	0.059
446.58	0.0597
446.894	0.0585
447.208	0.0591
447.522	0.058
447.836	0.0583
448.15	0.0582
448.464	0.058
448.777	0.058
449.091	0.0575
449.404	0.058
449.718	0.0574
450.031	0.0577
450.345	0.0574
450.658	0.0576
450.971	0.0576
451.284	0.0577
451.597	0.0575
451.91	0.0572
452.223	0.0576
452.535	0.0574
452.848	0.0576
453.161	0.0571
453.473	0.057
453.786	0.0571
454.098	0.057
454.411	0.0569
454.723	0.0562
455.035	0.0562
455.347	0.0562
455.659	0.0543
455.971	0.0547
456.283	0.0547
456.595	0.0548
456.907	0.0549
457.218	0.0544
457.53	0.0542
457.841	0.0541
458.153	0.0543
458.464	0.054
458.776	0.0542
459.087	0.0525
459.398	0.0528
459.709	0.0527
460.02	0.053
460.331	0.0524
460.642	0.0516
460.953	0.0524
461.263	0.0525
461.574	0.0515
461.885	0.0519
462.195	0.0517
462.506	0.0514
462.816	0.051
463.126	0.051
463.437	0.0501
463.747	0.051
464.057	0.0498
464.367	0.0507
464.677	0.0494
464.987	0.0493
465.296	0.0487
465.606	0.0491
465.916	0.0487
466.225	0.0492
466.535	0.048
466.844	0.0481
467.154	0.0481
467.463	0.0476
467.772	0.0463
468.081	0.0472
468.39	0.0467
468.699	0.0459
469.008	0.0458
469.317	0.0454
469.626	0.0466
469.935	0.0452
470.243	0.0456
470.552	0.0448
470.86	0.0441
471.169	0.0437
471.477	0.0441
471.785	0.0431
472.093	0.0434
472.402	0.0433
472.71	0.0426
473.018	0.0435
473.326	0.0412
473.633	0.0413
473.941	0.0412
474.249	0.0417
474.556	0.0412
474.864	0.0401
475.171	0.0401
475.479	0.0404
475.786	0.0395
476.094	0.0398
476.401	0.0402
476.708	0.0391
477.015	0.039
477.322	0.0384
477.629	0.0384
477.936	0.0386
478.242	0.0376
478.549	0.0371
478.856	0.0372
479.162	0.0364
479.469	0.0364
479.775	0.0364
480.081	0.0363
480.388	0.0362
480.694	0.0361
481	0.0357
481.306	0.0359
481.612	0.0347
481.918	0.0352
482.224	0.0349
482.53	0.0338
482.835	0.0345
483.141	0.0329
483.446	0.034
483.752	0.0328
484.057	0.0327
484.363	0.0322
484.668	0.0325
484.973	0.0314
485.278	0.031
485.583	0.0312
485.888	0.0303
486.193	0.03
486.498	0.0309
486.803	0.0307
487.107	0.0294
487.412	0.0291
487.717	0.0284
488.021	0.028
488.325	0.0283
488.63	0.0282
488.934	0.0283
489.238	0.0269
489.542	0.027
489.846	0.0271
490.15	0.0261
490.454	0.0264
490.758	0.0266
491.062	0.0259
491.366	0.026
491.669	0.0252
491.973	0.0257
492.276	0.0251
492.58	0.0252
492.883	0.0245
493.186	0.0235
493.489	0.0245
493.792	0.0233
494.096	0.0238
494.399	0.023
494.701	0.0228
495.004	0.0228
495.307	0.0231
495.61	0.0231
495.912	0.0216
496.215	0.0215
496.517	0.0215
496.82	0.0213
497.122	0.0212
497.424	0.0209
497.727	0.0206
498.029	0.0205
498.331	0.0194
498.633	0.0207
498.935	0.0197
499.237	0.0192
499.538	0.0191
499.84	0.0199
500.142	0.0195
500.443	0.0189
500.745	0.0183
501.046	0.0186
501.348	0.0181
501.649	0.0192
501.95	0.0183
502.251	0.0174
502.552	0.0177
502.853	0.0178
503.154	0.0173
503.455	0.0177
503.756	0.0159
504.057	0.0165
504.357	0.0165
504.658	0.0166
504.958	0.0158
505.259	0.0156
505.559	0.0149
505.859	0.0156
506.16	0.0154
506.46	0.015
506.76	0.0143
507.06	0.0148
507.36	0.0149
507.66	0.0148
507.96	0.0134
508.259	0.013
508.559	0.0135
508.859	0.0132
509.158	0.0134
509.457	0.014
509.757	0.0123
510.056	0.0123
510.355	0.0126
510.655	0.0127
510.954	0.0127
511.253	0.0124
511.552	0.0114
511.851	0.0118
512.149	0.0109
512.448	0.0112
512.747	0.0113
513.045	0.0109
513.344	0.011
513.642	0.0116
513.941	0.0098
514.239	0.0107
514.537	0.0111
514.836	0.0107
515.134	0.0097
515.432	0.0112
515.73	0.0097
516.028	0.0094
516.326	0.0094
516.623	0.0093
516.921	0.0102
517.219	0.0102
517.516	0.0097
517.814	0.0103
518.111	0.0091
518.409	0.0079
518.706	0.0092
519.003	0.008
519.3	0.0087
519.597	0.0082
519.894	0.0078
520.191	0.0087
520.488	0.0084
520.785	0.0082
521.082	0.0083
521.378	0.0084
521.675	0.0073
521.971	0.0085
522.268	0.0079
522.564	0.0068
522.861	0.0068
523.157	0.0077
523.453	0.0073
523.749	0.0067
524.045	0.0065
524.341	0.0069
524.637	0.0058
524.933	0.0061
525.229	0.0058
525.524	0.0064
525.82	0.0059
526.115	0.0063
526.411	0.0058
526.706	0.0046
527.002	0.0045
527.297	0.0044
527.592	0.0056
527.887	0.0053
528.182	0.004
528.477	0.0046
528.772	0.0036
529.067	0.0037
529.362	0.0034
529.657	0.0039
529.951	0.0039
530.246	0.0054
530.54	0.0048
530.835	0.0042
531.129	0.0058
531.423	0.0039
531.718	0.0046
532.012	0.0037
532.306	0.0043
532.6	0.0049
532.894	0.0044
533.188	0.0028
533.482	0.0041
533.775	0.0038
534.069	0.0032
534.363	0.0022
534.656	0.0026
534.95	0.0031
535.243	0.0038
535.536	0.0039
535.83	0.0025
536.123	0.0029
536.416	0.0042
536.709	0.0034
537.002	0.0019
537.295	0.0017
537.588	0.0026
537.881	0.0033
538.173	0.0036
538.466	0.0026
538.759	0.0021
539.051	0.0029
539.344	0.0022
539.636	0.0024
539.928	0.0029
540.22	0.0017
540.513	0.002
540.805	0.0028
541.097	0.0019
541.389	0.001
541.681	0.0033
541.972	0.0014
542.264	0.0037
542.556	0.0023
542.847	0.001
543.139	0.0026
543.431	0.002
543.722	0.0014
544.013	0.0002
544.305	0.0024
544.596	0.0014
544.887	0.0011
545.178	0.0012
545.469	0.0006
545.76	0.0013
546.051	0.0024
546.342	0.0007
546.632	0.0022
546.923	0.0012
547.214	0.0007
547.504	0.002
547.795	0.0008
548.085	0.0023
548.375	0.0013
548.666	0.0002
548.956	0.0023
549.246	0.0013
549.536	0.0019
549.826	0.0013
550.116	0.0009
550.406	0.0014
550.695	0.0022
550.985	0.0018
551.275	0.0012
551.564	0.0006
551.854	0.0016
552.143	0.0025
552.433	0.0017
552.722	0.0002
553.011	0.0002
553.3	0.0025
553.589	0.0019
553.879	0.0008
554.167	0.0013
554.456	0.0006
554.745	0.002
555.034	0.0011
555.323	-0.0005
555.611	-0.0001
555.9	0.0012
556.188	0.0009
556.477	0.0018
556.765	0.0026
557.053	0.0005
557.342	0.0016
557.63	0.0004
557.918	0.0013
558.206	0.0017
558.494	0.0021
558.782	0.0013
559.069	0.0028
559.357	0.0024
559.645	0.0027
559.932	0.0015
560.22	0.0015
560.507	0.0006
560.795	0.0012
561.082	0.0002
561.37	0.0009
561.657	0.0015
561.944	0.0007
562.231	-0.0004
562.518	0.0004
562.805	0.0001
563.092	0.0001
563.379	0.0009
563.665	0.0005
563.952	0.0006
564.239	0.0023
564.525	0.0016
564.811	0.0023
565.098	0.0011
565.384	0.0013
565.67	0.0019
565.957	0.0028
566.243	0.0012
566.529	0.003
566.815	0.0005
567.101	0.0011
567.387	0.0003
567.672	0.0004
567.958	0.0014
568.244	0.0015
568.529	0.0021
568.815	0.0023
569.1	0.0012
569.386	0.0021
569.671	0.0031
569.956	0.0017
570.242	0.0017
570.527	0.0017
570.812	0.0012
571.097	0.0015
571.382	0.0026
571.666	0.002
571.951	0.0019
572.236	0.0031
572.521	0.0027
572.805	0.0023
573.09	0.0008
573.374	0.0003
573.659	0.0019
573.943	0.0027
574.227	0.0022
574.511	0.0019
574.795	0.0015
575.079	0.0019
575.363	0.0017
575.647	0.0024
575.931	0.0016
576.215	0.0003
576.499	0.0003
576.782	0.002
577.066	0.0008
577.349	0.0018
577.633	0.0003
577.916	0.001
578.2	0.002
578.483	0.0029
578.766	0.0024
579.049	0.0029
579.332	0.0022
579.615	0.0021
579.898	0.0015
580.181	0.0013
580.464	0.0011
580.746	0.0012
581.029	0.0021
581.312	0.0008
581.594	0.0005
581.877	0.0033
582.159	0.0021
582.441	0.0016
582.724	0.0011
583.006	0.0018
583.288	0.0011
583.57	0.0013
583.852	0.0009
584.134	0.0005
584.416	0.0005
584.697	0.0012
584.979	0.0005
585.261	0.001
585.542	0.002
585.824	0.0014
586.105	0.0017
586.387	0.0017
586.668	0.0009
586.949	0.0008
587.231	0.0009
587.512	0.0016
587.793	0.0019
588.074	0.0018
588.355	0.0018
588.636	0.0008
588.916	0.0018
589.197	0.0022
589.478	0.0006
589.758	0.0005
590.039	0.0004
590.319	0.0012
590.6	0.0016
590.88	0.0011
591.16	0.0006
591.441	-0.0003
591.721	0.0004
592.001	0.0003
592.281	0.0005
592.561	0.0004
592.841	-0.0006
593.12	0.0017
593.4	0.0004
593.68	0.0006
593.959	0.0015
594.239	0.0022
594.518	0.0023
594.798	0.0008
595.077	0.0015
595.356	0.0013
595.636	0.001
595.915	0.0013
596.194	0.0009
596.473	0.0004
596.752	0.0011
597.031	-0.0002
597.31	0.0001
597.588	0.0008
597.867	0.0002
598.146	0.0015
598.424	0.0003
598.703	-0.0003
598.981	-0.0003
599.259	0.0008
599.538	0.0016
599.816	0.001
600.094	0.0002
600.372	0.0012
600.65	0.0012
600.928	0.0006
601.206	-0.0015
601.484	-0
601.762	-0
602.04	-0.0011
602.317	0.0003
602.595	0.0005
602.872	-0.0001
603.15	0.0001
603.427	0
603.704	0.0014
603.982	0.0017
604.259	0.0008
604.536	0.0012
604.813	0.001
605.09	0.0003
605.367	-0.0005
605.644	0.0002
605.921	-0.0001
606.197	-0.0013
606.474	0.0005
606.751	-0.0006
607.027	0.0001
607.304	-0.0009
607.58	0.0003
607.856	0.0001
608.133	0.0007
608.409	-0.0002
608.685	-0.0002
608.961	-0.0004
609.237	-0.0001
609.513	-0.0001
609.789	-0.0009
610.065	-0.0008
610.341	0.0002
610.616	0.001
610.892	0.0001
611.167	0.0006
611.443	0.0017
611.718	0.0008
611.994	0.0008
612.269	0.0015
612.544	0.0014
612.819	0.0006
613.095	0.0005
613.37	0.0006
613.645	0.0013
613.919	0.0017
614.194	0.002
614.469	0.0009
614.744	0.0006
615.019	0.001
615.293	0.0005
615.568	0.0005
615.842	0.0002
616.116	0.0013
616.391	-0.0007
616.665	-0.0004
616.939	-0.0007
617.213	0.0003
617.488	-0.0004
617.762	-0.0007
618.035	-0.0005
618.309	-0.0012
618.583	0.0007
618.857	-0.0005
619.131	-0.0008
619.404	-0.0006
619.678	-0.0012
619.951	-0.0018
620.225	-0.0008
620.498	0.0004
620.771	-0.0018
621.045	-0.0008
621.318	0.0001
621.591	-0.0013
621.864	-0.0001
622.137	0.0009
622.41	0.0009
622.683	0.0015
622.956	-0.001
623.228	-0.0012
623.501	-0.0004
623.774	-0.0005
624.046	-0.0016
624.319	-0.0008
624.591	-0.0013
624.863	-0.001
625.136	-0.0008
625.408	-0.0015
625.68	-0.0013
625.952	-0.0005
626.224	-0.0021
626.496	-0.002
626.768	-0.0013
627.04	-0.002
627.311	-0.0031
627.583	-0.0021
627.855	-0.0011
628.126	-0.0024
628.398	-0.0018
628.669	-0.004
628.941	-0.0028
629.212	-0.0022
629.483	-0.0012
629.755	-0.002
630.026	-0.0014
630.297	-0.0017
630.568	-0.0023
630.839	-0.0014
631.11	-0.0032
631.38	-0.0029
631.651	-0.0022
631.922	-0.0024
632.192	-0.0022
632.463	-0.0017
632.733	-0.002
633.004	-0.0015
633.274	-0.0015
633.545	-0.0012
633.815	-0.0011
634.085	-0.0013
634.355	-0.0009
634.625	-0.0004
634.895	0.0004
635.165	-0.0001
635.435	-0.0007
635.705	-0.0028
635.974	-0.0031
636.244	-0.0016
636.514	-0.0002
636.783	-0.0013
637.053	-0.0002
637.322	-0.0006
637.591	-0.0019
637.861	-0.0022
638.13	-0.0015
638.399	-0.0011
638.668	-0.0006
638.937	-0.0017
639.206	-0.0005
639.475	-0.0007
639.744	-0.0011
640.013	-0.0007
640.281	0.0001
640.55	-0.0014
640.819	-0.0004
641.087	0.0001
641.356	-0.0001
641.624	0.0002
641.892	-0.0007
642.161	-0.0017
642.429	-0.0011
642.697	-0.0012
642.965	-0.0003
643.233	-0.0028
643.501	-0.0015
643.769	-0.0023
644.037	-0.002
644.305	-0.0024
644.572	-0.0021
644.84	-0.0028
645.108	-0.0031
645.375	-0.0042
645.643	-0.0059
645.91	-0.0047
646.177	-0.0037
646.445	-0.0063
646.712	-0.0052
646.979	-0.0047
647.246	-0.004
647.513	-0.0023
647.78	-0.0012
648.047	-0.0014
648.314	-0.0018
648.58	-0.0015
648.847	-0.0004
649.114	-0.0022
649.38	-0.0029
649.647	-0.0024
649.913	-0.0029
650.18	-0.0044
650.446	-0.0043
650.712	-0.0044
650.978	-0.0044
651.245	-0.0038
651.511	-0.0026
651.777	-0.0022
652.043	-0.0029
652.309	-0.0032
652.574	-0.0039
652.84	-0.0035
653.106	-0.0041
653.371	-0.004
653.637	-0.0048
653.903	-0.003
654.168	-0.0033
654.433	-0.003
654.699	-0.0012
654.964	-0.0013
655.229	-0.0014
655.494	-0.0029
655.759	-0.0056
656.024	0.0009
656.289	-0
656.554	0.0052
656.819	0.0002
657.084	-0.0012
657.349	-0.0038
657.613	-0.0033
657.878	-0.0028
658.142	-0.0027
658.407	-0.0019
658.671	-0.0028
658.936	-0.0017
659.2	-0.0017
659.464	-0.0024
659.728	-0.002
659.992	-0.0032
660.256	-0.0026
660.52	-0.0037
660.784	-0.0031
661.048	-0.0024
661.312	-0.0031
661.575	-0.004
661.839	-0.0036
662.103	-0.0039
662.366	-0.0038
662.63	-0.0034
662.893	-0.0022
663.156	-0.0028
663.42	-0.0019
663.683	-0.0025
663.946	-0.0029
664.209	-0.0026
664.472	-0.0019
664.735	-0.0019
664.998	-0.0011
665.261	-0.002
665.524	-0.0034
665.786	-0.0029
666.049	-0.0014
666.312	-0.0012
666.574	-0.0014
666.837	-0.0016
667.099	-0.002
667.361	-0.0032
667.624	-0.0043
667.886	-0.0031
668.148	-0.0026
668.41	-0.0028
668.672	-0.0035
668.934	-0.0025
669.196	-0.0017
669.458	-0.001
669.72	-0.0011
669.982	-0.0018
670.243	-0.003
670.505	-0.003
670.766	-0.0033
671.028	-0.0019
671.289	-0.0026
671.551	-0.003
671.812	-0.0032
672.073	-0.0022
672.334	-0.0027
672.596	-0.0017
672.857	-0.0009
673.118	-0.0007
673.379	-0.0009
673.639	-0.0017
673.9	-0.0032
674.161	-0.0023
674.422	-0.0029
674.682	-0.0035
674.943	-0.0031
675.203	-0.0024
675.464	-0.0022
675.724	-0.0019
675.985	-0.0013
676.245	-0.0011
676.505	-0.0031
676.765	-0.0012
677.025	-0.0015
677.285	-0.0026
677.545	-0.0015
677.805	-0.0028
678.065	-0.002
678.325	-0.0001
678.585	-0.0014
678.844	-0.0016
679.104	-0.001
679.363	-0.0015
679.623	-0.0014
679.882	-0.0017
680.142	-0.0008
680.401	-0.0011
680.66	-0.0012
680.919	-0.0015
681.178	-0.0021
681.437	-0.0012
681.696	-0.0015
681.955	-0.0006
682.214	-0.0007
682.473	-0.0012
682.732	-0.0009
682.99	-0.0027
683.249	-0.0027
683.508	-0.0027
683.766	-0.0018
684.024	-0.0009
684.283	-0.0019
684.541	-0.0016
684.799	-0.001
685.058	-0.0013
685.316	-0.0016
685.574	-0.0006
685.832	-0.0019
686.09	-0.0017
686.348	-0.0031
686.606	-0.0027
686.863	-0.0035
687.121	-0.004
687.379	-0.004
687.636	-0.004
687.894	-0.0026
688.151	-0.0029
688.409	-0.0024
688.666	-0.0017
688.923	-0.0023
689.181	-0.0026
689.438	-0.0011
689.695	-0.0006
689.952	0.0011
690.209	-0.0001
690.466	-0
690.723	-0.0021
690.979	-0.002
691.236	-0.0031
691.493	-0.0014
691.75	-0.0019
692.006	-0.0021
692.263	-0.0023
692.519	-0.0023
692.775	-0.0031
693.032	-0.0029
693.288	-0.0033
693.544	-0.0028
693.8	-0.0035
694.056	-0.003
694.313	-0.0043
694.568	-0.0031
694.824	-0.0048
695.08	-0.0038
695.336	-0.0035
695.592	-0.0043
695.847	-0.0029
696.103	-0.0041
696.359	-0.0044
696.614	-0.004
696.869	-0.0047
697.125	-0.0044
697.38	-0.0013
697.635	-0.0024
697.891	-0.0031
698.146	-0.0043
698.401	-0.0048
698.656	-0.0039
698.911	-0.0041
699.166	-0.0054
699.42	-0.0054
699.675	-0.0052
699.93	-0.0045
700.185	-0.0038
700.439	-0.0024
700.694	-0.0021
700.948	-0.0031
701.203	-0.0028
701.457	-0.0026
701.711	-0.0028
701.965	-0.0028
702.22	-0.0024
702.474	-0.0018
702.728	-0.001
702.982	-0.0006
703.236	-0.0017
703.49	-0.0019
703.743	-0.0026
703.997	-0.0034
704.251	-0.0033
704.504	-0.0041
704.758	-0.0028
705.012	-0.0029
705.265	-0.0032
705.518	-0.0039
705.772	-0.0033
706.025	-0.0027
706.278	-0.0029
706.531	-0.0032
706.785	-0.0038
707.038	-0.003
707.291	-0.003
707.543	-0.0035
707.796	-0.0028
708.049	-0.0027
708.302	-0.0019
708.555	-0.002
708.807	0.0001
709.06	-0.002
709.312	-0.0018
709.565	-0.0027
709.817	-0.0036
710.069	-0.0029
710.322	-0.0037
710.574	-0.0028
710.826	-0.0027
711.078	-0.0002
711.33	0
711.582	0.0002
711.834	-0.0015
712.086	-0.0021
712.338	-0.0029
712.59	-0.0039
712.841	-0.0051
713.093	-0.003
713.344	-0.0042
713.596	-0.0045
713.847	-0.0037
714.099	-0.0027
714.35	-0.0042
714.601	-0.005
714.853	-0.0041
715.104	-0.0042
715.355	-0.0047
715.606	-0.0026
715.857	-0.0039
716.108	-0.0039
716.359	-0.004
716.609	-0.0049
716.86	-0.0052
717.111	-0.0049
717.361	-0.0059
717.612	-0.0064
717.863	-0.0065
718.113	-0.008
718.363	-0.0075
718.614	-0.0054
718.864	-0.0061
719.114	-0.0058
719.364	-0.0057
719.614	-0.0062
719.865	-0.0073
720.114	-0.0079
720.364	-0.0074
720.614	-0.0065
720.864	-0.0059
721.114	-0.0047
721.364	-0.0042
721.613	-0.0033
721.863	-0.003
722.112	-0.0029
722.362	-0.0043
722.611	-0.0043
722.86	-0.005
723.11	-0.0061
723.359	-0.0053
723.608	-0.0058
723.857	-0.0051
724.106	-0.0049
724.355	-0.0053
724.604	-0.0049
724.853	-0.0049
725.102	-0.0054
725.351	-0.004
725.599	-0.0039
725.848	-0.0032
726.097	-0.0027
726.345	-0.0023
726.594	-0.0014
726.842	-0.0018
727.09	-0.0035
727.339	-0.0052
727.587	-0.0045
727.835	-0.0054
728.083	-0.0053
728.331	-0.0068
728.579	-0.0047
728.827	-0.0035
729.075	-0.0034
729.323	-0.0024
729.571	-0.0018
729.818	-0.0024
730.066	-0.0014
730.314	-0.0024
730.561	-0.0028
730.809	-0.0056
731.056	-0.0042
731.303	-0.002
731.551	-0.0036
731.798	-0.0048
732.045	-0.0034
732.292	-0.0027
732.539	-0.0037
732.786	-0.0041
733.033	-0.0034
733.28	-0.0031
733.527	-0.0038
733.774	-0.0046
734.021	-0.0033
734.267	-0.0033
734.514	-0.0034
734.76	-0.0023
735.007	-0.0037
735.253	-0.005
735.5	-0.0046
735.746	-0.0039
735.992	-0.0035
736.238	-0.0047
736.485	-0.0055
736.731	-0.0065
736.977	-0.007
737.223	-0.005
737.469	-0.0053
737.715	-0.0037
737.96	-0.0038
738.206	-0.0019
738.452	-0
738.697	-0.0003
738.943	-0.0004
739.189	-0.0012
739.434	-0.0008
739.679	-0.0005
739.925	-0.0009
740.17	-0.0016
740.415	-0.0014
740.66	-0.0013
740.906	-0.0016
741.151	-0.001
741.396	-0.0016
741.641	-0.0017
741.886	-0.0027
742.13	-0.002
742.375	-0.0023
742.62	-0.0037
742.865	-0.0029
743.109	-0.0033
743.354	-0.0044
743.598	-0.0045
743.843	-0.0042
744.087	-0.0032
744.331	-0.0036
744.576	-0.0025
744.82	-0.0048
745.064	-0.0051
745.308	-0.0047
745.552	-0.0045
745.796	-0.0048
746.04	-0.0038
746.284	-0.0044
746.528	-0.0036
746.771	-0.0042
747.015	-0.0045
747.259	-0.0041
747.502	-0.0027
747.746	-0.0028
747.989	-0.0038
748.233	-0.004
748.476	-0.0045
748.719	-0.0051
748.963	-0.0048
749.206	-0.0031
749.449	-0.0036
749.692	-0.0018
749.935	-0.0018
750.178	-0.0033
750.421	-0.0049
750.664	-0.0052
750.906	-0.0064
751.149	-0.0066
751.392	-0.007
751.635	-0.0061
751.877	-0.0042
752.12	-0.0053
752.362	-0.0056
752.604	-0.006
752.847	-0.005
753.089	-0.0054
753.331	-0.005
753.573	-0.0052
753.816	-0.0033
754.058	-0.0036
754.3	-0.0036
754.542	-0.0034
754.783	-0.0044
755.025	-0.004
755.267	-0.0052
755.509	-0.0052
755.75	-0.006
755.992	-0.0045
756.234	-0.0037
756.475	-0.0043
756.716	-0.0031
756.958	-0.003
757.199	-0.0019
757.44	-0.0056
757.682	-0.0055
757.923	-0.0029
758.164	-0.0036
758.405	-0.0044
758.646	-0.0037
758.887	-0.0041
759.128	-0.0054
759.369	-0.0065
759.609	-0.0049
759.85	-0.0052
760.091	-0.0045
760.331	-0.0052
760.572	-0.0046
760.812	-0.0045
761.053	-0.0022
761.293	-0.0026
761.533	-0.0027
761.774	-0.0008
762.014	-0.0023
762.254	-0.0029
762.494	-0.0026
762.734	-0.003
762.974	-0.0037
763.214	-0.0036
763.454	-0.0038
763.694	-0.0039
763.933	-0.0026
764.173	-0.0019
764.413	-0.0025
764.652	-0.0033
764.892	-0.0029
765.131	-0.0037
765.371	-0.0035
765.61	-0.0036
765.849	-0.0047
766.089	-0.0053
766.328	-0.0052
766.567	-0.0039
766.806	-0.0049
767.045	-0.0029
767.284	-0.0032
767.523	-0.0027
767.762	-0.0045
768.001	-0.0045
768.239	-0.0043
768.478	-0.0034
768.717	-0.0032
768.955	-0.0036
769.194	-0.0025
769.432	-0.0025
769.671	-0.0023
769.909	-0.0018
770.148	-0.0026
770.386	-0.0031
770.624	-0.0031
770.862	-0.0019
771.1	-0.0016
771.338	-0.0024
771.576	-0.0018
771.814	-0.002
772.052	-0.0038
772.29	-0.0038
772.528	-0.004
772.765	-0.0038
773.003	-0.0036
773.24	-0.0032
773.478	-0.0018
773.716	-0.0016
773.953	-0.001
774.19	-0
774.428	-0.0001
774.665	0.0008
774.902	0.0005
775.139	0.0008
775.376	0.0005
775.613	0.001
775.85	0.0015
776.087	0.0015
776.324	0.0014
776.561	0.0016
776.798	0.0018
777.034	0.003
777.271	0.0012
777.508	0.0014
777.744	0.001
777.981	0.0009
778.217	0.0012
778.454	-0.0003
778.69	-0.0005
778.926	-0.0017
779.162	-0.0028
779.399	-0.0042
779.635	-0.0055
779.871	-0.0061
780.107	-0.0052
780.343	-0.0053
780.579	-0.0042
780.814	-0.0043
781.05	-0.0044
781.286	-0.0047
781.522	-0.0027
781.757	-0.002
781.993	-0.0015
782.228	-0.001
782.464	-0.0022
782.699	-0.0019
782.934	-0.0022
783.17	-0.0015
783.405	-0.0021
783.64	-0.0025
783.875	-0.0028
784.11	-0.0013
784.345	-0.0005
784.58	-0.0007
784.815	0.0003
785.05	-0.0011
785.285	-0.0014
785.52	-0.0005
785.754	-0.0012
785.989	-0.0015
786.223	-0.0004
786.458	0.0002
786.692	0.0001
786.927	0.0012
787.161	0.0003
787.396	0.0006
787.63	0.0003
787.864	0.0001
788.098	0.0002
788.332	0.0003
788.566	-0.001
788.8	-0.0011
789.034	-0.0007
789.268	-0.0004
789.502	0.0003
789.736	0.0004
789.969	0.0007
790.203	-0.0007
790.437	-0.001
790.67	-0.0016
790.904	-0.0023
791.137	-0.002
791.37	-0.0018
791.604	-0.0037
791.837	-0.0037
792.07	-0.0029
792.303	-0.0034
792.537	-0.0044
792.77	-0.005
793.003	-0.0051
793.236	-0.0044
793.469	-0.0019
793.701	-0.0023
793.934	-0.004
794.167	-0.0041
794.4	-0.0026
794.632	-0.0014
794.865	-0.0025
795.097	-0.003
795.33	-0.0039
795.562	-0.0032
795.795	-0.0021
796.027	-0.0036
796.259	-0.0042
796.491	-0.0052
796.724	-0.0039
796.956	-0.0034
797.188	-0.0033
797.42	-0.0024
797.652	-0.0031
797.883	-0.0029
798.115	-0.0026
798.347	-0.0042
798.579	-0.0039
798.81	-0.0051
799.042	-0.0049
799.274	-0.0041
799.505	-0.0031
799.737	-0.003
799.968	-0.0022
800.199	-0.0015
800.431	-0.0007
800.662	-0.0009
800.893	-0.0001
801.124	-0.0004
801.355	-0.0004
801.586	0.0004
801.817	-0.0017
802.048	-0.0016
802.279	-0.0029
802.51	-0.0042
802.741	-0.0035
802.971	-0.0037
803.202	-0.0043
803.433	-0.0051
803.663	-0.0038
803.894	-0.0039
804.124	-0.0034
804.354	-0.0042
804.585	-0.0043
804.815	-0.0037
805.045	-0.0044
805.275	-0.0047
805.506	-0.0683
805.736	0.0441
805.966	0.1616
806.196	0.1281
