Data from 03 0.5 mM K2Cr2O7 0.2 mM BQDS 1 M H2SO4 5 min_Absorbance_0061.txt Node
Date: Thu Dec 09 20:51:44 EST 2021
User: kwabilab-user
Spectrometer: HDX00518
Trigger mode: 0
Integration Time (sec): 5.000000E-2
Scans to average: 50
Nonlinearity correction enabled: false
Boxcar width: 0
Storing dark spectrum: false
XAxis mode: Wavelengths
Number of Pixels in Spectrum: 2068
>>>>>Begin Spectral Data<<<<<
195.27	0.0814
195.642	-0.1429
196.014	0.0109
196.386	0.0745
196.758	-0.047
197.129	-0.0068
197.501	0.0257
197.872	0.0703
198.244	0.0911
198.615	0.1025
198.986	0.0981
199.357	0.089
199.728	0.0879
200.099	0.112
200.47	0.0943
200.841	0.0915
201.212	0.0966
201.582	0.0934
201.953	0.103
202.323	0.0895
202.694	0.1022
203.064	0.1028
203.434	0.1112
203.804	0.0995
204.174	0.099
204.544	0.074
204.914	0.1206
205.284	0.1124
205.653	0.0974
206.023	0.1112
206.393	0.1088
206.762	0.0962
207.131	0.1034
207.501	0.1073
207.87	0.1136
208.239	0.074
208.608	0.1275
208.977	0.0893
209.346	0.1149
209.715	0.1213
210.083	0.1063
210.452	0.121
210.82	0.1125
211.189	0.1317
211.557	0.113
211.925	0.1181
212.294	0.1272
212.662	0.1261
213.03	0.1387
213.398	0.1601
213.766	0.1581
214.133	0.1229
214.501	0.1587
214.869	0.1645
215.236	0.1773
215.604	0.1689
215.971	0.1863
216.338	0.2027
216.705	0.2075
217.072	0.2459
217.439	0.2375
217.806	0.252
218.173	0.2861
218.54	0.3099
218.907	0.3394
219.273	0.3596
219.64	0.4034
220.006	0.436
220.373	0.4563
220.739	0.4961
221.105	0.5342
221.471	0.5537
221.837	0.6226
222.203	0.6512
222.569	0.6913
222.935	0.7301
223.3	0.757
223.666	0.7966
224.031	0.8173
224.397	0.864
224.762	0.8783
225.127	0.9266
225.493	0.9389
225.858	0.9596
226.223	0.987
226.588	0.9952
226.952	1.0204
227.317	1.0369
227.682	1.0336
228.046	1.0451
228.411	1.0613
228.775	1.0807
229.14	1.0685
229.504	1.0746
229.868	1.0818
230.232	1.0694
230.596	1.0748
230.96	1.0794
231.324	1.0633
231.688	1.0636
232.052	1.0647
232.415	1.0567
232.779	1.0504
233.142	1.0528
233.505	1.0434
233.869	1.0395
234.232	1.025
234.595	1.0111
234.958	1.0102
235.321	1.0073
235.684	0.9989
236.047	0.9915
236.409	0.9811
236.772	0.9725
237.134	0.9665
237.497	0.9525
237.859	0.9487
238.222	0.9458
238.584	0.9323
238.946	0.9307
239.308	0.9232
239.67	0.9116
240.032	0.9066
240.393	0.8977
240.755	0.8925
241.117	0.8883
241.478	0.8841
241.84	0.8817
242.201	0.8717
242.562	0.8637
242.924	0.8603
243.285	0.853
243.646	0.8496
244.007	0.8471
244.368	0.8454
244.728	0.8367
245.089	0.834
245.45	0.8298
245.81	0.8273
246.171	0.8263
246.531	0.8155
246.891	0.8173
247.252	0.8156
247.612	0.8115
247.972	0.8079
248.332	0.8097
248.692	0.8069
249.051	0.8029
249.411	0.7999
249.771	0.7953
250.13	0.7975
250.49	0.7983
250.849	0.7952
251.208	0.7942
251.568	0.7904
251.927	0.7911
252.286	0.7908
252.645	0.7888
253.004	0.7875
253.363	0.7853
253.721	0.7865
254.08	0.7884
254.439	0.7842
254.797	0.7852
255.155	0.7816
255.514	0.78
255.872	0.7809
256.23	0.7781
256.588	0.7851
256.946	0.7773
257.304	0.7776
257.662	0.7788
258.02	0.7753
258.377	0.7764
258.735	0.7776
259.093	0.7762
259.45	0.7754
259.807	0.774
260.165	0.7758
260.522	0.7726
260.879	0.7715
261.236	0.7703
261.593	0.7703
261.95	0.7705
262.306	0.7671
262.663	0.7649
263.02	0.7647
263.376	0.7624
263.733	0.7611
264.089	0.76
264.445	0.759
264.802	0.7574
265.158	0.7571
265.514	0.7538
265.87	0.7523
266.226	0.7483
266.581	0.7458
266.937	0.7471
267.293	0.7437
267.648	0.7406
268.004	0.7401
268.359	0.7343
268.714	0.7344
269.07	0.7303
269.425	0.7303
269.78	0.7272
270.135	0.7244
270.49	0.7193
270.844	0.7193
271.199	0.717
271.554	0.7115
271.908	0.7098
272.263	0.709
272.617	0.7025
272.972	0.6993
273.326	0.6966
273.68	0.6927
274.034	0.6877
274.388	0.6876
274.742	0.6857
275.096	0.6801
275.45	0.6744
275.803	0.6712
276.157	0.668
276.51	0.6626
276.864	0.6583
277.217	0.6532
277.571	0.6493
277.924	0.6454
278.277	0.6429
278.63	0.6362
278.983	0.63
279.336	0.6272
279.688	0.621
280.041	0.615
280.394	0.6112
280.746	0.6085
281.099	0.6014
281.451	0.5946
281.803	0.5891
282.156	0.5846
282.508	0.5793
282.86	0.5751
283.212	0.5704
283.564	0.564
283.916	0.5591
284.267	0.5541
284.619	0.5488
284.971	0.5433
285.322	0.5363
285.673	0.5312
286.025	0.5262
286.376	0.522
286.727	0.5157
287.078	0.5074
287.429	0.5025
287.78	0.4965
288.131	0.4914
288.482	0.4845
288.833	0.4793
289.183	0.4712
289.534	0.468
289.884	0.4614
290.235	0.4541
290.585	0.4494
290.935	0.4441
291.285	0.4373
291.635	0.4313
291.985	0.426
292.335	0.4207
292.685	0.4133
293.035	0.4081
293.384	0.4022
293.734	0.3959
294.083	0.39
294.433	0.3851
294.782	0.3788
295.131	0.3731
295.48	0.3672
295.829	0.3621
296.179	0.3555
296.527	0.3507
296.876	0.3439
297.225	0.339
297.574	0.3336
297.922	0.3282
298.271	0.3232
298.619	0.3178
298.968	0.3137
299.316	0.3083
299.664	0.3042
300.012	0.2986
300.36	0.2941
300.708	0.2888
301.056	0.285
301.404	0.2795
301.752	0.2764
302.099	0.2725
302.447	0.2674
302.794	0.2638
303.142	0.2603
303.489	0.2562
303.836	0.2525
304.183	0.2487
304.531	0.2462
304.878	0.2425
305.224	0.2396
305.571	0.236
305.918	0.2335
306.265	0.2308
306.611	0.228
306.958	0.2256
307.304	0.2228
307.651	0.2205
307.997	0.219
308.343	0.2171
308.689	0.2146
309.035	0.2126
309.381	0.2118
309.727	0.2102
310.073	0.2086
310.419	0.2067
310.764	0.206
311.11	0.2049
311.455	0.2031
311.801	0.2021
312.146	0.2018
312.491	0.2007
312.837	0.2
313.182	0.1998
313.527	0.1991
313.872	0.1991
314.216	0.1992
314.561	0.1996
314.906	0.1991
315.251	0.1984
315.595	0.1993
315.94	0.1993
316.284	0.2005
316.628	0.2
316.972	0.2014
317.317	0.2014
317.661	0.2025
318.005	0.2023
318.348	0.2033
318.692	0.204
319.036	0.2053
319.38	0.2065
319.723	0.2074
320.067	0.2082
320.41	0.2099
320.754	0.2105
321.097	0.2126
321.44	0.2139
321.783	0.2155
322.126	0.217
322.469	0.2186
322.812	0.2198
323.155	0.2217
323.498	0.224
323.84	0.2257
324.183	0.2273
324.525	0.229
324.868	0.2302
325.21	0.2326
325.552	0.2352
325.894	0.2366
326.236	0.2381
326.578	0.2411
326.92	0.2433
327.262	0.2451
327.604	0.2466
327.946	0.2492
328.287	0.2516
328.629	0.2536
328.97	0.2559
329.312	0.2585
329.653	0.2605
329.994	0.2628
330.335	0.2647
330.676	0.2671
331.017	0.2704
331.358	0.2723
331.699	0.2752
332.04	0.2772
332.38	0.2794
332.721	0.2814
333.061	0.2838
333.402	0.2858
333.742	0.2886
334.083	0.2904
334.423	0.292
334.763	0.2946
335.103	0.2966
335.443	0.2985
335.783	0.3002
336.123	0.3023
336.462	0.3042
336.802	0.3061
337.141	0.3084
337.481	0.31
337.82	0.3121
338.16	0.3138
338.499	0.3157
338.838	0.318
339.177	0.3199
339.516	0.3209
339.855	0.3228
340.194	0.325
340.533	0.3267
340.872	0.3282
341.21	0.3294
341.549	0.331
341.887	0.3326
342.226	0.3338
342.564	0.3348
342.902	0.3349
343.24	0.3362
343.578	0.3373
343.916	0.3377
344.254	0.3383
344.592	0.3385
344.93	0.3399
345.268	0.3398
345.605	0.3404
345.943	0.3408
346.28	0.3422
346.618	0.3421
346.955	0.3416
347.292	0.3421
347.629	0.3427
347.966	0.3433
348.303	0.3437
348.64	0.3435
348.977	0.3431
349.314	0.3446
349.65	0.3435
349.987	0.3446
350.324	0.3427
350.66	0.3439
350.996	0.3431
351.333	0.3428
351.669	0.3423
352.005	0.3409
352.341	0.3397
352.677	0.3395
353.013	0.3377
353.349	0.3362
353.685	0.3348
354.02	0.334
354.356	0.3333
354.691	0.3323
355.027	0.3308
355.362	0.3287
355.697	0.3285
356.033	0.326
356.368	0.3244
356.703	0.3237
357.038	0.3225
357.373	0.3207
357.707	0.3203
358.042	0.3185
358.377	0.3171
358.711	0.3156
359.046	0.3148
359.38	0.313
359.715	0.3124
360.049	0.3101
360.383	0.3079
360.717	0.3072
361.051	0.3045
361.385	0.3023
361.719	0.3006
362.053	0.2976
362.387	0.2944
362.72	0.2923
363.054	0.2907
363.387	0.2884
363.721	0.2853
364.054	0.283
364.387	0.2803
364.721	0.278
365.054	0.2755
365.387	0.2727
365.72	0.2706
366.053	0.2684
366.385	0.267
366.718	0.2644
367.051	0.2615
367.383	0.2595
367.716	0.2573
368.048	0.2561
368.381	0.2533
368.713	0.251
369.045	0.2497
369.377	0.2484
369.709	0.2461
370.041	0.2444
370.373	0.2418
370.705	0.2394
371.037	0.2368
371.368	0.2353
371.7	0.2326
372.031	0.2303
372.363	0.2282
372.694	0.2254
373.025	0.2232
373.356	0.2194
373.688	0.2173
374.019	0.2141
374.35	0.211
374.68	0.2092
375.011	0.2056
375.342	0.203
375.673	0.2
376.003	0.198
376.334	0.1941
376.664	0.1922
376.995	0.1895
377.325	0.188
377.655	0.1861
377.985	0.1831
378.315	0.1808
378.645	0.1791
378.975	0.1773
379.305	0.1754
379.635	0.1731
379.964	0.1718
380.294	0.1701
380.623	0.168
380.953	0.1657
381.282	0.1644
381.611	0.1616
381.941	0.1606
382.27	0.1586
382.599	0.1571
382.928	0.1544
383.257	0.1528
383.585	0.1502
383.914	0.1484
384.243	0.1467
384.571	0.1439
384.9	0.1417
385.228	0.1392
385.557	0.137
385.885	0.1347
386.213	0.1322
386.541	0.1303
386.869	0.1277
387.197	0.126
387.525	0.1224
387.853	0.1214
388.181	0.1189
388.508	0.117
388.836	0.1139
389.164	0.1131
389.491	0.1124
389.818	0.1106
390.146	0.1076
390.473	0.1059
390.8	0.1048
391.127	0.1031
391.454	0.1018
391.781	0.1001
392.108	0.0989
392.435	0.0976
392.761	0.0959
393.088	0.0943
393.415	0.0937
393.741	0.093
394.067	0.0911
394.394	0.0896
394.72	0.0883
395.046	0.088
395.372	0.0867
395.698	0.085
396.024	0.084
396.35	0.0828
396.676	0.0814
397.001	0.0806
397.327	0.0786
397.653	0.0777
397.978	0.0757
398.303	0.0753
398.629	0.0742
398.954	0.0736
399.279	0.0728
399.604	0.0706
399.929	0.0696
400.254	0.069
400.579	0.0689
400.904	0.067
401.229	0.0666
401.553	0.0654
401.878	0.0648
402.202	0.0635
402.527	0.0631
402.851	0.0625
403.175	0.0615
403.5	0.0611
403.824	0.0601
404.148	0.0595
404.472	0.0601
404.796	0.0589
405.119	0.0589
405.443	0.0576
405.767	0.0579
406.09	0.0579
406.414	0.0569
406.737	0.0568
407.061	0.0571
407.384	0.0567
407.707	0.0562
408.03	0.0555
408.353	0.0555
408.676	0.0551
408.999	0.0552
409.322	0.055
409.645	0.0549
409.968	0.0544
410.29	0.0543
410.613	0.0539
410.935	0.0547
411.258	0.0543
411.58	0.0542
411.902	0.0539
412.224	0.054
412.546	0.0541
412.868	0.054
413.19	0.0539
413.512	0.0534
413.834	0.0533
414.156	0.0536
414.477	0.0535
414.799	0.0525
415.121	0.0534
415.442	0.0536
415.763	0.054
416.085	0.0536
416.406	0.0535
416.727	0.0532
417.048	0.0535
417.369	0.0537
417.69	0.0543
418.011	0.0539
418.331	0.0544
418.652	0.0543
418.973	0.0548
419.293	0.0541
419.614	0.0548
419.934	0.0556
420.254	0.0548
420.574	0.055
420.895	0.0541
421.215	0.0547
421.535	0.0543
421.855	0.0544
422.174	0.0545
422.494	0.0549
422.814	0.0552
423.134	0.0554
423.453	0.0556
423.773	0.0552
424.092	0.0556
424.411	0.055
424.731	0.0562
425.05	0.0555
425.369	0.0563
425.688	0.0565
426.007	0.0567
426.326	0.0564
426.644	0.0565
426.963	0.0567
427.282	0.057
427.6	0.0563
427.919	0.057
428.237	0.0569
428.556	0.0578
428.874	0.0568
429.192	0.0584
429.51	0.0575
429.828	0.0577
430.146	0.0573
430.464	0.0582
430.782	0.0579
431.1	0.0577
431.418	0.058
431.735	0.0583
432.053	0.0582
432.37	0.0579
432.688	0.0577
433.005	0.0581
433.322	0.0589
433.639	0.0582
433.957	0.059
434.274	0.0587
434.591	0.0594
434.907	0.059
435.224	0.06
435.541	0.0591
435.858	0.0603
436.174	0.0598
436.491	0.0593
436.807	0.0591
437.124	0.0594
437.44	0.0594
437.756	0.059
438.072	0.0588
438.388	0.0589
438.704	0.0591
439.02	0.0584
439.336	0.0589
439.652	0.0592
439.968	0.0594
440.283	0.0595
440.599	0.0596
440.914	0.0588
441.23	0.0586
441.545	0.0584
441.86	0.0585
442.175	0.059
442.491	0.0588
442.806	0.0589
443.121	0.06
443.435	0.0591
443.75	0.0592
444.065	0.0591
444.38	0.0594
444.694	0.0594
445.009	0.0588
445.323	0.0589
445.638	0.0584
445.952	0.0578
446.266	0.0585
446.58	0.0582
446.894	0.0585
447.208	0.0578
447.522	0.0577
447.836	0.0581
448.15	0.0572
448.464	0.0577
448.777	0.0577
449.091	0.0572
449.404	0.0569
449.718	0.0568
450.031	0.057
450.345	0.0568
450.658	0.0569
450.971	0.0574
451.284	0.0568
451.597	0.0574
451.91	0.057
452.223	0.0559
452.535	0.0566
452.848	0.0572
453.161	0.0563
453.473	0.0562
453.786	0.0566
454.098	0.0559
454.411	0.0566
454.723	0.0559
455.035	0.0559
455.347	0.0553
455.659	0.0547
455.971	0.054
456.283	0.0545
456.595	0.0538
456.907	0.0539
457.218	0.0545
457.53	0.0539
457.841	0.0532
458.153	0.0533
458.464	0.0527
458.776	0.0537
459.087	0.0521
459.398	0.0522
459.709	0.0519
460.02	0.0525
460.331	0.0525
460.642	0.0517
460.953	0.0524
461.263	0.0517
461.574	0.0515
461.885	0.0509
462.195	0.0513
462.506	0.0511
462.816	0.0514
463.126	0.0503
463.437	0.0499
463.747	0.0504
464.057	0.0499
464.367	0.0495
464.677	0.0493
464.987	0.0488
465.296	0.049
465.606	0.0482
465.916	0.0479
466.225	0.048
466.535	0.0483
466.844	0.0475
467.154	0.0474
467.463	0.0469
467.772	0.0462
468.081	0.0468
468.39	0.0462
468.699	0.0459
469.008	0.0462
469.317	0.0463
469.626	0.0449
469.935	0.0453
470.243	0.0441
470.552	0.0442
470.86	0.0434
471.169	0.043
471.477	0.0436
471.785	0.0429
472.093	0.0433
472.402	0.0425
472.71	0.0424
473.018	0.0421
473.326	0.0413
473.633	0.0415
473.941	0.0402
474.249	0.0405
474.556	0.0404
474.864	0.0402
475.171	0.0395
475.479	0.0395
475.786	0.0389
476.094	0.0396
476.401	0.0396
476.708	0.0391
477.015	0.0388
477.322	0.0382
477.629	0.0381
477.936	0.0373
478.242	0.0373
478.549	0.0368
478.856	0.037
479.162	0.0368
479.469	0.0361
479.775	0.0358
480.081	0.0356
480.388	0.0349
480.694	0.035
481	0.0353
481.306	0.0354
481.612	0.0349
481.918	0.0352
482.224	0.0341
482.53	0.0336
482.835	0.0337
483.141	0.0333
483.446	0.0329
483.752	0.0328
484.057	0.0325
484.363	0.0322
484.668	0.0315
484.973	0.0307
485.278	0.0321
485.583	0.031
485.888	0.0295
486.193	0.0292
486.498	0.0312
486.803	0.0313
487.107	0.0282
487.412	0.0279
487.717	0.0282
488.021	0.0281
488.325	0.0275
488.63	0.028
488.934	0.0277
489.238	0.0272
489.542	0.0265
489.846	0.0273
490.15	0.0259
490.454	0.0254
490.758	0.0262
491.062	0.0259
491.366	0.0253
491.669	0.0246
491.973	0.025
492.276	0.0249
492.58	0.0257
492.883	0.0244
493.186	0.024
493.489	0.0244
493.792	0.0237
494.096	0.0233
494.399	0.0239
494.701	0.0229
495.004	0.0221
495.307	0.0225
495.61	0.023
495.912	0.0215
496.215	0.0219
496.517	0.0212
496.82	0.0218
497.122	0.0209
497.424	0.0219
497.727	0.0207
498.029	0.0201
498.331	0.0189
498.633	0.02
498.935	0.0196
499.237	0.019
499.538	0.0189
499.84	0.0196
500.142	0.0187
500.443	0.0193
500.745	0.0183
501.046	0.0182
501.348	0.0182
501.649	0.0185
501.95	0.0184
502.251	0.0175
502.552	0.0165
502.853	0.0166
503.154	0.0169
503.455	0.0174
503.756	0.0157
504.057	0.0165
504.357	0.016
504.658	0.0165
504.958	0.0157
505.259	0.0158
505.559	0.0162
505.859	0.0162
506.16	0.0153
506.46	0.0143
506.76	0.0147
507.06	0.0147
507.36	0.0155
507.66	0.0146
507.96	0.0132
508.259	0.0125
508.559	0.0137
508.859	0.0135
509.158	0.0131
509.457	0.0128
509.757	0.0127
510.056	0.0113
510.355	0.0127
510.655	0.0123
510.954	0.0118
511.253	0.0124
511.552	0.0108
511.851	0.0103
512.149	0.0103
512.448	0.0114
512.747	0.0103
513.045	0.0115
513.344	0.0106
513.642	0.0119
513.941	0.0107
514.239	0.0109
514.537	0.0107
514.836	0.0113
515.134	0.0102
515.432	0.0097
515.73	0.0095
516.028	0.0088
516.326	0.0093
516.623	0.0091
516.921	0.0094
517.219	0.0103
517.516	0.0096
517.814	0.0083
518.111	0.0082
518.409	0.0077
518.706	0.0093
519.003	0.0072
519.3	0.0082
519.597	0.0078
519.894	0.0085
520.191	0.0081
520.488	0.0085
520.785	0.0078
521.082	0.0077
521.378	0.0072
521.675	0.0072
521.971	0.0072
522.268	0.007
522.564	0.0064
522.861	0.0066
523.157	0.0064
523.453	0.0074
523.749	0.0055
524.045	0.0059
524.341	0.0065
524.637	0.0067
524.933	0.0061
525.229	0.0065
525.524	0.0055
525.82	0.0052
526.115	0.0052
526.411	0.0058
526.706	0.0054
527.002	0.0046
527.297	0.0049
527.592	0.0054
527.887	0.0049
528.182	0.004
528.477	0.0046
528.772	0.0039
529.067	0.0048
529.362	0.0038
529.657	0.0044
529.951	0.0043
530.246	0.0052
530.54	0.0041
530.835	0.004
531.129	0.0057
531.423	0.0036
531.718	0.0043
532.012	0.0038
532.306	0.0037
532.6	0.0041
532.894	0.0042
533.188	0.0034
533.482	0.0045
533.775	0.004
534.069	0.0032
534.363	0.0016
534.656	0.0042
534.95	0.0027
535.243	0.0026
535.536	0.0034
535.83	0.0017
536.123	0.0042
536.416	0.0041
536.709	0.0023
537.002	0.002
537.295	0.0022
537.588	0.002
537.881	0.0018
538.173	0.0027
538.466	0.0025
538.759	0.0014
539.051	0.0018
539.344	0.0024
539.636	0.0025
539.928	0.0022
540.22	0.0024
540.513	0.0023
540.805	0.0018
541.097	0.0025
541.389	0.0019
541.681	0.0035
541.972	0.0022
542.264	0.0025
542.556	0.0027
542.847	0.0015
543.139	0.0011
543.431	0.0028
543.722	0.0016
544.013	0.0019
544.305	0.002
544.596	0.0008
544.887	0.0011
545.178	0.0007
545.469	0.0007
545.76	0.0023
546.051	0.0023
546.342	0.0008
546.632	0.0025
546.923	0.0014
547.214	0.001
547.504	0.0015
547.795	0.0011
548.085	0.0014
548.375	0.0011
548.666	0.0004
548.956	0.0023
549.246	0.0008
549.536	0.0011
549.826	0.0016
550.116	0.0008
550.406	0.0012
550.695	0.0013
550.985	0.0016
551.275	0.0008
551.564	0.0008
551.854	0.0016
552.143	0.0014
552.433	0.0005
552.722	0.0001
553.011	0.0007
553.3	0.0022
553.589	0.0019
553.879	-0.0006
554.167	0.0005
554.456	0.0002
554.745	0.0016
555.034	0.0004
555.323	-0.0006
555.611	0.0006
555.9	0.0002
556.188	-0.0001
556.477	0.0006
556.765	0.0015
557.053	0.0015
557.342	0.0007
557.63	0.001
557.918	0.0012
558.206	0.0015
558.494	0.0028
558.782	0.0018
559.069	0.0023
559.357	0.0016
559.645	0.0017
559.932	0.0016
560.22	0.0021
560.507	0.0006
560.795	0.0016
561.082	0.0005
561.37	0.0012
561.657	0.002
561.944	0.0003
562.231	0.0009
562.518	-0.0001
562.805	-0.0005
563.092	-0.0004
563.379	-0
563.665	0.0012
563.952	0.001
564.239	0.0013
564.525	0.0015
564.811	0.002
565.098	0.0014
565.384	0.0009
565.67	0.001
565.957	0.0029
566.243	0.0008
566.529	0.0017
566.815	0.0014
567.101	0.0005
567.387	0.0013
567.672	0.0003
567.958	0.0014
568.244	0.0009
568.529	0.001
568.815	0.0005
569.1	0.0007
569.386	0.0018
569.671	0.0025
569.956	0.0006
570.242	0.0015
570.527	0.0021
570.812	0.0017
571.097	0.0016
571.382	0.0022
571.666	0.0022
571.951	0.0019
572.236	0.0026
572.521	0.0028
572.805	0.0026
573.09	0.0001
573.374	0.0005
573.659	0.0021
573.943	0.0024
574.227	0.0018
574.511	0.002
574.795	0.0026
575.079	0.0019
575.363	0.0012
575.647	0.0022
575.931	0.0017
576.215	0.0002
576.499	0
576.782	0.0017
577.066	0.0004
577.349	0.0012
577.633	0.0011
577.916	0.0009
578.2	0.002
578.483	0.0033
578.766	0.0027
579.049	0.0027
579.332	0.0022
579.615	0.001
579.898	0.0017
580.181	0.0022
580.464	0.0016
580.746	0.0008
581.029	0.003
581.312	0.0013
581.594	0.0001
581.877	0.0024
582.159	0.0029
582.441	0.0018
582.724	0.0028
583.006	0.0025
583.288	0.001
583.57	0.0027
583.852	0.0015
584.134	0.0009
584.416	0.0007
584.697	0.0011
584.979	0.0013
585.261	0.0004
585.542	0.0017
585.824	0.0016
586.105	0.002
586.387	0.0019
586.668	0.0005
586.949	0.0001
587.231	0.0012
587.512	0.001
587.793	0.0015
588.074	0.0022
588.355	0.001
588.636	0.0013
588.916	0.0019
589.197	0.0024
589.478	0.0014
589.758	0.0015
590.039	0.0008
590.319	0.0014
590.6	0.0005
590.88	0.0001
591.16	-0
591.441	-0.0001
591.721	0.0005
592.001	-0.0004
592.281	0.0007
592.561	0.001
592.841	-0.0002
593.12	0.0013
593.4	0.0014
593.68	0.0005
593.959	0.0015
594.239	0.002
594.518	0.0024
594.798	0.0002
595.077	0.001
595.356	0.001
595.636	0.0006
595.915	0.0007
596.194	0.0012
596.473	0.0003
596.752	0.0006
597.031	-0.0007
597.31	0.0004
597.588	0.001
597.867	0.0007
598.146	0.0014
598.424	0.0006
598.703	-0.0005
598.981	-0.0001
599.259	0.0005
599.538	0.0021
599.816	0.001
600.094	-0.0001
600.372	0.0014
600.65	0.0014
600.928	0.0003
601.206	-0.0012
601.484	0.0002
601.762	-0.0007
602.04	-0.0017
602.317	-0.0004
602.595	0.0002
602.872	-0.0002
603.15	-0.0006
603.427	0.0004
603.704	0.0014
603.982	0.0012
604.259	0.0004
604.536	0.0008
604.813	0.001
605.09	-0.0004
605.367	-0.0007
605.644	-0.0002
605.921	-0.0008
606.197	-0.0016
606.474	0.0009
606.751	-0.0015
607.027	0.0002
607.304	-0.0003
607.58	0.0002
607.856	-0.0006
608.133	0
608.409	-0.0007
608.685	-0.0007
608.961	-0.0006
609.237	-0.0007
609.513	-0.0005
609.789	-0.0017
610.065	-0.0014
610.341	-0.001
610.616	0.0003
610.892	-0.0005
611.167	-0.0004
611.443	0.0006
611.718	0
611.994	0.0007
612.269	0.0009
612.544	-0.0004
612.819	-0.0001
613.095	0
613.37	0.0004
613.645	0.0009
613.919	0.0019
614.194	0.0014
614.469	0.0007
614.744	-0.0003
615.019	0.0005
615.293	0.0005
615.568	-0.0005
615.842	-0.0006
616.116	-0.0007
616.391	-0.0011
616.665	-0.002
616.939	-0.001
617.213	-0.0001
617.488	-0.0004
617.762	-0.0012
618.035	-0.0012
618.309	-0.0014
618.583	-0.0007
618.857	-0.0006
619.131	-0.0011
619.404	-0.0018
619.678	-0.0007
619.951	-0.0023
620.225	-0.0008
620.498	-0.0004
620.771	-0.0015
621.045	-0.0007
621.318	-0.0003
621.591	-0.0024
621.864	-0.0014
622.137	0.0001
622.41	-0.0001
622.683	-0.0002
622.956	-0.0013
623.228	-0.0016
623.501	-0.0003
623.774	-0.0026
624.046	-0.0015
624.319	-0.0009
624.591	-0.0024
624.863	-0.001
625.136	-0.0016
625.408	-0.002
625.68	-0.0027
625.952	-0.0012
626.224	-0.0023
626.496	-0.0024
626.768	-0.0012
627.04	-0.0024
627.311	-0.0035
627.583	-0.0024
627.855	-0.0019
628.126	-0.0025
628.398	-0.0022
628.669	-0.0037
628.941	-0.0024
629.212	-0.0026
629.483	-0.0014
629.755	-0.0018
630.026	-0.0015
630.297	-0.0027
630.568	-0.0023
630.839	-0.0007
631.11	-0.0032
631.38	-0.0038
631.651	-0.0032
631.922	-0.0025
632.192	-0.0026
632.463	-0.0031
632.733	-0.0025
633.004	-0.0023
633.274	-0.0024
633.545	-0.0017
633.815	-0.0022
634.085	-0.0031
634.355	-0.0014
634.625	-0.0011
634.895	-0.0008
635.165	-0.0016
635.435	-0.0013
635.705	-0.0035
635.974	-0.0036
636.244	-0.0034
636.514	-0.0019
636.783	-0.0019
637.053	-0.0001
637.322	-0.0007
637.591	-0.0023
637.861	-0.0031
638.13	-0.0015
638.399	-0.0026
638.668	-0.002
638.937	-0.0022
639.206	-0.0006
639.475	-0.0012
639.744	-0.0016
640.013	-0.0011
640.281	-0.0003
640.55	-0.0022
640.819	-0.0008
641.087	-0.0003
641.356	-0.001
641.624	-0.0006
641.892	-0.0025
642.161	-0.0015
642.429	-0.0012
642.697	-0.0017
642.965	-0.0005
643.233	-0.0024
643.501	-0.0022
643.769	-0.0026
644.037	-0.0019
644.305	-0.0023
644.572	-0.002
644.84	-0.0041
645.108	-0.0039
645.375	-0.0048
645.643	-0.0062
645.91	-0.0043
646.177	-0.0049
646.445	-0.006
646.712	-0.0054
646.979	-0.0052
647.246	-0.0045
647.513	-0.0028
647.78	-0.0028
648.047	-0.0011
648.314	-0.0017
648.58	-0.002
648.847	-0.0011
649.114	-0.0024
649.38	-0.0036
649.647	-0.0035
649.913	-0.0038
650.18	-0.0042
650.446	-0.0049
650.712	-0.0046
650.978	-0.0044
651.245	-0.0048
651.511	-0.0036
651.777	-0.003
652.043	-0.0018
652.309	-0.0034
652.574	-0.0033
652.84	-0.0045
653.106	-0.0047
653.371	-0.0046
653.637	-0.006
653.903	-0.0041
654.168	-0.004
654.433	-0.0026
654.699	-0.002
654.964	-0.0022
655.229	-0.0032
655.494	-0.0029
655.759	-0.0065
656.024	0.0005
656.289	-0
656.554	0.0068
656.819	0.0014
657.084	-0.0017
657.349	-0.0042
657.613	-0.0037
657.878	-0.0034
658.142	-0.0039
658.407	-0.0033
658.671	-0.0027
658.936	-0.0015
659.2	-0.0021
659.464	-0.0022
659.728	-0.0024
659.992	-0.0026
660.256	-0.003
660.52	-0.0041
660.784	-0.0035
661.048	-0.003
661.312	-0.0024
661.575	-0.0035
661.839	-0.0032
662.103	-0.0031
662.366	-0.0044
662.63	-0.003
662.893	-0.0027
663.156	-0.0036
663.42	-0.0031
663.683	-0.0035
663.946	-0.0025
664.209	-0.0023
664.472	-0.0018
664.735	-0.0018
664.998	-0.0014
665.261	-0.0018
665.524	-0.0035
665.786	-0.0028
666.049	-0.0023
666.312	-0.002
666.574	-0.001
666.837	-0.0022
667.099	-0.0026
667.361	-0.0036
667.624	-0.0046
667.886	-0.0031
668.148	-0.003
668.41	-0.0032
668.672	-0.0032
668.934	-0.0023
669.196	-0.0027
669.458	-0.0021
669.72	-0.0016
669.982	-0.0025
670.243	-0.0022
670.505	-0.003
670.766	-0.0035
671.028	-0.0026
671.289	-0.0038
671.551	-0.0044
671.812	-0.0032
672.073	-0.0014
672.334	-0.0025
672.596	-0.0016
672.857	-0.0014
673.118	-0.0008
673.379	-0.0004
673.639	-0.0018
673.9	-0.0037
674.161	-0.0024
674.422	-0.0026
674.682	-0.0032
674.943	-0.0025
675.203	-0.0019
675.464	-0.0022
675.724	-0.0016
675.985	-0.0019
676.245	-0.0017
676.505	-0.0033
676.765	-0.0031
677.025	-0.0031
677.285	-0.0038
677.545	-0.0036
677.805	-0.0043
678.065	-0.0026
678.325	-0.0007
678.585	-0.0023
678.844	-0.0023
679.104	-0.0012
679.363	-0.0027
679.623	-0.0021
679.882	-0.0024
680.142	-0.0013
680.401	-0.002
680.66	-0.0014
680.919	-0.0025
681.178	-0.0021
681.437	-0.0023
681.696	-0.0026
681.955	-0.0005
682.214	-0.0016
682.473	-0.0012
682.732	-0.0034
682.99	-0.003
683.249	-0.0026
683.508	-0.0027
683.766	-0.002
684.024	-0.0014
684.283	-0.0027
684.541	-0.0022
684.799	-0.0021
685.058	-0.002
685.316	-0.0021
685.574	-0.0028
685.832	-0.0032
686.09	-0.0021
686.348	-0.0038
686.606	-0.0043
686.863	-0.0038
687.121	-0.0041
687.379	-0.0048
687.636	-0.0048
687.894	-0.0035
688.151	-0.0047
688.409	-0.0047
688.666	-0.004
688.923	-0.0036
689.181	-0.0032
689.438	-0.0025
689.695	-0.0018
689.952	-0.0004
690.209	-0.0007
690.466	-0.001
690.723	-0.0023
690.979	-0.003
691.236	-0.0033
691.493	-0.0024
691.75	-0.0027
692.006	-0.0021
692.263	-0.0034
692.519	-0.003
692.775	-0.0041
693.032	-0.0039
693.288	-0.0048
693.544	-0.0036
693.8	-0.0043
694.056	-0.0045
694.313	-0.0039
694.568	-0.0032
694.824	-0.0046
695.08	-0.0049
695.336	-0.0034
695.592	-0.0049
695.847	-0.0033
696.103	-0.0057
696.359	-0.0044
696.614	-0.0042
696.869	-0.0048
697.125	-0.0056
697.38	-0.002
697.635	-0.0026
697.891	-0.004
698.146	-0.0047
698.401	-0.0055
698.656	-0.0049
698.911	-0.0055
699.166	-0.0072
699.42	-0.0065
699.675	-0.0055
699.93	-0.0051
700.185	-0.0049
700.439	-0.0035
700.694	-0.0021
700.948	-0.0039
701.203	-0.0037
701.457	-0.0036
701.711	-0.0045
701.965	-0.0046
702.22	-0.0034
702.474	-0.0031
702.728	-0.0024
702.982	-0.0013
703.236	-0.0024
703.49	-0.0025
703.743	-0.0032
703.997	-0.0048
704.251	-0.0043
704.504	-0.0048
704.758	-0.0036
705.012	-0.0038
705.265	-0.0043
705.518	-0.0051
705.772	-0.0041
706.025	-0.0044
706.278	-0.0037
706.531	-0.0042
706.785	-0.0046
707.038	-0.0034
707.291	-0.0029
707.543	-0.0045
707.796	-0.0025
708.049	-0.0034
708.302	-0.0035
708.555	-0.0022
708.807	-0.0016
709.06	-0.0026
709.312	-0.0025
709.565	-0.0033
709.817	-0.0044
710.069	-0.0043
710.322	-0.0047
710.574	-0.0047
710.826	-0.0039
711.078	-0.0015
711.33	-0.0012
711.582	-0.0005
711.834	-0.002
712.086	-0.0031
712.338	-0.0039
712.59	-0.0047
712.841	-0.006
713.093	-0.0038
713.344	-0.0057
713.596	-0.0045
713.847	-0.0045
714.099	-0.0033
714.35	-0.005
714.601	-0.0058
714.853	-0.0046
715.104	-0.0054
715.355	-0.0064
715.606	-0.0034
715.857	-0.0051
716.108	-0.0056
716.359	-0.0054
716.609	-0.0057
716.86	-0.006
717.111	-0.0063
717.361	-0.0066
717.612	-0.0066
717.863	-0.0064
718.113	-0.0078
718.363	-0.008
718.614	-0.0059
718.864	-0.0062
719.114	-0.0067
719.364	-0.0059
719.614	-0.0064
719.865	-0.0069
720.114	-0.0082
720.364	-0.0075
720.614	-0.0067
720.864	-0.0072
721.114	-0.0051
721.364	-0.0048
721.613	-0.0042
721.863	-0.0042
722.112	-0.0044
722.362	-0.0046
722.611	-0.0047
722.86	-0.0056
723.11	-0.0064
723.359	-0.0066
723.608	-0.0061
723.857	-0.0062
724.106	-0.006
724.355	-0.0054
724.604	-0.0049
724.853	-0.0059
725.102	-0.006
725.351	-0.005
725.599	-0.0045
725.848	-0.0034
726.097	-0.0034
726.345	-0.0026
726.594	-0.0017
726.842	-0.0022
727.09	-0.0036
727.339	-0.0044
727.587	-0.0042
727.835	-0.0056
728.083	-0.0053
728.331	-0.0064
728.579	-0.0046
728.827	-0.0037
729.075	-0.0044
729.323	-0.0033
729.571	-0.0013
729.818	-0.0025
730.066	-0.0018
730.314	-0.0027
730.561	-0.0034
730.809	-0.0063
731.056	-0.0047
731.303	-0.0026
731.551	-0.0049
731.798	-0.0053
732.045	-0.0033
732.292	-0.0037
732.539	-0.0048
732.786	-0.0043
733.033	-0.0039
733.28	-0.0031
733.527	-0.004
733.774	-0.0046
734.021	-0.0032
734.267	-0.0031
734.514	-0.0035
734.76	-0.002
735.007	-0.0028
735.253	-0.0046
735.5	-0.0045
735.746	-0.0043
735.992	-0.0035
736.238	-0.0041
736.485	-0.0053
736.731	-0.0061
736.977	-0.0066
737.223	-0.0049
737.469	-0.0055
737.715	-0.0041
737.96	-0.0038
738.206	-0.0033
738.452	-0.0016
738.697	-0.0017
738.943	-0.002
739.189	-0.0028
739.434	-0.002
739.679	-0.0019
739.925	-0.0025
740.17	-0.0036
740.415	-0.0035
740.66	-0.0026
740.906	-0.0027
741.151	-0.0029
741.396	-0.0031
741.641	-0.0043
741.886	-0.0048
742.13	-0.0046
742.375	-0.0041
742.62	-0.0052
742.865	-0.0036
743.109	-0.0053
743.354	-0.0059
743.598	-0.0059
743.843	-0.0058
744.087	-0.0046
744.331	-0.005
744.576	-0.0043
744.82	-0.0065
745.064	-0.0061
745.308	-0.0062
745.552	-0.0061
745.796	-0.0052
746.04	-0.0058
746.284	-0.0053
746.528	-0.0051
746.771	-0.0059
747.015	-0.0064
747.259	-0.0067
747.502	-0.0047
747.746	-0.0042
747.989	-0.0052
748.233	-0.0056
748.476	-0.0053
748.719	-0.0068
748.963	-0.0061
749.206	-0.0052
749.449	-0.0053
749.692	-0.0034
749.935	-0.0037
750.178	-0.0044
750.421	-0.0053
750.664	-0.0068
750.906	-0.0073
751.149	-0.0082
751.392	-0.0073
751.635	-0.0068
751.877	-0.0052
752.12	-0.0062
752.362	-0.0062
752.604	-0.0066
752.847	-0.0062
753.089	-0.0053
753.331	-0.006
753.573	-0.0059
753.816	-0.0041
754.058	-0.0049
754.3	-0.0045
754.542	-0.0049
754.783	-0.0056
755.025	-0.006
755.267	-0.0075
755.509	-0.0071
755.75	-0.0079
755.992	-0.0062
756.234	-0.0066
756.475	-0.0064
756.716	-0.0053
756.958	-0.0039
757.199	-0.0028
757.44	-0.006
757.682	-0.0063
757.923	-0.0041
758.164	-0.0046
758.405	-0.0053
758.646	-0.005
758.887	-0.005
759.128	-0.0061
759.369	-0.0071
759.609	-0.0062
759.85	-0.0056
760.091	-0.0053
760.331	-0.0063
760.572	-0.0062
760.812	-0.0061
761.053	-0.0044
761.293	-0.0032
761.533	-0.0044
761.774	-0.0023
762.014	-0.0037
762.254	-0.0042
762.494	-0.0042
762.734	-0.0043
762.974	-0.0048
763.214	-0.0037
763.454	-0.0048
763.694	-0.0043
763.933	-0.0027
764.173	-0.0042
764.413	-0.0044
764.652	-0.0044
764.892	-0.0041
765.131	-0.0045
765.371	-0.0052
765.61	-0.005
765.849	-0.0066
766.089	-0.0058
766.328	-0.0069
766.567	-0.0056
766.806	-0.0066
767.045	-0.0042
767.284	-0.0046
767.523	-0.0038
767.762	-0.0052
768.001	-0.0048
768.239	-0.0051
768.478	-0.0039
768.717	-0.0046
768.955	-0.005
769.194	-0.0038
769.432	-0.0042
769.671	-0.0039
769.909	-0.0037
770.148	-0.005
770.386	-0.0032
770.624	-0.0034
770.862	-0.0028
771.1	-0.0028
771.338	-0.0032
771.576	-0.0022
771.814	-0.0028
772.052	-0.005
772.29	-0.0052
772.528	-0.005
772.765	-0.0041
773.003	-0.0033
773.24	-0.0033
773.478	-0.0036
773.716	-0.0025
773.953	-0.0027
774.19	-0.0013
774.428	-0.0008
774.665	-0
774.902	-0.0002
775.139	0.0001
775.376	-0.0017
775.613	-0.001
775.85	-0.0007
776.087	-0.0006
776.324	-0.0005
776.561	-0.0004
776.798	-0.0002
777.034	0.0014
777.271	0.0003
777.508	-0.0002
777.744	-0.0016
777.981	-0.0011
778.217	-0.0015
778.454	-0.0019
778.69	-0.0032
778.926	-0.0035
779.162	-0.0041
779.399	-0.0053
779.635	-0.0058
779.871	-0.0059
780.107	-0.0055
780.343	-0.0063
780.579	-0.0054
780.814	-0.006
781.05	-0.0057
781.286	-0.0052
781.522	-0.0031
781.757	-0.0023
781.993	-0.0018
782.228	-0.0024
782.464	-0.002
782.699	-0.0024
782.934	-0.003
783.17	-0.0018
783.405	-0.0028
783.64	-0.0026
783.875	-0.0032
784.11	-0.002
784.345	-0.0017
784.58	-0.0015
784.815	-0.0001
785.05	-0.0022
785.285	-0.002
785.52	-0.0015
785.754	-0.0014
785.989	-0.003
786.223	-0.0023
786.458	-0.0014
786.692	-0.0017
786.927	-0.0011
787.161	-0.0018
787.396	-0.0014
787.63	0.0001
787.864	-0.0012
788.098	-0.0009
788.332	-0.0015
788.566	-0.0021
788.8	-0.0019
789.034	-0.0015
789.268	-0.0002
789.502	0.0004
789.736	-0.0004
789.969	-0.0007
790.203	-0.0013
790.437	-0.0019
790.67	-0.0031
790.904	-0.0031
791.137	-0.0032
791.37	-0.0033
791.604	-0.0042
791.837	-0.0044
792.07	-0.0043
792.303	-0.0043
792.537	-0.0054
792.77	-0.0055
793.003	-0.0058
793.236	-0.0054
793.469	-0.0034
793.701	-0.0035
793.934	-0.005
794.167	-0.0042
794.4	-0.0034
794.632	-0.0024
794.865	-0.0029
795.097	-0.0041
795.33	-0.0044
795.562	-0.0038
795.795	-0.0036
796.027	-0.0048
796.259	-0.0059
796.491	-0.0055
796.724	-0.0056
796.956	-0.0047
797.188	-0.0046
797.42	-0.0047
797.652	-0.0035
797.883	-0.0047
798.115	-0.0037
798.347	-0.0045
798.579	-0.0044
798.81	-0.0055
799.042	-0.0053
799.274	-0.0048
799.505	-0.0043
799.737	-0.0033
799.968	-0.0028
800.199	-0.0023
800.431	-0.001
800.662	-0.0016
800.893	-0.0011
801.124	-0.0015
801.355	-0.0019
801.586	-0.0003
801.817	-0.0017
802.048	-0.0022
802.279	-0.0036
802.51	-0.0053
802.741	-0.0035
802.971	-0.004
803.202	-0.005
803.433	-0.0048
803.663	-0.005
803.894	-0.0041
804.124	-0.0036
804.354	-0.0043
804.585	-0.005
804.815	-0.0048
805.045	-0.0056
805.275	-0.0061
805.506	-0.0309
805.736	0.0451
805.966	0.217
806.196	0.0777
