Data from 03 0.5 mM K2Cr2O7 0.2 mM BQDS 1 M H2SO4 5 min_Absorbance_0049.txt Node
Date: Thu Dec 09 19:51:44 EST 2021
User: kwabilab-user
Spectrometer: HDX00518
Trigger mode: 0
Integration Time (sec): 5.000000E-2
Scans to average: 50
Nonlinearity correction enabled: false
Boxcar width: 0
Storing dark spectrum: false
XAxis mode: Wavelengths
Number of Pixels in Spectrum: 2068
>>>>>Begin Spectral Data<<<<<
195.27	0.5136
195.642	0.1535
196.014	0.1269
196.386	0.2894
196.758	0.041
197.129	0.0454
197.501	0.0813
197.872	0.1187
198.244	0.1393
198.615	0.141
198.986	0.1328
199.357	0.1271
199.728	0.1303
200.099	0.1368
200.47	0.1443
200.841	0.1465
201.212	0.151
201.582	0.1414
201.953	0.1329
202.323	0.1462
202.694	0.1354
203.064	0.1346
203.434	0.1516
203.804	0.1538
204.174	0.1389
204.544	0.1417
204.914	0.1542
205.284	0.1558
205.653	0.1549
206.023	0.1636
206.393	0.1735
206.762	0.1569
207.131	0.1742
207.501	0.1582
207.87	0.1617
208.239	0.13
208.608	0.1924
208.977	0.1477
209.346	0.1701
209.715	0.1643
210.083	0.1534
210.452	0.1627
210.82	0.1681
211.189	0.1934
211.557	0.1642
211.925	0.1668
212.294	0.1955
212.662	0.1868
213.03	0.1905
213.398	0.211
213.766	0.2036
214.133	0.2027
214.501	0.2152
214.869	0.2178
215.236	0.2117
215.604	0.2108
215.971	0.2372
216.338	0.278
216.705	0.2821
217.072	0.2946
217.439	0.3037
217.806	0.3441
218.173	0.3487
218.54	0.3649
218.907	0.3986
219.273	0.4303
219.64	0.4446
220.006	0.5013
220.373	0.5059
220.739	0.5474
221.105	0.6053
221.471	0.618
221.837	0.6702
222.203	0.6985
222.569	0.7434
222.935	0.7775
223.3	0.7941
223.666	0.8554
224.031	0.8871
224.397	0.9116
224.762	0.9217
225.127	0.9596
225.493	1.0015
225.858	1.0184
226.223	1.048
226.588	1.0495
226.952	1.0656
227.317	1.0723
227.682	1.0831
228.046	1.0734
228.411	1.0964
228.775	1.095
229.14	1.1026
229.504	1.1181
229.868	1.114
230.232	1.1023
230.596	1.1116
230.96	1.117
231.324	1.1009
231.688	1.0941
232.052	1.1
232.415	1.0769
232.779	1.0805
233.142	1.0745
233.505	1.063
233.869	1.0645
234.232	1.0552
234.595	1.0432
234.958	1.0393
235.321	1.0341
235.684	1.0172
236.047	1.0064
236.409	0.9994
236.772	0.9999
237.134	0.9853
237.497	0.9771
237.859	0.966
238.222	0.9625
238.584	0.9499
238.946	0.9455
239.308	0.9395
239.67	0.9324
240.032	0.9215
240.393	0.9213
240.755	0.9106
241.117	0.9088
241.478	0.8975
241.84	0.8917
242.201	0.889
242.562	0.8758
242.924	0.8777
243.285	0.8702
243.646	0.867
244.007	0.863
244.368	0.8592
244.728	0.8526
245.089	0.8519
245.45	0.8423
245.81	0.8381
246.171	0.838
246.531	0.8322
246.891	0.8363
247.252	0.8298
247.612	0.826
247.972	0.8199
248.332	0.8228
248.692	0.8206
249.051	0.8212
249.411	0.8147
249.771	0.8139
250.13	0.8122
250.49	0.8125
250.849	0.8129
251.208	0.806
251.568	0.8045
251.927	0.8067
252.286	0.8069
252.645	0.8044
253.004	0.8011
253.363	0.7992
253.721	0.8039
254.08	0.8016
254.439	0.7984
254.797	0.798
255.155	0.8005
255.514	0.7928
255.872	0.7969
256.23	0.7958
256.588	0.7985
256.946	0.7934
257.304	0.7936
257.662	0.7958
258.02	0.7951
258.377	0.791
258.735	0.7932
259.093	0.7887
259.45	0.7871
259.807	0.7884
260.165	0.7914
260.522	0.7862
260.879	0.7842
261.236	0.7825
261.593	0.7862
261.95	0.7859
262.306	0.7802
262.663	0.7783
263.02	0.7785
263.376	0.776
263.733	0.777
264.089	0.7745
264.445	0.7722
264.802	0.7718
265.158	0.7703
265.514	0.7657
265.87	0.7654
266.226	0.762
266.581	0.7621
266.937	0.7617
267.293	0.7568
267.648	0.7542
268.004	0.7504
268.359	0.7492
268.714	0.7465
269.07	0.7443
269.425	0.7441
269.78	0.7389
270.135	0.738
270.49	0.7343
270.844	0.7309
271.199	0.7282
271.554	0.724
271.908	0.7212
272.263	0.7214
272.617	0.7139
272.972	0.7111
273.326	0.7089
273.68	0.7047
274.034	0.701
274.388	0.6981
274.742	0.6928
275.096	0.6911
275.45	0.6871
275.803	0.6831
276.157	0.6771
276.51	0.6729
276.864	0.6688
277.217	0.6641
277.571	0.6617
277.924	0.6538
278.277	0.6518
278.63	0.6472
278.983	0.6403
279.336	0.637
279.688	0.6314
280.041	0.6262
280.394	0.6217
280.746	0.6158
281.099	0.6112
281.451	0.6048
281.803	0.5995
282.156	0.5932
282.508	0.5891
282.86	0.5844
283.212	0.578
283.564	0.5724
283.916	0.5659
284.267	0.5624
284.619	0.5554
284.971	0.5511
285.322	0.5462
285.673	0.5381
286.025	0.5334
286.376	0.528
286.727	0.5236
287.078	0.5147
287.429	0.5099
287.78	0.5033
288.131	0.4989
288.482	0.4914
288.833	0.4859
289.183	0.4799
289.534	0.4737
289.884	0.4677
290.235	0.4607
290.585	0.4563
290.935	0.4503
291.285	0.4439
291.635	0.437
291.985	0.432
292.335	0.4259
292.685	0.4187
293.035	0.4135
293.384	0.407
293.734	0.4007
294.083	0.396
294.433	0.3897
294.782	0.3841
295.131	0.3779
295.48	0.3723
295.829	0.3665
296.179	0.3605
296.527	0.3561
296.876	0.3486
297.225	0.3437
297.574	0.3388
297.922	0.3341
298.271	0.3283
298.619	0.323
298.968	0.3181
299.316	0.3132
299.664	0.308
300.012	0.3031
300.36	0.299
300.708	0.2932
301.056	0.2897
301.404	0.2844
301.752	0.28
302.099	0.2769
302.447	0.2723
302.794	0.2675
303.142	0.2644
303.489	0.2604
303.836	0.2568
304.183	0.2538
304.531	0.2507
304.878	0.2473
305.224	0.243
305.571	0.2408
305.918	0.2373
306.265	0.2347
306.611	0.2313
306.958	0.2296
307.304	0.2269
307.651	0.2244
307.997	0.2224
308.343	0.2212
308.689	0.2185
309.035	0.2168
309.381	0.2151
309.727	0.214
310.073	0.212
310.419	0.2108
310.764	0.2091
311.11	0.2078
311.455	0.2068
311.801	0.2064
312.146	0.2052
312.491	0.2049
312.837	0.2041
313.182	0.2031
313.527	0.2036
313.872	0.2035
314.216	0.2026
314.561	0.2028
314.906	0.2025
315.251	0.2021
315.595	0.2024
315.94	0.2031
316.284	0.2037
316.628	0.2033
316.972	0.2046
317.317	0.2053
317.661	0.2053
318.005	0.2063
318.348	0.2068
318.692	0.2074
319.036	0.2084
319.38	0.2098
319.723	0.2109
320.067	0.2123
320.41	0.2137
320.754	0.2143
321.097	0.2158
321.44	0.2174
321.783	0.2187
322.126	0.2204
322.469	0.2221
322.812	0.2241
323.155	0.2257
323.498	0.2276
323.84	0.2292
324.183	0.2317
324.525	0.2338
324.868	0.2339
325.21	0.2366
325.552	0.2383
325.894	0.24
326.236	0.2421
326.578	0.245
326.92	0.2463
327.262	0.2489
327.604	0.2502
327.946	0.253
328.287	0.2556
328.629	0.2576
328.97	0.2599
329.312	0.2621
329.653	0.2645
329.994	0.2671
330.335	0.2693
330.676	0.2712
331.017	0.2744
331.358	0.277
331.699	0.2791
332.04	0.281
332.38	0.2836
332.721	0.2856
333.061	0.2878
333.402	0.2905
333.742	0.2926
334.083	0.2958
334.423	0.2969
334.763	0.2985
335.103	0.3008
335.443	0.3028
335.783	0.3046
336.123	0.3067
336.462	0.3085
336.802	0.3093
337.141	0.3118
337.481	0.3137
337.82	0.316
338.16	0.3181
338.499	0.3191
338.838	0.3221
339.177	0.3244
339.516	0.3257
339.855	0.3269
340.194	0.3295
340.533	0.3306
340.872	0.3331
341.21	0.3349
341.549	0.3356
341.887	0.3374
342.226	0.3387
342.564	0.3393
342.902	0.3389
343.24	0.3412
343.578	0.3416
343.916	0.3418
344.254	0.3429
344.592	0.3427
344.93	0.3444
345.268	0.3444
345.605	0.3442
345.943	0.345
346.28	0.3456
346.618	0.3458
346.955	0.3458
347.292	0.3469
347.629	0.3467
347.966	0.348
348.303	0.3482
348.64	0.3478
348.977	0.3483
349.314	0.3487
349.65	0.3484
349.987	0.3485
350.324	0.3479
350.66	0.3481
350.996	0.3476
351.333	0.3464
351.669	0.3461
352.005	0.3456
352.341	0.3446
352.677	0.3429
353.013	0.3427
353.349	0.3411
353.685	0.3396
354.02	0.3383
354.356	0.3361
354.691	0.3362
355.027	0.3343
355.362	0.3334
355.697	0.3316
356.033	0.3307
356.368	0.3278
356.703	0.3273
357.038	0.3263
357.373	0.3254
357.707	0.3239
358.042	0.3236
358.377	0.3209
358.711	0.3197
359.046	0.3182
359.38	0.3167
359.715	0.3157
360.049	0.3133
360.383	0.3122
360.717	0.3099
361.051	0.3077
361.385	0.3068
361.719	0.3045
362.053	0.3012
362.387	0.2981
362.72	0.2967
363.054	0.2941
363.387	0.2916
363.721	0.2886
364.054	0.2875
364.387	0.284
364.721	0.2814
365.054	0.2795
365.387	0.2767
365.72	0.2738
366.053	0.2721
366.385	0.2704
366.718	0.2677
367.051	0.2658
367.383	0.2629
367.716	0.2613
368.048	0.2593
368.381	0.2573
368.713	0.2551
369.045	0.2532
369.377	0.252
369.709	0.249
370.041	0.2478
370.373	0.2453
370.705	0.2426
371.037	0.2406
371.368	0.238
371.7	0.2362
372.031	0.234
372.363	0.231
372.694	0.2284
373.025	0.2267
373.356	0.2225
373.688	0.2196
374.019	0.2166
374.35	0.2135
374.68	0.2112
375.011	0.2074
375.342	0.2056
375.673	0.2028
376.003	0.2004
376.334	0.1975
376.664	0.1948
376.995	0.1927
377.325	0.1905
377.655	0.1873
377.985	0.185
378.315	0.1829
378.645	0.1815
378.975	0.1792
379.305	0.177
379.635	0.1749
379.964	0.1743
380.294	0.1716
380.623	0.1711
380.953	0.1683
381.282	0.1667
381.611	0.1638
381.941	0.1631
382.27	0.1609
382.599	0.159
382.928	0.1559
383.257	0.1544
383.585	0.1528
383.914	0.1507
384.243	0.1487
384.571	0.145
384.9	0.143
385.228	0.1406
385.557	0.1382
385.885	0.1359
386.213	0.1337
386.541	0.1313
386.869	0.1287
387.197	0.1272
387.525	0.1238
387.853	0.1224
388.181	0.1203
388.508	0.1188
388.836	0.1158
389.164	0.1143
389.491	0.1137
389.818	0.111
390.146	0.1097
390.473	0.1073
390.8	0.1062
391.127	0.1044
391.454	0.1028
391.781	0.1016
392.108	0.1001
392.435	0.0982
392.761	0.0973
393.088	0.0954
393.415	0.0945
393.741	0.0937
394.067	0.0919
394.394	0.0912
394.72	0.0899
395.046	0.0889
395.372	0.0874
395.698	0.0863
396.024	0.085
396.35	0.0838
396.676	0.0825
397.001	0.0818
397.327	0.0795
397.653	0.0787
397.978	0.0766
398.303	0.0762
398.629	0.0753
398.954	0.0742
399.279	0.0735
399.604	0.0717
399.929	0.0706
400.254	0.0698
400.579	0.0691
400.904	0.0679
401.229	0.0671
401.553	0.0664
401.878	0.0652
402.202	0.0647
402.527	0.0636
402.851	0.0633
403.175	0.0621
403.5	0.0622
403.824	0.0614
404.148	0.0604
404.472	0.0605
404.796	0.0596
405.119	0.0597
405.443	0.0592
405.767	0.0586
406.09	0.0585
406.414	0.0577
406.737	0.0576
407.061	0.0578
407.384	0.0574
407.707	0.057
408.03	0.0565
408.353	0.0564
408.676	0.056
408.999	0.0561
409.322	0.0555
409.645	0.0559
409.968	0.055
410.29	0.0549
410.613	0.0549
410.935	0.0553
411.258	0.0552
411.58	0.0541
411.902	0.0545
412.224	0.0546
412.546	0.0546
412.868	0.0544
413.19	0.0544
413.512	0.0542
413.834	0.0541
414.156	0.0538
414.477	0.0545
414.799	0.0539
415.121	0.0543
415.442	0.0542
415.763	0.0547
416.085	0.0549
416.406	0.0539
416.727	0.0537
417.048	0.0544
417.369	0.0545
417.69	0.0546
418.011	0.0548
418.331	0.055
418.652	0.0552
418.973	0.055
419.293	0.0552
419.614	0.0551
419.934	0.0556
420.254	0.0556
420.574	0.0555
420.895	0.0554
421.215	0.0548
421.535	0.0548
421.855	0.0551
422.174	0.0551
422.494	0.0553
422.814	0.0562
423.134	0.0561
423.453	0.0559
423.773	0.0562
424.092	0.0562
424.411	0.0564
424.731	0.0567
425.05	0.0563
425.369	0.0566
425.688	0.0568
426.007	0.0574
426.326	0.0571
426.644	0.0574
426.963	0.0577
427.282	0.0567
427.6	0.057
427.919	0.0568
428.237	0.0577
428.556	0.0576
428.874	0.0575
429.192	0.0583
429.51	0.058
429.828	0.0583
430.146	0.0579
430.464	0.0585
430.782	0.0583
431.1	0.0574
431.418	0.0581
431.735	0.0584
432.053	0.0588
432.37	0.0586
432.688	0.0584
433.005	0.0589
433.322	0.0589
433.639	0.0586
433.957	0.0593
434.274	0.0591
434.591	0.0596
434.907	0.0591
435.224	0.06
435.541	0.0597
435.858	0.0612
436.174	0.0606
436.491	0.06
436.807	0.0597
437.124	0.0611
437.44	0.0594
437.756	0.0597
438.072	0.0592
438.388	0.0596
438.704	0.0595
439.02	0.0596
439.336	0.0591
439.652	0.0601
439.968	0.0599
440.283	0.06
440.599	0.0596
440.914	0.0598
441.23	0.0592
441.545	0.0594
441.86	0.0594
442.175	0.0595
442.491	0.0596
442.806	0.06
443.121	0.0597
443.435	0.0593
443.75	0.0601
444.065	0.0594
444.38	0.0594
444.694	0.0596
445.009	0.0595
445.323	0.0596
445.638	0.059
445.952	0.0591
446.266	0.0591
446.58	0.059
446.894	0.0588
447.208	0.0591
447.522	0.0584
447.836	0.0581
448.15	0.058
448.464	0.0575
448.777	0.0579
449.091	0.0572
449.404	0.0579
449.718	0.0573
450.031	0.0584
450.345	0.0577
450.658	0.0581
450.971	0.0574
451.284	0.0578
451.597	0.0579
451.91	0.0569
452.223	0.0567
452.535	0.0569
452.848	0.0575
453.161	0.0574
453.473	0.0568
453.786	0.0574
454.098	0.0564
454.411	0.0574
454.723	0.0562
455.035	0.0566
455.347	0.0555
455.659	0.0554
455.971	0.0548
456.283	0.0551
456.595	0.0545
456.907	0.0551
457.218	0.0546
457.53	0.0546
457.841	0.0539
458.153	0.0539
458.464	0.0528
458.776	0.0538
459.087	0.0524
459.398	0.0528
459.709	0.0524
460.02	0.0534
460.331	0.053
460.642	0.052
460.953	0.0524
461.263	0.052
461.574	0.0521
461.885	0.0519
462.195	0.0518
462.506	0.0515
462.816	0.0515
463.126	0.05
463.437	0.0497
463.747	0.0509
464.057	0.0501
464.367	0.0505
464.677	0.0491
464.987	0.0489
465.296	0.0485
465.606	0.0489
465.916	0.048
466.225	0.0481
466.535	0.0484
466.844	0.048
467.154	0.0473
467.463	0.0472
467.772	0.0463
468.081	0.047
468.39	0.0461
468.699	0.0465
469.008	0.047
469.317	0.0461
469.626	0.0459
469.935	0.046
470.243	0.0455
470.552	0.0445
470.86	0.0438
471.169	0.0437
471.477	0.0437
471.785	0.0434
472.093	0.0439
472.402	0.043
472.71	0.0428
473.018	0.0426
473.326	0.0416
473.633	0.0418
473.941	0.0415
474.249	0.0418
474.556	0.0409
474.864	0.0405
475.171	0.0403
475.479	0.04
475.786	0.0401
476.094	0.0397
476.401	0.0402
476.708	0.0392
477.015	0.0385
477.322	0.0385
477.629	0.0386
477.936	0.0384
478.242	0.0377
478.549	0.0374
478.856	0.0372
479.162	0.0371
479.469	0.0368
479.775	0.0364
480.081	0.0361
480.388	0.0353
480.694	0.0358
481	0.0355
481.306	0.0354
481.612	0.0349
481.918	0.035
482.224	0.0345
482.53	0.0337
482.835	0.0334
483.141	0.0332
483.446	0.0328
483.752	0.0326
484.057	0.032
484.363	0.0319
484.668	0.0315
484.973	0.0308
485.278	0.0316
485.583	0.0313
485.888	0.0292
486.193	0.0296
486.498	0.031
486.803	0.0313
487.107	0.0287
487.412	0.0282
487.717	0.0289
488.021	0.0287
488.325	0.0273
488.63	0.0287
488.934	0.0278
489.238	0.0275
489.542	0.0273
489.846	0.0269
490.15	0.0264
490.454	0.0264
490.758	0.0265
491.062	0.0263
491.366	0.0262
491.669	0.0251
491.973	0.0251
492.276	0.0255
492.58	0.0254
492.883	0.0253
493.186	0.0238
493.489	0.0241
493.792	0.0234
494.096	0.0237
494.399	0.0228
494.701	0.0228
495.004	0.0235
495.307	0.0226
495.61	0.0232
495.912	0.0216
496.215	0.0215
496.517	0.0208
496.82	0.0215
497.122	0.0215
497.424	0.0214
497.727	0.0205
498.029	0.021
498.331	0.0193
498.633	0.02
498.935	0.0199
499.237	0.0194
499.538	0.0199
499.84	0.0199
500.142	0.0192
500.443	0.0192
500.745	0.019
501.046	0.0179
501.348	0.0182
501.649	0.0196
501.95	0.0187
502.251	0.0182
502.552	0.0176
502.853	0.0177
503.154	0.0175
503.455	0.0179
503.756	0.0171
504.057	0.0171
504.357	0.0166
504.658	0.0167
504.958	0.0159
505.259	0.0147
505.559	0.0159
505.859	0.0156
506.16	0.0157
506.46	0.0144
506.76	0.0145
507.06	0.0143
507.36	0.0146
507.66	0.015
507.96	0.0135
508.259	0.0131
508.559	0.0137
508.859	0.0127
509.158	0.0138
509.457	0.0134
509.757	0.0123
510.056	0.0119
510.355	0.0128
510.655	0.012
510.954	0.0124
511.253	0.0124
511.552	0.0117
511.851	0.0111
512.149	0.0118
512.448	0.0111
512.747	0.0105
513.045	0.0103
513.344	0.011
513.642	0.0121
513.941	0.0104
514.239	0.0115
514.537	0.0114
514.836	0.0108
515.134	0.0107
515.432	0.0107
515.73	0.0101
516.028	0.0083
516.326	0.0095
516.623	0.0102
516.921	0.0094
517.219	0.0113
517.516	0.01
517.814	0.01
518.111	0.0094
518.409	0.0081
518.706	0.0079
519.003	0.0073
519.3	0.0081
519.597	0.0091
519.894	0.0085
520.191	0.0088
520.488	0.0084
520.785	0.008
521.082	0.0088
521.378	0.0074
521.675	0.0082
521.971	0.0076
522.268	0.0083
522.564	0.0071
522.861	0.007
523.157	0.0072
523.453	0.0077
523.749	0.0069
524.045	0.0053
524.341	0.0069
524.637	0.0058
524.933	0.0067
525.229	0.0063
525.524	0.0063
525.82	0.006
526.115	0.0051
526.411	0.0049
526.706	0.0046
527.002	0.0056
527.297	0.0055
527.592	0.0057
527.887	0.004
528.182	0.0053
528.477	0.0047
528.772	0.0032
529.067	0.0052
529.362	0.0045
529.657	0.0046
529.951	0.0052
530.246	0.0055
530.54	0.0039
530.835	0.0037
531.129	0.005
531.423	0.004
531.718	0.0046
532.012	0.0047
532.306	0.0045
532.6	0.0047
532.894	0.0038
533.188	0.0026
533.482	0.0047
533.775	0.0043
534.069	0.0036
534.363	0.004
534.656	0.0043
534.95	0.0036
535.243	0.0031
535.536	0.0043
535.83	0.002
536.123	0.0031
536.416	0.0039
536.709	0.0035
537.002	0.0031
537.295	0.0018
537.588	0.0027
537.881	0.0019
538.173	0.0034
538.466	0.0025
538.759	0.002
539.051	0.0033
539.344	0.0031
539.636	0.0033
539.928	0.0022
540.22	0.0023
540.513	0.0026
540.805	0.0021
541.097	0.0022
541.389	0.0016
541.681	0.0032
541.972	0.0027
542.264	0.0033
542.556	0.0033
542.847	0.0023
543.139	0.0019
543.431	0.0024
543.722	0.0019
544.013	0.0012
544.305	0.0023
544.596	0.001
544.887	0.0021
545.178	0.0015
545.469	0.0018
545.76	0.0024
546.051	0.0022
546.342	0.0017
546.632	0.0025
546.923	0.0018
547.214	0.0011
547.504	0.0019
547.795	0.0013
548.085	0.0023
548.375	0.0022
548.666	0.0008
548.956	0.003
549.246	0.0017
549.536	0.0026
549.826	0.0017
550.116	0.0008
550.406	0.0024
550.695	0.0023
550.985	0.0019
551.275	0.0014
551.564	0.0009
551.854	0.0015
552.143	0.0017
552.433	0.001
552.722	0.0008
553.011	0.0021
553.3	0.003
553.589	0.002
553.879	0.0005
554.167	0.0011
554.456	0.0006
554.745	0.0022
555.034	0.0003
555.323	-0.0003
555.611	0.0011
555.9	0.0009
556.188	0.0011
556.477	0.002
556.765	0.0025
557.053	0.0013
557.342	0.0017
557.63	0.0009
557.918	0.0019
558.206	0.0023
558.494	0.0028
558.782	0.0026
559.069	0.0031
559.357	0.0025
559.645	0.0026
559.932	0.0016
560.22	0.002
560.507	0.0004
560.795	0.0017
561.082	0.0003
561.37	0.0015
561.657	0.0013
561.944	0.0003
562.231	0.001
562.518	0.0017
562.805	0.0013
563.092	-0.0001
563.379	0.0001
563.665	0.0017
563.952	0.0011
564.239	0.0023
564.525	0.0009
564.811	0.0027
565.098	0.0013
565.384	0.0022
565.67	0.0016
565.957	0.0026
566.243	0.0025
566.529	0.0029
566.815	0.0018
567.101	0.0006
567.387	0.0007
567.672	0
567.958	0.0017
568.244	0.0012
568.529	0.001
568.815	0.0006
569.1	0.0014
569.386	0.0018
569.671	0.0034
569.956	0.0018
570.242	0.0018
570.527	0.0029
570.812	0.0019
571.097	0.0017
571.382	0.0023
571.666	0.0023
571.951	0.0023
572.236	0.0025
572.521	0.0026
572.805	0.0031
573.09	0.0006
573.374	0.0003
573.659	0.0031
573.943	0.0033
574.227	0.0025
574.511	0.0019
574.795	0.0025
575.079	0.0024
575.363	0.0019
575.647	0.0026
575.931	0.0017
576.215	0.0008
576.499	0.0007
576.782	0.001
577.066	0.0003
577.349	0.0021
577.633	0.0007
577.916	0.001
578.2	0.0018
578.483	0.0036
578.766	0.0026
579.049	0.0031
579.332	0.0028
579.615	0.0018
579.898	0.0015
580.181	0.0017
580.464	0.0013
580.746	0.0011
581.029	0.0022
581.312	0.0001
581.594	0.0003
581.877	0.0027
582.159	0.0023
582.441	0.0017
582.724	0.0018
583.006	0.0023
583.288	0.0014
583.57	0.0027
583.852	0.001
584.134	0.0008
584.416	0.0004
584.697	0.0005
584.979	0.0007
585.261	0.0007
585.542	0.0026
585.824	0.0012
586.105	0.0019
586.387	0.0026
586.668	0.0018
586.949	0.0011
587.231	0.001
587.512	0.0013
587.793	0.002
588.074	0.0023
588.355	0.0015
588.636	0.0011
588.916	0.0022
589.197	0.0027
589.478	0.0011
589.758	0.0012
590.039	0.0008
590.319	0.0014
590.6	0.0015
590.88	0.0007
591.16	0.0002
591.441	0.0006
591.721	0.0009
592.001	0.0004
592.281	0.0009
592.561	0.0004
592.841	-0.0007
593.12	0.0015
593.4	0.0019
593.68	0.0012
593.959	0.0016
594.239	0.0024
594.518	0.0025
594.798	-0.0004
595.077	0.0013
595.356	0.0006
595.636	0.0008
595.915	0.0016
596.194	0.0021
596.473	0.0008
596.752	0.0013
597.031	-0.0003
597.31	-0.0007
597.588	0.0011
597.867	0.0001
598.146	0.0014
598.424	0.0012
598.703	-0.0004
598.981	-0.0002
599.259	0.0014
599.538	0.002
599.816	0.0006
600.094	0.0004
600.372	0.0009
600.65	0.001
600.928	0.0008
601.206	-0.0007
601.484	0.001
601.762	0.0003
602.04	-0.0007
602.317	0.0005
602.595	0.0013
602.872	0.0008
603.15	-0.0003
603.427	0.0004
603.704	0.0019
603.982	0.0016
604.259	0.0007
604.536	0.0015
604.813	0.0015
605.09	0.0003
605.367	-0.0002
605.644	0.0009
605.921	-0.001
606.197	-0.0005
606.474	0.0011
606.751	-0.0006
607.027	0.0002
607.304	-0.0003
607.58	0.0005
607.856	0.0007
608.133	0.0009
608.409	-0.0001
608.685	-0.0002
608.961	-0.0009
609.237	0.0004
609.513	0.0005
609.789	-0.0014
610.065	-0.0009
610.341	0.0008
610.616	0.0006
610.892	0.0006
611.167	0.0007
611.443	0.0014
611.718	0.0011
611.994	0.0008
612.269	0.0018
612.544	0.0015
612.819	0.0006
613.095	0.0011
613.37	0.0014
613.645	0.002
613.919	0.002
614.194	0.0021
614.469	0.0011
614.744	-0.0001
615.019	0.0014
615.293	0.0012
615.568	0.0008
615.842	0.0005
616.116	0.0007
616.391	-0.0001
616.665	-0.0008
616.939	0.0004
617.213	0.0009
617.488	0.0002
617.762	-0.0002
618.035	-0.0005
618.309	-0.0009
618.583	0.0015
618.857	0.0005
619.131	-0.0006
619.404	-0.0003
619.678	-0.0007
619.951	-0.0011
620.225	-0.0005
620.498	0.0002
620.771	-0.0006
621.045	-0.0001
621.318	-0.0002
621.591	-0.0013
621.864	-0.0003
622.137	0.0007
622.41	0.0016
622.683	0.0016
622.956	-0.0008
623.228	-0.0004
623.501	0.0005
623.774	-0.0004
624.046	-0.0004
624.319	-0.0002
624.591	-0.0006
624.863	0
625.136	-0.0004
625.408	-0
625.68	-0.0015
625.952	-0.0005
626.224	-0.0018
626.496	-0.0023
626.768	-0.0005
627.04	-0.0017
627.311	-0.0031
627.583	-0.0016
627.855	-0.0013
628.126	-0.002
628.398	-0.0017
628.669	-0.004
628.941	-0.0032
629.212	-0.0026
629.483	-0.001
629.755	-0.0015
630.026	-0.0009
630.297	-0.0013
630.568	-0.002
630.839	-0.0005
631.11	-0.0027
631.38	-0.0026
631.651	-0.0027
631.922	-0.0027
632.192	-0.0006
632.463	-0.001
632.733	-0.0002
633.004	-0.0013
633.274	-0
633.545	-0.0007
633.815	-0.0003
634.085	-0.0011
634.355	-0.0011
634.625	0
634.895	0.0013
635.165	0.0007
635.435	0.0005
635.705	-0.0013
635.974	-0.0015
636.244	-0.0012
636.514	-0.0002
636.783	-0.0002
637.053	0.0012
637.322	0.0004
637.591	-0.0015
637.861	-0.0018
638.13	-0.0009
638.399	-0.0006
638.668	-0.0014
638.937	-0.0017
639.206	-0.0006
639.475	-0.0011
639.744	-0.0016
640.013	-0.0002
640.281	-0.0002
640.55	-0.0014
640.819	-0
641.087	-0.0001
641.356	-0
641.624	0.0002
641.892	-0.0009
642.161	-0.0014
642.429	0.0005
642.697	-0.0009
642.965	-0.0008
643.233	-0.0016
643.501	-0.0016
643.769	-0.0019
644.037	-0.001
644.305	-0.0012
644.572	-0.0009
644.84	-0.0025
645.108	-0.003
645.375	-0.0038
645.643	-0.0048
645.91	-0.0032
646.177	-0.0036
646.445	-0.0046
646.712	-0.0043
646.979	-0.0033
647.246	-0.0026
647.513	-0.0019
647.78	-0.0006
648.047	-0.0004
648.314	-0.0003
648.58	-0.001
648.847	-0.0001
649.114	-0.0018
649.38	-0.0025
649.647	-0.0014
649.913	-0.0023
650.18	-0.0033
650.446	-0.004
650.712	-0.0042
650.978	-0.0036
651.245	-0.0026
651.511	-0.0029
651.777	-0.002
652.043	-0.0023
652.309	-0.0028
652.574	-0.0029
652.84	-0.0034
653.106	-0.0034
653.371	-0.0029
653.637	-0.0049
653.903	-0.0025
654.168	-0.0029
654.433	-0.0014
654.699	-0.0012
654.964	-0.0009
655.229	-0.0012
655.494	-0.0029
655.759	-0.008
656.024	0.001
656.289	-0
656.554	0.0067
656.819	0.0014
657.084	-0.0009
657.349	-0.0036
657.613	-0.0025
657.878	-0.0025
658.142	-0.003
658.407	-0.0022
658.671	-0.0022
658.936	-0.0012
659.2	-0.0014
659.464	-0.0022
659.728	-0.0024
659.992	-0.0028
660.256	-0.0015
660.52	-0.0025
660.784	-0.002
661.048	-0.0023
661.312	-0.0022
661.575	-0.003
661.839	-0.003
662.103	-0.0032
662.366	-0.0032
662.63	-0.0027
662.893	-0.0021
663.156	-0.0015
663.42	-0.0013
663.683	-0.0016
663.946	-0.0018
664.209	-0.0017
664.472	-0.0016
664.735	-0.0005
664.998	-0.0016
665.261	-0.0022
665.524	-0.0023
665.786	-0.0023
666.049	-0.0011
666.312	-0.0012
666.574	0.0003
666.837	-0.0017
667.099	-0.0004
667.361	-0.0025
667.624	-0.0034
667.886	-0.0024
668.148	-0.0026
668.41	-0.002
668.672	-0.002
668.934	-0.0019
669.196	-0.0022
669.458	-0.0008
669.72	-0.0016
669.982	-0.0025
670.243	-0.0025
670.505	-0.0021
670.766	-0.0025
671.028	-0.0015
671.289	-0.0032
671.551	-0.0047
671.812	-0.0027
672.073	-0.0012
672.334	-0.0018
672.596	-0.0014
672.857	-0.0003
673.118	-0.0001
673.379	-0.0003
673.639	-0.0009
673.9	-0.0019
674.161	-0.0021
674.422	-0.002
674.682	-0.0027
674.943	-0.002
675.203	-0.002
675.464	-0.0018
675.724	-0.0011
675.985	-0.0008
676.245	-0.0012
676.505	-0.0023
676.765	-0.001
677.025	-0.0008
677.285	-0.0012
677.545	-0.0015
677.805	-0.002
678.065	-0.0009
678.325	0.0008
678.585	-0.0003
678.844	-0.0006
679.104	-0.0001
679.363	-0.0015
679.623	-0.0007
679.882	-0.001
680.142	-0.0001
680.401	-0.0005
680.66	-0.0001
680.919	-0.001
681.178	-0.0001
681.437	-0.0014
681.696	-0.001
681.955	-0.0006
682.214	-0.0004
682.473	-0.0018
682.732	-0.0006
682.99	-0.0031
683.249	-0.002
683.508	-0.0019
683.766	-0.0012
684.024	-0.0002
684.283	-0.0013
684.541	-0.0011
684.799	-0.0001
685.058	-0.0008
685.316	-0.001
685.574	-0.0012
685.832	-0.0016
686.09	-0.0006
686.348	-0.0026
686.606	-0.0026
686.863	-0.0026
687.121	-0.0028
687.379	-0.004
687.636	-0.0031
687.894	-0.0016
688.151	-0.0021
688.409	-0.0023
688.666	-0.0013
688.923	-0.002
689.181	-0.0014
689.438	-0.0003
689.695	-0.0007
689.952	0.0017
690.209	0.0012
690.466	0.0011
690.723	-0.0004
690.979	-0.0017
691.236	-0.0022
691.493	-0.0012
691.75	-0.0016
692.006	-0.0017
692.263	-0.002
692.519	-0.0025
692.775	-0.0028
693.032	-0.0027
693.288	-0.0031
693.544	-0.0031
693.8	-0.0022
694.056	-0.0027
694.313	-0.0031
694.568	-0.0024
694.824	-0.0032
695.08	-0.0036
695.336	-0.0039
695.592	-0.004
695.847	-0.0029
696.103	-0.0048
696.359	-0.0036
696.614	-0.0033
696.869	-0.0039
697.125	-0.0045
697.38	-0.0007
697.635	-0.0013
697.891	-0.0021
698.146	-0.0042
698.401	-0.0044
698.656	-0.0035
698.911	-0.0032
699.166	-0.0056
699.42	-0.0042
699.675	-0.0038
699.93	-0.0038
700.185	-0.0035
700.439	-0.0019
700.694	-0.0021
700.948	-0.0023
701.203	-0.0026
701.457	-0.0022
701.711	-0.0024
701.965	-0.0023
702.22	-0.0009
702.474	-0.0012
702.728	-0.0004
702.982	0.0006
703.236	0.0005
703.49	0.0001
703.743	-0.0015
703.997	-0.0027
704.251	-0.0026
704.504	-0.0037
704.758	-0.0016
705.012	-0.0019
705.265	-0.0019
705.518	-0.0028
705.772	-0.0024
706.025	-0.0021
706.278	-0.0029
706.531	-0.0026
706.785	-0.0034
707.038	-0.0023
707.291	-0.0015
707.543	-0.0034
707.796	-0.0014
708.049	-0.0028
708.302	-0.0014
708.555	-0.0006
708.807	-0.0002
709.06	-0.0017
709.312	-0.0009
709.565	-0.0012
709.817	-0.0031
710.069	-0.002
710.322	-0.0029
710.574	-0.002
710.826	-0.0017
711.078	0.0001
711.33	0.0009
711.582	0.0008
711.834	-0.0008
712.086	-0.0014
712.338	-0.0021
712.59	-0.0033
712.841	-0.0062
713.093	-0.0027
713.344	-0.0048
713.596	-0.0046
713.847	-0.0029
714.099	-0.0025
714.35	-0.0038
714.601	-0.0055
714.853	-0.004
715.104	-0.004
715.355	-0.0049
715.606	-0.0022
715.857	-0.0039
716.108	-0.0042
716.359	-0.0048
716.609	-0.0047
716.86	-0.0056
717.111	-0.005
717.361	-0.0061
717.612	-0.0062
717.863	-0.0062
718.113	-0.0076
718.363	-0.0071
718.614	-0.0049
718.864	-0.0054
719.114	-0.006
719.364	-0.0057
719.614	-0.0058
719.865	-0.0056
720.114	-0.0075
720.364	-0.0068
720.614	-0.0068
720.864	-0.0063
721.114	-0.0049
721.364	-0.0039
721.613	-0.0037
721.863	-0.0032
722.112	-0.0029
722.362	-0.0039
722.611	-0.0035
722.86	-0.0042
723.11	-0.0056
723.359	-0.0051
723.608	-0.0059
723.857	-0.005
724.106	-0.0046
724.355	-0.0042
724.604	-0.0049
724.853	-0.0047
725.102	-0.0053
725.351	-0.0037
725.599	-0.003
725.848	-0.0022
726.097	-0.0018
726.345	-0.0015
726.594	-0.0003
726.842	-0.0011
727.09	-0.0031
727.339	-0.0042
727.587	-0.0039
727.835	-0.006
728.083	-0.0053
728.331	-0.0063
728.579	-0.0046
728.827	-0.0028
729.075	-0.0034
729.323	-0.0018
729.571	-0.0016
729.818	-0.0023
730.066	-0.0009
730.314	-0.0014
730.561	-0.0017
730.809	-0.0059
731.056	-0.0042
731.303	-0.0013
731.551	-0.0028
731.798	-0.0045
732.045	-0.0022
732.292	-0.0015
732.539	-0.0032
732.786	-0.0034
733.033	-0.0027
733.28	-0.002
733.527	-0.003
733.774	-0.0038
734.021	-0.003
734.267	-0.0029
734.514	-0.0029
734.76	-0.0011
735.007	-0.0026
735.253	-0.0046
735.5	-0.0043
735.746	-0.0039
735.992	-0.003
736.238	-0.0037
736.485	-0.0049
736.731	-0.0061
736.977	-0.0064
737.223	-0.0043
737.469	-0.0048
737.715	-0.0029
737.96	-0.0019
738.206	-0.001
738.452	0.0006
738.697	0.0003
738.943	-0.0002
739.189	-0.0015
739.434	-0.0008
739.679	-0.0002
739.925	-0.0002
740.17	-0.0016
740.415	-0.0008
740.66	-0.0009
740.906	-0.0007
741.151	0.0001
741.396	-0.001
741.641	-0.001
741.886	-0.0021
742.13	-0.0012
742.375	-0.0013
742.62	-0.0037
742.865	-0.0026
743.109	-0.0032
743.354	-0.0042
743.598	-0.0038
743.843	-0.0044
744.087	-0.0028
744.331	-0.0038
744.576	-0.0034
744.82	-0.0049
745.064	-0.0039
745.308	-0.0036
745.552	-0.0043
745.796	-0.0042
746.04	-0.0031
746.284	-0.0038
746.528	-0.003
746.771	-0.0034
747.015	-0.0032
747.259	-0.0035
747.502	-0.0016
747.746	-0.0021
747.989	-0.0035
748.233	-0.0038
748.476	-0.0038
748.719	-0.0051
748.963	-0.0042
749.206	-0.0034
749.449	-0.0035
749.692	-0.0017
749.935	-0.0009
750.178	-0.0027
750.421	-0.0045
750.664	-0.0055
750.906	-0.0063
751.149	-0.0062
751.392	-0.0061
751.635	-0.0048
751.877	-0.0038
752.12	-0.0049
752.362	-0.0059
752.604	-0.0052
752.847	-0.0054
753.089	-0.004
753.331	-0.0049
753.573	-0.0049
753.816	-0.0025
754.058	-0.0036
754.3	-0.0027
754.542	-0.0022
754.783	-0.0038
755.025	-0.0037
755.267	-0.0044
755.509	-0.0043
755.75	-0.0051
755.992	-0.0038
756.234	-0.0041
756.475	-0.004
756.716	-0.0032
756.958	-0.0023
757.199	-0.0018
757.44	-0.0049
757.682	-0.0056
757.923	-0.0025
758.164	-0.0033
758.405	-0.0039
758.646	-0.0033
758.887	-0.003
759.128	-0.0047
759.369	-0.0058
759.609	-0.0055
759.85	-0.0047
760.091	-0.0039
760.331	-0.0046
760.572	-0.0044
760.812	-0.0034
761.053	-0.002
761.293	-0.0014
761.533	-0.0022
761.774	-0.0005
762.014	-0.0011
762.254	-0.0022
762.494	-0.0022
762.734	-0.0028
762.974	-0.0027
763.214	-0.0022
763.454	-0.0032
763.694	-0.0029
763.933	-0.0011
764.173	-0.0015
764.413	-0.0026
764.652	-0.0026
764.892	-0.0022
765.131	-0.0036
765.371	-0.0028
765.61	-0.0039
765.849	-0.0045
766.089	-0.0045
766.328	-0.0047
766.567	-0.0047
766.806	-0.0049
767.045	-0.0032
767.284	-0.0033
767.523	-0.0031
767.762	-0.0037
768.001	-0.004
768.239	-0.0039
768.478	-0.0032
768.717	-0.0031
768.955	-0.0037
769.194	-0.0019
769.432	-0.0021
769.671	-0.0018
769.909	-0.0014
770.148	-0.0029
770.386	-0.0023
770.624	-0.0025
770.862	-0.0019
771.1	-0.0014
771.338	-0.0021
771.576	-0.0007
771.814	-0.002
772.052	-0.0033
772.29	-0.0035
772.528	-0.0037
772.765	-0.0028
773.003	-0.0026
773.24	-0.0023
773.478	-0.0023
773.716	-0.0011
773.953	-0.001
774.19	0.0003
774.428	0.0009
774.665	0.0015
774.902	0.001
775.139	0.0012
775.376	0.0005
775.613	0.0009
775.85	0.0017
776.087	0.0019
776.324	0.0018
776.561	0.0021
776.798	0.0019
777.034	0.0038
777.271	0.0016
777.508	0.0017
777.744	0.001
777.981	0.001
778.217	0.0006
778.454	0.0012
778.69	-0.0006
778.926	-0.0005
779.162	-0.002
779.399	-0.0033
779.635	-0.0045
779.871	-0.0042
780.107	-0.0035
780.343	-0.0043
780.579	-0.0031
780.814	-0.0038
781.05	-0.0046
781.286	-0.0049
781.522	-0.0024
781.757	-0.0011
781.993	-0.0011
782.228	-0.0015
782.464	-0.0017
782.699	-0.0021
782.934	-0.0025
783.17	-0.0017
783.405	-0.0014
783.64	-0.0029
783.875	-0.0019
784.11	-0.0006
784.345	0
784.58	-0.0001
784.815	0.0013
785.05	-0.0003
785.285	-0.0001
785.52	-0
785.754	0.0007
785.989	-0.0004
786.223	0.0003
786.458	0.0008
786.692	0.0018
786.927	0.0027
787.161	0.0022
787.396	0.0018
787.63	0.0026
787.864	0.0019
788.098	0.0018
788.332	0.0007
788.566	-0.0007
788.8	-0.0004
789.034	-0.0006
789.268	0.0006
789.502	0.0013
789.736	0.0015
789.969	0.0009
790.203	-0.0009
790.437	-0.0009
790.67	-0.0011
790.904	-0.0022
791.137	-0.0014
791.37	-0.0023
791.604	-0.0027
791.837	-0.0039
792.07	-0.0027
792.303	-0.0036
792.537	-0.0047
792.77	-0.0044
793.003	-0.004
793.236	-0.0036
793.469	-0.0016
793.701	-0.0016
793.934	-0.003
794.167	-0.0028
794.4	-0.0021
794.632	-0.0009
794.865	-0.0013
795.097	-0.0022
795.33	-0.003
795.562	-0.0019
795.795	-0.0016
796.027	-0.0022
796.259	-0.0033
796.491	-0.0039
796.724	-0.0039
796.956	-0.0035
797.188	-0.0018
797.42	-0.0021
797.652	-0.0028
797.883	-0.0022
798.115	-0.002
798.347	-0.0031
798.579	-0.0034
798.81	-0.0044
799.042	-0.0045
799.274	-0.0036
799.505	-0.0023
799.737	-0.0025
799.968	-0.0016
800.199	-0.0005
800.431	-0.0002
800.662	-0.0012
800.893	0.0001
801.124	0.0006
801.355	0.0003
801.586	0.0019
801.817	0
802.048	-0.0008
802.279	-0.002
802.51	-0.0029
802.741	-0.0019
802.971	-0.0029
803.202	-0.0021
803.433	-0.0039
803.663	-0.0032
803.894	-0.0032
804.124	-0.0017
804.354	-0.0029
804.585	-0.0027
804.815	-0.0026
805.045	-0.0038
805.275	-0.0027
805.506	-0.0944
805.736	0.0187
805.966	0.3844
806.196	0.2843
