Data from 03 0.5 mM K2Cr2O7 0.2 mM BQDS 1 M H2SO4 5 min_Absorbance_0003.txt Node
Date: Thu Dec 09 16:01:44 EST 2021
User: kwabilab-user
Spectrometer: HDX00518
Trigger mode: 0
Integration Time (sec): 5.000000E-2
Scans to average: 50
Nonlinearity correction enabled: false
Boxcar width: 0
Storing dark spectrum: false
XAxis mode: Wavelengths
Number of Pixels in Spectrum: 2068
>>>>>Begin Spectral Data<<<<<
195.27	0.3452
195.642	0.0213
196.014	0.1206
196.386	0.3179
196.758	0.0004
197.129	0.0246
197.501	0.0722
197.872	0.1044
198.244	0.1213
198.615	0.1389
198.986	0.1328
199.357	0.1225
199.728	0.1412
200.099	0.1366
200.47	0.1176
200.841	0.1293
201.212	0.1333
201.582	0.1312
201.953	0.126
202.323	0.1317
202.694	0.1497
203.064	0.1323
203.434	0.1415
203.804	0.1327
204.174	0.1399
204.544	0.1379
204.914	0.1337
205.284	0.1408
205.653	0.1393
206.023	0.1575
206.393	0.1497
206.762	0.1357
207.131	0.1483
207.501	0.1518
207.87	0.1507
208.239	0.146
208.608	0.1623
208.977	0.1283
209.346	0.1415
209.715	0.162
210.083	0.1622
210.452	0.1494
210.82	0.1451
211.189	0.1524
211.557	0.1588
211.925	0.1543
212.294	0.1461
212.662	0.1698
213.03	0.1826
213.398	0.1856
213.766	0.1945
214.133	0.1807
214.501	0.2009
214.869	0.2082
215.236	0.2161
215.604	0.2202
215.971	0.2287
216.338	0.245
216.705	0.247
217.072	0.2803
217.439	0.2805
217.806	0.3137
218.173	0.3278
218.54	0.3462
218.907	0.3813
219.273	0.4024
219.64	0.4559
220.006	0.4925
220.373	0.4946
220.739	0.5292
221.105	0.5896
221.471	0.6222
221.837	0.6566
222.203	0.7154
222.569	0.7385
222.935	0.7657
223.3	0.8055
223.666	0.8456
224.031	0.8927
224.397	0.9039
224.762	0.9249
225.127	0.9784
225.493	1.0044
225.858	1.0303
226.223	1.0539
226.588	1.0646
226.952	1.085
227.317	1.12
227.682	1.1069
228.046	1.1131
228.411	1.141
228.775	1.1544
229.14	1.1338
229.504	1.1618
229.868	1.1688
230.232	1.1559
230.596	1.1679
230.96	1.1819
231.324	1.1753
231.688	1.1575
232.052	1.1681
232.415	1.1585
232.779	1.1559
233.142	1.155
233.505	1.1381
233.869	1.1455
234.232	1.1328
234.595	1.1232
234.958	1.1155
235.321	1.1145
235.684	1.0979
236.047	1.0993
236.409	1.0771
236.772	1.0716
237.134	1.0719
237.497	1.0596
237.859	1.0569
238.222	1.0477
238.584	1.0387
238.946	1.0291
239.308	1.0266
239.67	1.0177
240.032	1.0072
240.393	1
240.755	0.9981
241.117	0.9934
241.478	0.9808
241.84	0.982
242.201	0.9677
242.562	0.9655
242.924	0.9578
243.285	0.9572
243.646	0.954
244.007	0.9485
244.368	0.9466
244.728	0.9381
245.089	0.9362
245.45	0.927
245.81	0.9259
246.171	0.9196
246.531	0.9165
246.891	0.9156
247.252	0.9105
247.612	0.9118
247.972	0.9051
248.332	0.9016
248.692	0.8998
249.051	0.9035
249.411	0.8989
249.771	0.8961
250.13	0.8919
250.49	0.8909
250.849	0.891
251.208	0.8879
251.568	0.8829
251.927	0.887
252.286	0.8828
252.645	0.8839
253.004	0.8832
253.363	0.8821
253.721	0.8808
254.08	0.8767
254.439	0.8738
254.797	0.8734
255.155	0.8732
255.514	0.8744
255.872	0.8753
256.23	0.8734
256.588	0.8744
256.946	0.87
257.304	0.8732
257.662	0.8711
258.02	0.867
258.377	0.8716
258.735	0.8668
259.093	0.8638
259.45	0.865
259.807	0.863
260.165	0.8639
260.522	0.8622
260.879	0.8594
261.236	0.8617
261.593	0.8617
261.95	0.8556
262.306	0.8585
262.663	0.8518
263.02	0.854
263.376	0.8523
263.733	0.8516
264.089	0.8511
264.445	0.8475
264.802	0.8451
265.158	0.8475
265.514	0.843
265.87	0.842
266.226	0.8434
266.581	0.8377
266.937	0.838
267.293	0.8341
267.648	0.8332
268.004	0.8325
268.359	0.8301
268.714	0.8286
269.07	0.8237
269.425	0.8236
269.78	0.8226
270.135	0.8204
270.49	0.8176
270.844	0.8132
271.199	0.8096
271.554	0.8098
271.908	0.8038
272.263	0.8048
272.617	0.802
272.972	0.7992
273.326	0.7961
273.68	0.7923
274.034	0.7886
274.388	0.7889
274.742	0.7835
275.096	0.7835
275.45	0.7788
275.803	0.7754
276.157	0.7709
276.51	0.7666
276.864	0.7616
277.217	0.7578
277.571	0.7561
277.924	0.7514
278.277	0.7501
278.63	0.7443
278.983	0.739
279.336	0.7361
279.688	0.7312
280.041	0.726
280.394	0.7212
280.746	0.7164
281.099	0.7117
281.451	0.7065
281.803	0.6993
282.156	0.6957
282.508	0.6897
282.86	0.6854
283.212	0.6813
283.564	0.6736
283.916	0.6675
284.267	0.6618
284.619	0.656
284.971	0.6511
285.322	0.6449
285.673	0.6386
286.025	0.6326
286.376	0.629
286.727	0.621
287.078	0.6138
287.429	0.6076
287.78	0.6034
288.131	0.5963
288.482	0.588
288.833	0.5821
289.183	0.5748
289.534	0.5685
289.884	0.5624
290.235	0.5559
290.585	0.5499
290.935	0.5418
291.285	0.5352
291.635	0.5296
291.985	0.5222
292.335	0.5162
292.685	0.5084
293.035	0.503
293.384	0.4962
293.734	0.4888
294.083	0.483
294.433	0.4752
294.782	0.4689
295.131	0.4637
295.48	0.4564
295.829	0.4506
296.179	0.444
296.527	0.4389
296.876	0.4322
297.225	0.4252
297.574	0.4188
297.922	0.4128
298.271	0.4068
298.619	0.4018
298.968	0.3962
299.316	0.39
299.664	0.385
300.012	0.379
300.36	0.3743
300.708	0.369
301.056	0.3644
301.404	0.358
301.752	0.3549
302.099	0.3497
302.447	0.3449
302.794	0.3412
303.142	0.3363
303.489	0.3317
303.836	0.3284
304.183	0.324
304.531	0.3208
304.878	0.3172
305.224	0.3135
305.571	0.3106
305.918	0.3066
306.265	0.3036
306.611	0.3006
306.958	0.2982
307.304	0.2957
307.651	0.2924
307.997	0.2902
308.343	0.2883
308.689	0.2854
309.035	0.2841
309.381	0.2819
309.727	0.2798
310.073	0.278
310.419	0.2776
310.764	0.275
311.11	0.2738
311.455	0.2735
311.801	0.2716
312.146	0.271
312.491	0.2703
312.837	0.2697
313.182	0.2691
313.527	0.2687
313.872	0.2688
314.216	0.2681
314.561	0.2686
314.906	0.2676
315.251	0.2679
315.595	0.2676
315.94	0.2683
316.284	0.2695
316.628	0.2692
316.972	0.2695
317.317	0.2703
317.661	0.2712
318.005	0.2722
318.348	0.2728
318.692	0.2735
319.036	0.2742
319.38	0.2765
319.723	0.2768
320.067	0.2783
320.41	0.28
320.754	0.2808
321.097	0.2829
321.44	0.2843
321.783	0.2863
322.126	0.2879
322.469	0.2895
322.812	0.2912
323.155	0.2934
323.498	0.2953
323.84	0.2975
324.183	0.2997
324.525	0.3013
324.868	0.3032
325.21	0.3062
325.552	0.3078
325.894	0.3094
326.236	0.3118
326.578	0.3141
326.92	0.3165
327.262	0.3186
327.604	0.3212
327.946	0.3238
328.287	0.3252
328.629	0.3277
328.97	0.3312
329.312	0.333
329.653	0.3358
329.994	0.3379
330.335	0.3407
330.676	0.3438
331.017	0.3472
331.358	0.3491
331.699	0.3521
332.04	0.3548
332.38	0.3576
332.721	0.3604
333.061	0.3628
333.402	0.3651
333.742	0.3674
334.083	0.3703
334.423	0.3719
334.763	0.3745
335.103	0.3769
335.443	0.3783
335.783	0.3799
336.123	0.3829
336.462	0.3845
336.802	0.3871
337.141	0.3893
337.481	0.3914
337.82	0.3935
338.16	0.3952
338.499	0.3978
338.838	0.4009
339.177	0.4024
339.516	0.4039
339.855	0.4056
340.194	0.4077
340.533	0.4107
340.872	0.412
341.21	0.4142
341.549	0.4149
341.887	0.4167
342.226	0.4186
342.564	0.4193
342.902	0.4193
343.24	0.4207
343.578	0.4223
343.916	0.4229
344.254	0.4238
344.592	0.4238
344.93	0.4248
345.268	0.4256
345.605	0.4255
345.943	0.4265
346.28	0.4265
346.618	0.4275
346.955	0.4281
347.292	0.4286
347.629	0.4291
347.966	0.4298
348.303	0.4301
348.64	0.4298
348.977	0.4294
349.314	0.4304
349.65	0.4296
349.987	0.4305
350.324	0.4299
350.66	0.43
350.996	0.4297
351.333	0.428
351.669	0.4287
352.005	0.4271
352.341	0.4269
352.677	0.4255
353.013	0.4234
353.349	0.4218
353.685	0.4207
354.02	0.4193
354.356	0.4176
354.691	0.4151
355.027	0.4147
355.362	0.4128
355.697	0.4118
356.033	0.4097
356.368	0.408
356.703	0.4064
357.038	0.4053
357.373	0.4039
357.707	0.4029
358.042	0.4017
358.377	0.3992
358.711	0.3982
359.046	0.3964
359.38	0.3951
359.715	0.394
360.049	0.3917
360.383	0.3883
360.717	0.3875
361.051	0.3846
361.385	0.3824
361.719	0.3799
362.053	0.3767
362.387	0.3736
362.72	0.3712
363.054	0.3698
363.387	0.3656
363.721	0.3629
364.054	0.3605
364.387	0.3565
364.721	0.3543
365.054	0.3515
365.387	0.3487
365.72	0.3457
366.053	0.3431
366.385	0.3405
366.718	0.3384
367.051	0.336
367.383	0.3319
367.716	0.3302
368.048	0.3282
368.381	0.3258
368.713	0.3238
369.045	0.3214
369.377	0.3197
369.709	0.3177
370.041	0.3155
370.373	0.3117
370.705	0.3093
371.037	0.3074
371.368	0.3041
371.7	0.3014
372.031	0.2985
372.363	0.295
372.694	0.2923
373.025	0.2886
373.356	0.2851
373.688	0.2818
374.019	0.2788
374.35	0.2754
374.68	0.2723
375.011	0.2686
375.342	0.2659
375.673	0.2618
376.003	0.2599
376.334	0.2556
376.664	0.253
376.995	0.25
377.325	0.2475
377.655	0.245
377.985	0.2416
378.315	0.2391
378.645	0.2374
378.975	0.2348
379.305	0.2323
379.635	0.23
379.964	0.2284
380.294	0.2256
380.623	0.2239
380.953	0.2206
381.282	0.2183
381.611	0.2161
381.941	0.2147
382.27	0.2116
382.599	0.2094
382.928	0.2062
383.257	0.2046
383.585	0.201
383.914	0.1987
384.243	0.1963
384.571	0.1932
384.9	0.1903
385.228	0.1871
385.557	0.1847
385.885	0.1821
386.213	0.1796
386.541	0.176
386.869	0.1735
387.197	0.1707
387.525	0.1672
387.853	0.1654
388.181	0.1629
388.508	0.1605
388.836	0.1568
389.164	0.1551
389.491	0.1536
389.818	0.1518
390.146	0.1492
390.473	0.1465
390.8	0.1449
391.127	0.1427
391.454	0.1406
391.781	0.139
392.108	0.1371
392.435	0.1353
392.761	0.1337
393.088	0.132
393.415	0.13
393.741	0.1286
394.067	0.1274
394.394	0.1257
394.72	0.1246
395.046	0.123
395.372	0.1211
395.698	0.1192
396.024	0.1177
396.35	0.1158
396.676	0.1148
397.001	0.1135
397.327	0.1107
397.653	0.1097
397.978	0.1077
398.303	0.1062
398.629	0.1051
398.954	0.1039
399.279	0.1026
399.604	0.1001
399.929	0.099
400.254	0.098
400.579	0.0969
400.904	0.0953
401.229	0.0938
401.553	0.0928
401.878	0.0916
402.202	0.0905
402.527	0.0889
402.851	0.0884
403.175	0.0881
403.5	0.0864
403.824	0.0854
404.148	0.0844
404.472	0.0841
404.796	0.0836
405.119	0.0829
405.443	0.0821
405.767	0.0813
406.09	0.0807
406.414	0.0801
406.737	0.0795
407.061	0.0797
407.384	0.0792
407.707	0.0785
408.03	0.0775
408.353	0.0777
408.676	0.077
408.999	0.0764
409.322	0.0758
409.645	0.0754
409.968	0.0751
410.29	0.0748
410.613	0.0742
410.935	0.0745
411.258	0.0737
411.58	0.074
411.902	0.073
412.224	0.0734
412.546	0.0733
412.868	0.0732
413.19	0.0724
413.512	0.0727
413.834	0.0718
414.156	0.0715
414.477	0.0719
414.799	0.0707
415.121	0.0718
415.442	0.0718
415.763	0.0711
416.085	0.0712
416.406	0.0712
416.727	0.0706
417.048	0.0712
417.369	0.0708
417.69	0.071
418.011	0.0707
418.331	0.0706
418.652	0.0713
418.973	0.0707
419.293	0.0706
419.614	0.071
419.934	0.071
420.254	0.0708
420.574	0.0707
420.895	0.0703
421.215	0.0699
421.535	0.0701
421.855	0.07
422.174	0.0699
422.494	0.0703
422.814	0.0708
423.134	0.0705
423.453	0.0706
423.773	0.0705
424.092	0.0708
424.411	0.0703
424.731	0.0706
425.05	0.0704
425.369	0.0708
425.688	0.0709
426.007	0.0711
426.326	0.0706
426.644	0.0713
426.963	0.0711
427.282	0.071
427.6	0.0702
427.919	0.0705
428.237	0.0711
428.556	0.0717
428.874	0.0706
429.192	0.0716
429.51	0.0706
429.828	0.0708
430.146	0.0712
430.464	0.0709
430.782	0.0705
431.1	0.0711
431.418	0.0713
431.735	0.0713
432.053	0.0713
432.37	0.0715
432.688	0.0708
433.005	0.0715
433.322	0.0707
433.639	0.0711
433.957	0.0717
434.274	0.0715
434.591	0.0714
434.907	0.0713
435.224	0.0715
435.541	0.071
435.858	0.0718
436.174	0.0719
436.491	0.0713
436.807	0.0704
437.124	0.0717
437.44	0.0706
437.756	0.0709
438.072	0.071
438.388	0.0707
438.704	0.0707
439.02	0.0708
439.336	0.0713
439.652	0.0714
439.968	0.0707
440.283	0.071
440.599	0.0706
440.914	0.0704
441.23	0.0705
441.545	0.07
441.86	0.0705
442.175	0.0701
442.491	0.0708
442.806	0.0703
443.121	0.071
443.435	0.0706
443.75	0.0708
444.065	0.0704
444.38	0.0702
444.694	0.0704
445.009	0.0704
445.323	0.0703
445.638	0.0693
445.952	0.0694
446.266	0.0696
446.58	0.0698
446.894	0.069
447.208	0.0692
447.522	0.0689
447.836	0.0688
448.15	0.0685
448.464	0.068
448.777	0.0682
449.091	0.068
449.404	0.0679
449.718	0.0676
450.031	0.0681
450.345	0.0673
450.658	0.0675
450.971	0.0672
451.284	0.0673
451.597	0.0674
451.91	0.0672
452.223	0.0664
452.535	0.0666
452.848	0.0675
453.161	0.0665
453.473	0.0663
453.786	0.0668
454.098	0.0659
454.411	0.067
454.723	0.0658
455.035	0.0654
455.347	0.0648
455.659	0.0641
455.971	0.064
456.283	0.0636
456.595	0.0637
456.907	0.0644
457.218	0.0638
457.53	0.0636
457.841	0.0639
458.153	0.0631
458.464	0.0622
458.776	0.0631
459.087	0.0616
459.398	0.0614
459.709	0.0613
460.02	0.0619
460.331	0.0615
460.642	0.0609
460.953	0.0613
461.263	0.0612
461.574	0.0598
461.885	0.0604
462.195	0.0601
462.506	0.0601
462.816	0.0595
463.126	0.0594
463.437	0.0589
463.747	0.0591
464.057	0.0587
464.367	0.0583
464.677	0.0582
464.987	0.0577
465.296	0.0574
465.606	0.0573
465.916	0.0568
466.225	0.057
466.535	0.0562
466.844	0.0556
467.154	0.0558
467.463	0.0558
467.772	0.0546
468.081	0.0551
468.39	0.0548
468.699	0.0534
469.008	0.0536
469.317	0.0535
469.626	0.0541
469.935	0.0533
470.243	0.0525
470.552	0.0523
470.86	0.0507
471.169	0.0513
471.477	0.0507
471.785	0.0506
472.093	0.0508
472.402	0.0504
472.71	0.0504
473.018	0.0496
473.326	0.0488
473.633	0.0483
473.941	0.0479
474.249	0.0478
474.556	0.0478
474.864	0.0473
475.171	0.0469
475.479	0.0468
475.786	0.0467
476.094	0.0462
476.401	0.0467
476.708	0.0457
477.015	0.0463
477.322	0.0455
477.629	0.0446
477.936	0.045
478.242	0.0451
478.549	0.0438
478.856	0.0438
479.162	0.0429
479.469	0.0433
479.775	0.0424
480.081	0.0422
480.388	0.0426
480.694	0.0416
481	0.0416
481.306	0.0416
481.612	0.0412
481.918	0.0413
482.224	0.0408
482.53	0.0399
482.835	0.0399
483.141	0.0391
483.446	0.0393
483.752	0.0386
484.057	0.0379
484.363	0.0379
484.668	0.0371
484.973	0.0368
485.278	0.0375
485.583	0.0366
485.888	0.0356
486.193	0.0355
486.498	0.0358
486.803	0.0361
487.107	0.0343
487.412	0.0345
487.717	0.0334
488.021	0.0338
488.325	0.0333
488.63	0.0332
488.934	0.0336
489.238	0.0326
489.542	0.0318
489.846	0.0321
490.15	0.031
490.454	0.0309
490.758	0.031
491.062	0.0308
491.366	0.0311
491.669	0.0301
491.973	0.0308
492.276	0.0296
492.58	0.0299
492.883	0.0295
493.186	0.0288
493.489	0.0282
493.792	0.0275
494.096	0.0277
494.399	0.0282
494.701	0.0282
495.004	0.0271
495.307	0.0273
495.61	0.0279
495.912	0.0261
496.215	0.026
496.517	0.0257
496.82	0.0258
497.122	0.0251
497.424	0.0256
497.727	0.0238
498.029	0.0245
498.331	0.0236
498.633	0.0243
498.935	0.0236
499.237	0.023
499.538	0.0227
499.84	0.0237
500.142	0.0228
500.443	0.0229
500.745	0.0215
501.046	0.0219
501.348	0.0222
501.649	0.0228
501.95	0.0217
502.251	0.0209
502.552	0.0205
502.853	0.0211
503.154	0.0205
503.455	0.0212
503.756	0.0198
504.057	0.0202
504.357	0.0195
504.658	0.0198
504.958	0.0195
505.259	0.0189
505.559	0.0193
505.859	0.019
506.16	0.0184
506.46	0.0181
506.76	0.0175
507.06	0.0186
507.36	0.0177
507.66	0.018
507.96	0.0161
508.259	0.0161
508.559	0.0169
508.859	0.0167
509.158	0.0165
509.457	0.0166
509.757	0.0154
510.056	0.0148
510.355	0.0161
510.655	0.0158
510.954	0.015
511.253	0.0149
511.552	0.0149
511.851	0.0145
512.149	0.0139
512.448	0.0141
512.747	0.0138
513.045	0.0126
513.344	0.0126
513.642	0.0145
513.941	0.0133
514.239	0.0143
514.537	0.0135
514.836	0.0143
515.134	0.0129
515.432	0.0126
515.73	0.0125
516.028	0.0119
516.326	0.0116
516.623	0.0116
516.921	0.012
517.219	0.0133
517.516	0.0116
517.814	0.0119
518.111	0.0108
518.409	0.01
518.706	0.0114
519.003	0.0105
519.3	0.0102
519.597	0.0115
519.894	0.0098
520.191	0.0102
520.488	0.0106
520.785	0.009
521.082	0.0099
521.378	0.0108
521.675	0.0099
521.971	0.0091
522.268	0.0096
522.564	0.0089
522.861	0.0081
523.157	0.0088
523.453	0.0092
523.749	0.0087
524.045	0.0074
524.341	0.0095
524.637	0.0072
524.933	0.0079
525.229	0.0084
525.524	0.0083
525.82	0.0072
526.115	0.0079
526.411	0.0073
526.706	0.0061
527.002	0.0065
527.297	0.0068
527.592	0.007
527.887	0.0066
528.182	0.0061
528.477	0.0063
528.772	0.0058
529.067	0.0054
529.362	0.0059
529.657	0.0066
529.951	0.0059
530.246	0.0065
530.54	0.0057
530.835	0.006
531.129	0.0075
531.423	0.0054
531.718	0.0055
532.012	0.0057
532.306	0.0057
532.6	0.0059
532.894	0.0052
533.188	0.0049
533.482	0.0068
533.775	0.0054
534.069	0.0048
534.363	0.0046
534.656	0.0046
534.95	0.0048
535.243	0.0049
535.536	0.0058
535.83	0.0047
536.123	0.0055
536.416	0.0058
536.709	0.0044
537.002	0.0045
537.295	0.0044
537.588	0.0049
537.881	0.0039
538.173	0.0042
538.466	0.0039
538.759	0.0034
539.051	0.0042
539.344	0.0044
539.636	0.0039
539.928	0.0036
540.22	0.003
540.513	0.0036
540.805	0.0036
541.097	0.0026
541.389	0.0026
541.681	0.0052
541.972	0.003
542.264	0.0033
542.556	0.0032
542.847	0.0022
543.139	0.0028
543.431	0.003
543.722	0.0029
544.013	0.0025
544.305	0.0031
544.596	0.0026
544.887	0.0024
545.178	0.0018
545.469	0.0015
545.76	0.0031
546.051	0.0021
546.342	0.0019
546.632	0.0034
546.923	0.0028
547.214	0.0012
547.504	0.0022
547.795	0.0026
548.085	0.0032
548.375	0.0026
548.666	0.002
548.956	0.0035
549.246	0.0023
549.536	0.0025
549.826	0.002
550.116	0.0029
550.406	0.0022
550.695	0.0036
550.985	0.0025
551.275	0.0018
551.564	0.0017
551.854	0.0022
552.143	0.0025
552.433	0.0013
552.722	0.0011
553.011	0.0015
553.3	0.0026
553.589	0.0031
553.879	0.0014
554.167	0.0016
554.456	0.0022
554.745	0.0026
555.034	0.0029
555.323	0.0013
555.611	0.0016
555.9	0.0025
556.188	0.0027
556.477	0.003
556.765	0.0024
557.053	0.0024
557.342	0.0033
557.63	0.0018
557.918	0.003
558.206	0.0035
558.494	0.0034
558.782	0.0028
559.069	0.0033
559.357	0.0034
559.645	0.0038
559.932	0.0033
560.22	0.0031
560.507	0.0011
560.795	0.0029
561.082	0.0019
561.37	0.0021
561.657	0.0031
561.944	0.0018
562.231	0.0019
562.518	0.0026
562.805	0.001
563.092	0.0018
563.379	0.0019
563.665	0.002
563.952	0.0014
564.239	0.0036
564.525	0.0027
564.811	0.0028
565.098	0.003
565.384	0.0035
565.67	0.0032
565.957	0.0032
566.243	0.0022
566.529	0.0034
566.815	0.0018
567.101	0.0021
567.387	0.003
567.672	0.0014
567.958	0.0025
568.244	0.0026
568.529	0.002
568.815	0.0017
569.1	0.0017
569.386	0.0029
569.671	0.0035
569.956	0.0022
570.242	0.0022
570.527	0.0022
570.812	0.0032
571.097	0.0026
571.382	0.004
571.666	0.0035
571.951	0.003
572.236	0.0033
572.521	0.0029
572.805	0.003
573.09	0.0014
573.374	0.0021
573.659	0.0028
573.943	0.0035
574.227	0.003
574.511	0.0028
574.795	0.0028
575.079	0.0021
575.363	0.0017
575.647	0.0019
575.931	0.0017
576.215	0.0012
576.499	0.001
576.782	0.0016
577.066	0.0003
577.349	0.0017
577.633	0.0024
577.916	0.0022
578.2	0.0023
578.483	0.0022
578.766	0.0025
579.049	0.0031
579.332	0.0027
579.615	0.0027
579.898	0.0021
580.181	0.002
580.464	0.0013
580.746	0.002
581.029	0.0035
581.312	0.0025
581.594	0.0025
581.877	0.0024
582.159	0.0014
582.441	0.0021
582.724	0.0017
583.006	0.0032
583.288	0.002
583.57	0.0021
583.852	0.0016
584.134	0.0024
584.416	0.0018
584.697	0.0016
584.979	0.0018
585.261	0.0015
585.542	0.0018
585.824	0.001
586.105	0.0016
586.387	0.0015
586.668	0.001
586.949	0.0015
587.231	0.0014
587.512	0.0015
587.793	0.002
588.074	0.0016
588.355	0.0022
588.636	0.0011
588.916	0.0016
589.197	0.0026
589.478	0.0023
589.758	0.0032
590.039	0.0019
590.319	0.0027
590.6	0.0021
590.88	0.0018
591.16	0.0013
591.441	0.0014
591.721	0.0022
592.001	0.0016
592.281	0.0012
592.561	0.0016
592.841	0.0014
593.12	0.0023
593.4	0.0015
593.68	0.001
593.959	0.002
594.239	0.0023
594.518	0.0028
594.798	0.0016
595.077	0.0027
595.356	0.0017
595.636	0.0012
595.915	0.0018
596.194	0.002
596.473	0.0026
596.752	0.0021
597.031	0.0019
597.31	0.0013
597.588	0.0022
597.867	0.0011
598.146	0.0018
598.424	0.0022
598.703	0.0006
598.981	0.0016
599.259	0.0008
599.538	0.001
599.816	0.0014
600.094	0.0009
600.372	0.0017
600.65	0.0006
600.928	0.0011
601.206	-0.0005
601.484	0.0005
601.762	-0.0003
602.04	-0.0002
602.317	0.0006
602.595	0.0003
602.872	0.0008
603.15	0.0014
603.427	0.0017
603.704	0.0022
603.982	0.0016
604.259	0.0013
604.536	0.0019
604.813	0.0012
605.09	0.0006
605.367	0.0006
605.644	0.0008
605.921	-0.0001
606.197	0.0001
606.474	0.0009
606.751	0.0003
607.027	0.0009
607.304	0.0005
607.58	0.0008
607.856	0.0007
608.133	0.001
608.409	0.0005
608.685	0.0004
608.961	-0.0007
609.237	0.0003
609.513	0.0004
609.789	0.0006
610.065	0.0004
610.341	0.0004
610.616	0.0008
610.892	-0
611.167	-0
611.443	-0
611.718	0.0008
611.994	0.001
612.269	0.0013
612.544	0.0006
612.819	0.0008
613.095	0.0002
613.37	0.0016
613.645	0.0018
613.919	0.0015
614.194	0.0012
614.469	0.0013
614.744	0.0008
615.019	0.0009
615.293	0.0001
615.568	0.0005
615.842	0.0009
616.116	-0.0001
616.391	0.0004
616.665	-0.0006
616.939	0.0002
617.213	0.0003
617.488	0.0002
617.762	-0.0001
618.035	-0.0003
618.309	-0.0002
618.583	0.0006
618.857	0.0005
619.131	0.0007
619.404	0.0001
619.678	0.0002
619.951	0.0005
620.225	0.0007
620.498	0.0007
620.771	0.0002
621.045	0.0006
621.318	0.0014
621.591	0.0004
621.864	0.0016
622.137	0.0013
622.41	0.0015
622.683	0.002
622.956	0.0005
623.228	0
623.501	0.0006
623.774	-0.0006
624.046	-0.0006
624.319	0.0013
624.591	-0.0007
624.863	0.0003
625.136	-0.0008
625.408	0.0007
625.68	-0.0001
625.952	0.0011
626.224	0.0001
626.496	-0.0012
626.768	0.0003
627.04	-0.0009
627.311	-0.001
627.583	0.0001
627.855	0.0009
628.126	0.0004
628.398	0.0004
628.669	-0.0012
628.941	0.0001
629.212	0.0005
629.483	0.0009
629.755	0.0002
630.026	0.0004
630.297	0
630.568	-0.0002
630.839	0.001
631.11	-0.0003
631.38	-0.0001
631.651	-0.0012
631.922	-0.0001
632.192	-0.0006
632.463	0.0004
632.733	0.0004
633.004	0.0007
633.274	-0.0002
633.545	-0.0001
633.815	0.0016
634.085	0.0006
634.355	0.0007
634.625	-0.0002
634.895	0.002
635.165	0.0001
635.435	0.0008
635.705	-0.0001
635.974	-0.0005
636.244	-0.0006
636.514	0.002
636.783	0.0008
637.053	0.0025
637.322	0.0021
637.591	0.0006
637.861	0.0004
638.13	0.0014
638.399	0.0013
638.668	0.0005
638.937	0.0004
639.206	0.0011
639.475	0.0016
639.744	0.0018
640.013	0.002
640.281	0.0027
640.55	0.0013
640.819	0.0019
641.087	0.0026
641.356	0.003
641.624	0.0025
641.892	0.0005
642.161	0.0014
642.429	0.0018
642.697	0.0007
642.965	0.0018
643.233	0.0008
643.501	0.001
643.769	0.0006
644.037	0.001
644.305	0.0005
644.572	0.0005
644.84	-0.0005
645.108	-0.001
645.375	-0.0019
645.643	-0.0027
645.91	-0.0019
646.177	-0.0011
646.445	-0.0023
646.712	-0.0021
646.979	-0.0024
647.246	-0.001
647.513	-0.0002
647.78	-0.0003
648.047	0.0007
648.314	0.0006
648.58	0.0006
648.847	0.0006
649.114	0.0005
649.38	-0.0008
649.647	0.0001
649.913	-0.001
650.18	-0.0012
650.446	-0.0012
650.712	-0.0003
650.978	-0.0017
651.245	-0.001
651.511	-0.0007
651.777	-0
652.043	0.0007
652.309	0.0009
652.574	-0.0002
652.84	0.0002
653.106	-0.0011
653.371	-0.0003
653.637	-0.0014
653.903	-0.0001
654.168	-0
654.433	0.0003
654.699	0.0017
654.964	0.0016
655.229	0.0013
655.494	0.0017
655.759	0.0002
656.024	0.0009
656.289	-0
656.554	0.0019
656.819	0.0004
657.084	-0.0001
657.349	-0.0002
657.613	0.0012
657.878	0.0003
658.142	-0.0001
658.407	0.0006
658.671	0.0001
658.936	0.0016
659.2	0.0015
659.464	0.0019
659.728	0.0018
659.992	0.0014
660.256	0.0018
660.52	0.0005
660.784	0.0016
661.048	0.0014
661.312	0.0021
661.575	0.0014
661.839	0.0008
662.103	-0.0002
662.366	0.0011
662.63	-0.0005
662.893	0.0014
663.156	0.0003
663.42	0.0009
663.683	0.0005
663.946	0.0005
664.209	0.0007
664.472	0.0011
664.735	0.0018
664.998	0.0016
665.261	0.0019
665.524	0.001
665.786	0.0006
666.049	0.0012
666.312	0.0028
666.574	0.0028
666.837	0.0014
667.099	0.0022
667.361	0.0005
667.624	-0.0006
667.886	0.0004
668.148	0.0005
668.41	0.0015
668.672	0.0003
668.934	0.0009
669.196	0.0008
669.458	0.001
669.72	0.001
669.982	0.0016
670.243	0.0014
670.505	0.0014
670.766	0.0002
671.028	0.0009
671.289	0.0006
671.551	0.0004
671.812	0.0007
672.073	0.001
672.334	0.0007
672.596	0.001
672.857	0.0017
673.118	0.0019
673.379	0.0026
673.639	0.0013
673.9	0.001
674.161	0.0014
674.422	0.0015
674.682	0.0014
674.943	0.0016
675.203	0.0023
675.464	0.0019
675.724	0.0018
675.985	0.0017
676.245	0.0021
676.505	-0.0001
676.765	0.0006
677.025	0
677.285	0.0002
677.545	0.0005
677.805	-0.0001
678.065	-0.0001
678.325	0.0012
678.585	0.0009
678.844	0.0009
679.104	0.0016
679.363	0.0012
679.623	0.0015
679.882	0.0011
680.142	0.0018
680.401	0.0014
680.66	0.0016
680.919	0.0007
681.178	0.0006
681.437	0.0015
681.696	0.0011
681.955	0.0022
682.214	0.0026
682.473	0.0025
682.732	0.0012
682.99	0.0005
683.249	0.0003
683.508	0.0001
683.766	0.0015
684.024	0.0019
684.283	0.0005
684.541	0.0007
684.799	0.0013
685.058	0.0017
685.316	0.0018
685.574	0.0012
685.832	0.0011
686.09	-0.0002
686.348	-0.0003
686.606	-0.0006
686.863	-0.0005
687.121	-0.0008
687.379	-0.0013
687.636	-0.0015
687.894	-0.0001
688.151	-0.0004
688.409	-0.0008
688.666	0
688.923	-0.0017
689.181	-0.0006
689.438	-0.0004
689.695	0.0017
689.952	0.0023
690.209	0.0017
690.466	0.002
690.723	0.0008
690.979	0.0006
691.236	0.0006
691.493	0.0005
691.75	0
692.006	0.0003
692.263	-0.0002
692.519	-0
692.775	-0.0008
693.032	-0.0005
693.288	-0.0008
693.544	-0.0004
693.8	-0.0009
694.056	-0.0011
694.313	-0.0012
694.568	-0.0002
694.824	-0.0003
695.08	-0.0006
695.336	0
695.592	-0.0005
695.847	-0.0004
696.103	-0.0012
696.359	0.0005
696.614	0.0003
696.869	0.0004
697.125	0.0002
697.38	0.0009
697.635	0.0006
697.891	0
698.146	-0.0017
698.401	-0.0009
698.656	-0.0019
698.911	-0.002
699.166	-0.0032
699.42	-0.0019
699.675	-0.0018
699.93	-0.0015
700.185	-0.0009
700.439	0.0001
700.694	0.0009
700.948	-0.0003
701.203	-0.0002
701.457	-0.0001
701.711	-0.0009
701.965	-0.0003
702.22	-0.0005
702.474	-0.0001
702.728	-0.0005
702.982	0.0018
703.236	0.0001
703.49	0.0002
703.743	-0.0008
703.997	-0.0003
704.251	-0
704.504	-0
704.758	-0.0001
705.012	-0.0001
705.265	0.0004
705.518	-0.0008
705.772	-0.0007
706.025	-0.0004
706.278	-0
706.531	-0.0002
706.785	-0.0007
707.038	-0.0008
707.291	-0.0002
707.543	-0.0004
707.796	0.0005
708.049	0.0005
708.302	0.0001
708.555	-0.0002
708.807	0.0012
709.06	-0.0003
709.312	-0.0006
709.565	-0.0006
709.817	-0.0015
710.069	-0.0009
710.322	-0.0014
710.574	-0.0009
710.826	-0.0003
711.078	0.0011
711.33	0.0006
711.582	0.0016
711.834	-0.0004
712.086	-0.0003
712.338	-0.0012
712.59	-0.0015
712.841	-0.0014
713.093	-0.0012
713.344	-0.0028
713.596	-0.0015
713.847	-0.0011
714.099	-0.0001
714.35	-0.0017
714.601	-0.0013
714.853	-0.0022
715.104	-0.0028
715.355	-0.0024
715.606	-0.0013
715.857	-0.0016
716.108	-0.0019
716.359	-0.0025
716.609	-0.0019
716.86	-0.0026
717.111	-0.0014
717.361	-0.0016
717.612	-0.0016
717.863	-0.0011
718.113	-0.0017
718.363	-0.0021
718.614	-0.0016
718.864	-0.0008
719.114	-0.0016
719.364	-0.0011
719.614	-0.0023
719.865	-0.0023
720.114	-0.0033
720.364	-0.0027
720.614	-0.0026
720.864	-0.0024
721.114	-0.0004
721.364	-0.0017
721.613	-0.0007
721.863	-0.0003
722.112	-0.0013
722.362	-0.0023
722.611	-0.0024
722.86	-0.0028
723.11	-0.0037
723.359	-0.0026
723.608	-0.0025
723.857	-0.002
724.106	-0.0019
724.355	-0.0012
724.604	-0.0014
724.853	-0.0014
725.102	-0.0016
725.351	-0.0011
725.599	-0.0011
725.848	-0.0002
726.097	0.0008
726.345	0.0016
726.594	0.0016
726.842	0.0011
727.09	-0.0006
727.339	-0.0009
727.587	-0.0001
727.835	-0.0019
728.083	-0.0018
728.331	-0.003
728.579	-0.0019
728.827	-0.0007
729.075	-0.0006
729.323	0.0006
729.571	0.0013
729.818	0.0011
730.066	0.0014
730.314	0.0005
730.561	0.0003
730.809	-0.0019
731.056	-0.0016
731.303	-0.0003
731.551	-0.0011
731.798	-0.0022
732.045	-0.001
732.292	-0.0009
732.539	-0.0011
732.786	-0.0015
733.033	-0.0009
733.28	-0.0009
733.527	-0.0007
733.774	-0.0012
734.021	-0.0007
734.267	-0
734.514	0.0002
734.76	0.0003
735.007	-0.0009
735.253	-0.0009
735.5	-0.0001
735.746	-0.0005
735.992	-0.0008
736.238	-0.001
736.485	-0.0008
736.731	-0.0006
736.977	-0.0014
737.223	-0.0015
737.469	-0.0016
737.715	-0.0009
737.96	-0.0005
738.206	0.0004
738.452	0.0013
738.697	0.0017
738.943	0.0005
739.189	-0.0001
739.434	0.0003
739.679	0
739.925	0.0002
740.17	-0.0004
740.415	0.0004
740.66	0.0004
740.906	0.0001
741.151	-0.0003
741.396	-0.0003
741.641	-0.0011
741.886	-0.0018
742.13	-0.0008
742.375	-0.0007
742.62	-0.0012
742.865	-0.0009
743.109	-0.0019
743.354	-0.0031
743.598	-0.0024
743.843	-0.0012
744.087	-0.0017
744.331	-0.0012
744.576	-0.0006
744.82	-0.0022
745.064	-0.0024
745.308	-0.0019
745.552	-0.0015
745.796	-0.0011
746.04	-0.0019
746.284	-0.0015
746.528	-0.0027
746.771	-0.0033
747.015	-0.0036
747.259	-0.0035
747.502	-0.0028
747.746	-0.0023
747.989	-0.0022
748.233	-0.0029
748.476	-0.0029
748.719	-0.0029
748.963	-0.0027
749.206	-0.0023
749.449	-0.0021
749.692	-0.0008
749.935	-0.0009
750.178	-0.0017
750.421	-0.0025
750.664	-0.0041
750.906	-0.0049
751.149	-0.0041
751.392	-0.0041
751.635	-0.0027
751.877	-0.0023
752.12	-0.0025
752.362	-0.0038
752.604	-0.0042
752.847	-0.003
753.089	-0.0023
753.331	-0.0024
753.573	-0.0027
753.816	-0.0017
754.058	-0.0022
754.3	-0.0019
754.542	-0.0017
754.783	-0.0021
755.025	-0.0029
755.267	-0.0039
755.509	-0.0043
755.75	-0.0046
755.992	-0.0035
756.234	-0.0045
756.475	-0.0037
756.716	-0.0024
756.958	-0.0013
757.199	-0.0013
757.44	-0.0034
757.682	-0.0034
757.923	-0.0024
758.164	-0.0028
758.405	-0.0021
758.646	-0.0022
758.887	-0.0026
759.128	-0.0021
759.369	-0.0034
759.609	-0.0029
759.85	-0.0021
760.091	-0.0027
760.331	-0.0022
760.572	-0.0015
760.812	-0.0025
761.053	-0.0017
761.293	-0.0005
761.533	-0.0013
761.774	0.0007
762.014	-0
762.254	-0.0003
762.494	0.0004
762.734	-0.0003
762.974	-0.0004
763.214	-0.001
763.454	-0.0017
763.694	-0.0009
763.933	-0.0004
764.173	-0.0006
764.413	-0.0004
764.652	-0.0011
764.892	-0.0018
765.131	-0.0027
765.371	-0.0021
765.61	-0.0021
765.849	-0.0038
766.089	-0.0026
766.328	-0.0036
766.567	-0.0016
766.806	-0.0018
767.045	0
767.284	-0.0003
767.523	-0.0003
767.762	-0.0018
768.001	-0.001
768.239	-0.0015
768.478	-0.0004
768.717	-0.0018
768.955	-0.0013
769.194	-0.0011
769.432	-0.0011
769.671	-0.0011
769.909	0.0001
770.148	-0.0013
770.386	0.0011
770.624	0.001
770.862	0.0012
771.1	0.001
771.338	0.0008
771.576	0.0016
771.814	0.0003
772.052	-0.0011
772.29	-0.0014
772.528	-0.0005
772.765	0.0003
773.003	0.0002
773.24	-0.0001
773.478	-0.0004
773.716	0.0003
773.953	0.0003
774.19	0.0026
774.428	0.0016
774.665	0.0025
774.902	0.0027
775.139	0.0021
775.376	0.0013
775.613	0.002
775.85	0.0021
776.087	0.0034
776.324	0.0035
776.561	0.0035
776.798	0.0037
777.034	0.0054
777.271	0.0031
777.508	0.0029
777.744	0.002
777.981	0.0014
778.217	0.0009
778.454	0.0003
778.69	0.0003
778.926	0.001
779.162	-0.0005
779.399	-0.0001
779.635	-0.0014
779.871	-0.0015
780.107	0.0003
780.343	-0.0009
780.579	0.0005
780.814	-0.0001
781.05	-0.0005
781.286	-0.0019
781.522	-0.0004
781.757	0.0002
781.993	0.0001
782.228	0.0018
782.464	0.0013
782.699	0.0015
782.934	0.0013
783.17	0.0023
783.405	0.0014
783.64	0.0015
783.875	0.0011
784.11	0.0017
784.345	0.0014
784.58	0.0011
784.815	0.0021
785.05	0.0009
785.285	0.0012
785.52	0.001
785.754	0.0005
785.989	0.0002
786.223	0.0008
786.458	0.0005
786.692	0.0002
786.927	0.0008
787.161	0.001
787.396	0.0018
787.63	0.0031
787.864	0.0018
788.098	0.0014
788.332	0.0015
788.566	0.0001
788.8	0.0006
789.034	0.0003
789.268	0.0012
789.502	0.0009
789.736	0.0015
789.969	0.0016
790.203	0.001
790.437	0.0003
790.67	0.0007
790.904	-0.0003
791.137	0.0003
791.37	-0.0002
791.604	-0.0004
791.837	-0.0008
792.07	-0.0006
792.303	-0.0003
792.537	-0.002
792.77	-0.0023
793.003	-0.0022
793.236	-0.0018
793.469	-0.0004
793.701	-0.0005
793.934	-0.0012
794.167	-0.001
794.4	-0.0012
794.632	-0.0004
794.865	-0.001
795.097	-0.0009
795.33	-0.0011
795.562	-0.001
795.795	-0.0001
796.027	-0.0013
796.259	-0.0014
796.491	-0.0029
796.724	-0.0027
796.956	-0.0019
797.188	-0.0014
797.42	-0.0019
797.652	-0.0013
797.883	-0.0019
798.115	-0.0021
798.347	-0.0012
798.579	-0.0017
798.81	-0.0016
799.042	-0.001
799.274	-0.001
799.505	-0.0007
799.737	0.0001
799.968	0.0014
800.199	0.0027
800.431	0.0021
800.662	0.0017
800.893	0.0014
801.124	0.0021
801.355	0.0013
801.586	0.0036
801.817	0.0016
802.048	0.0011
802.279	0.002
802.51	-0.0001
802.741	0.0021
802.971	0.0007
803.202	-0.0002
803.433	0.0002
803.663	-0.0003
803.894	-0.0003
804.124	0.0005
804.354	-0.0006
804.585	-0.0001
804.815	-0.0003
805.045	-0.0012
805.275	-0.0003
805.506	-0.0673
805.736	0.1282
805.966	0.491
806.196	0.2184
