Data from 03 0.5 mM K2Cr2O7 0.2 mM BQDS 1 M H2SO4 5 min_Absorbance_0056.txt Node
Date: Thu Dec 09 20:26:44 EST 2021
User: kwabilab-user
Spectrometer: HDX00518
Trigger mode: 0
Integration Time (sec): 5.000000E-2
Scans to average: 50
Nonlinearity correction enabled: false
Boxcar width: 0
Storing dark spectrum: false
XAxis mode: Wavelengths
Number of Pixels in Spectrum: 2068
>>>>>Begin Spectral Data<<<<<
195.27	-0.0997
195.642	-0.0905
196.014	-0.1
196.386	0.111
196.758	-0.0824
197.129	-0.0256
197.501	0.0224
197.872	0.0578
198.244	0.0928
198.615	0.0713
198.986	0.0976
199.357	0.0555
199.728	0.0745
200.099	0.087
200.47	0.0817
200.841	0.0736
201.212	0.0823
201.582	0.0581
201.953	0.0818
202.323	0.0645
202.694	0.0883
203.064	0.065
203.434	0.0992
203.804	0.0694
204.174	0.0794
204.544	0.0708
204.914	0.0742
205.284	0.0718
205.653	0.08
206.023	0.0994
206.393	0.0977
206.762	0.0878
207.131	0.0832
207.501	0.0838
207.87	0.0804
208.239	0.0795
208.608	0.0945
208.977	0.0806
209.346	0.0667
209.715	0.0904
210.083	0.0974
210.452	0.0866
210.82	0.0792
211.189	0.0794
211.557	0.1073
211.925	0.0878
212.294	0.0776
212.662	0.1118
213.03	0.1104
213.398	0.1056
213.766	0.1303
214.133	0.108
214.501	0.1233
214.869	0.1388
215.236	0.1373
215.604	0.1529
215.971	0.1661
216.338	0.1821
216.705	0.1858
217.072	0.2192
217.439	0.2036
217.806	0.2397
218.173	0.2608
218.54	0.288
218.907	0.3102
219.273	0.3427
219.64	0.3677
220.006	0.4094
220.373	0.4104
220.739	0.4617
221.105	0.5185
221.471	0.5368
221.837	0.5968
222.203	0.6307
222.569	0.6582
222.935	0.7006
223.3	0.7328
223.666	0.7864
224.031	0.7999
224.397	0.8443
224.762	0.8525
225.127	0.8969
225.493	0.919
225.858	0.9436
226.223	0.9642
226.588	0.9865
226.952	1.0089
227.317	1.023
227.682	1.0206
228.046	1.029
228.411	1.0329
228.775	1.0501
229.14	1.0525
229.504	1.0596
229.868	1.0578
230.232	1.0574
230.596	1.0659
230.96	1.0676
231.324	1.0548
231.688	1.0509
232.052	1.0578
232.415	1.0504
232.779	1.047
233.142	1.0429
233.505	1.0307
233.869	1.0327
234.232	1.0262
234.595	1.0053
234.958	1.0015
235.321	0.9982
235.684	0.9936
236.047	0.9864
236.409	0.9756
236.772	0.9714
237.134	0.9606
237.497	0.9523
237.859	0.9516
238.222	0.938
238.584	0.9297
238.946	0.9204
239.308	0.9179
239.67	0.9086
240.032	0.904
240.393	0.8969
240.755	0.8889
241.117	0.8869
241.478	0.8801
241.84	0.8755
242.201	0.8708
242.562	0.8657
242.924	0.8549
243.285	0.8531
243.646	0.8488
244.007	0.845
244.368	0.8435
244.728	0.8353
245.089	0.8332
245.45	0.8286
245.81	0.8276
246.171	0.8222
246.531	0.8207
246.891	0.8196
247.252	0.8111
247.612	0.8128
247.972	0.8075
248.332	0.8095
248.692	0.8074
249.051	0.8042
249.411	0.8022
249.771	0.7971
250.13	0.7992
250.49	0.8
250.849	0.7962
251.208	0.7949
251.568	0.7915
251.927	0.7886
252.286	0.7903
252.645	0.7915
253.004	0.7923
253.363	0.7892
253.721	0.7914
254.08	0.7885
254.439	0.7863
254.797	0.7857
255.155	0.7855
255.514	0.7833
255.872	0.7858
256.23	0.7844
256.588	0.7872
256.946	0.7823
257.304	0.7791
257.662	0.7824
258.02	0.7828
258.377	0.7807
258.735	0.7788
259.093	0.777
259.45	0.779
259.807	0.7752
260.165	0.7786
260.522	0.7768
260.879	0.7744
261.236	0.7727
261.593	0.7725
261.95	0.7713
262.306	0.7701
262.663	0.7677
263.02	0.7687
263.376	0.7629
263.733	0.766
264.089	0.7621
264.445	0.7614
264.802	0.7584
265.158	0.7591
265.514	0.7543
265.87	0.7537
266.226	0.7514
266.581	0.7511
266.937	0.7467
267.293	0.7446
267.648	0.7447
268.004	0.7409
268.359	0.7382
268.714	0.7371
269.07	0.7332
269.425	0.7309
269.78	0.7289
270.135	0.7277
270.49	0.7233
270.844	0.7206
271.199	0.717
271.554	0.7145
271.908	0.7141
272.263	0.7096
272.617	0.7036
272.972	0.7018
273.326	0.6999
273.68	0.6966
274.034	0.6913
274.388	0.6877
274.742	0.686
275.096	0.683
275.45	0.6763
275.803	0.6742
276.157	0.6693
276.51	0.6637
276.864	0.6584
277.217	0.6561
277.571	0.6519
277.924	0.6448
278.277	0.6437
278.63	0.638
278.983	0.6335
279.336	0.6288
279.688	0.6247
280.041	0.6188
280.394	0.6149
280.746	0.6078
281.099	0.6044
281.451	0.5985
281.803	0.5928
282.156	0.5869
282.508	0.5836
282.86	0.5762
283.212	0.5707
283.564	0.5666
283.916	0.5623
284.267	0.5559
284.619	0.55
284.971	0.5449
285.322	0.5393
285.673	0.5338
286.025	0.5282
286.376	0.5231
286.727	0.518
287.078	0.5097
287.429	0.5041
287.78	0.4995
288.131	0.4948
288.482	0.4871
288.833	0.4805
289.183	0.4753
289.534	0.4687
289.884	0.4637
290.235	0.4569
290.585	0.4516
290.935	0.4457
291.285	0.4388
291.635	0.4343
291.985	0.4285
292.335	0.4209
292.685	0.4158
293.035	0.4094
293.384	0.4039
293.734	0.3973
294.083	0.3919
294.433	0.3869
294.782	0.3801
295.131	0.375
295.48	0.3689
295.829	0.3632
296.179	0.3582
296.527	0.3539
296.876	0.3466
297.225	0.3409
297.574	0.3357
297.922	0.3308
298.271	0.3253
298.619	0.32
298.968	0.3148
299.316	0.3094
299.664	0.3054
300.012	0.3003
300.36	0.2958
300.708	0.2916
301.056	0.2871
301.404	0.2815
301.752	0.2776
302.099	0.2744
302.447	0.2702
302.794	0.2657
303.142	0.2625
303.489	0.2577
303.836	0.2539
304.183	0.2512
304.531	0.248
304.878	0.2453
305.224	0.2417
305.571	0.2388
305.918	0.2357
306.265	0.2324
306.611	0.2299
306.958	0.2277
307.304	0.2249
307.651	0.2228
307.997	0.2203
308.343	0.2187
308.689	0.2163
309.035	0.2149
309.381	0.2137
309.727	0.2123
310.073	0.21
310.419	0.2091
310.764	0.2069
311.11	0.2061
311.455	0.2051
311.801	0.2042
312.146	0.2037
312.491	0.2031
312.837	0.2017
313.182	0.2018
313.527	0.2014
313.872	0.2016
314.216	0.2011
314.561	0.2009
314.906	0.2009
315.251	0.201
315.595	0.2012
315.94	0.2016
316.284	0.2017
316.628	0.2022
316.972	0.2029
317.317	0.2026
317.661	0.2038
318.005	0.2043
318.348	0.2054
318.692	0.2058
319.036	0.2069
319.38	0.2084
319.723	0.2089
320.067	0.2103
320.41	0.2116
320.754	0.2123
321.097	0.2146
321.44	0.2153
321.783	0.217
322.126	0.2186
322.469	0.2207
322.812	0.2222
323.155	0.2238
323.498	0.2252
323.84	0.2274
324.183	0.229
324.525	0.2309
324.868	0.2322
325.21	0.2348
325.552	0.2367
325.894	0.2391
326.236	0.2403
326.578	0.2428
326.92	0.2448
327.262	0.2466
327.604	0.2488
327.946	0.2515
328.287	0.2533
328.629	0.2555
328.97	0.2575
329.312	0.2598
329.653	0.2611
329.994	0.2638
330.335	0.2659
330.676	0.2686
331.017	0.2721
331.358	0.2744
331.699	0.2765
332.04	0.2786
332.38	0.2813
332.721	0.2832
333.061	0.2851
333.402	0.288
333.742	0.2901
334.083	0.2928
334.423	0.2945
334.763	0.2958
335.103	0.2983
335.443	0.3
335.783	0.3027
336.123	0.3037
336.462	0.3058
336.802	0.3077
337.141	0.3104
337.481	0.3116
337.82	0.3138
338.16	0.3158
338.499	0.3171
338.838	0.32
339.177	0.3218
339.516	0.323
339.855	0.3245
340.194	0.3269
340.533	0.3288
340.872	0.3304
341.21	0.3318
341.549	0.3324
341.887	0.3347
342.226	0.3351
342.564	0.3363
342.902	0.3365
343.24	0.3384
343.578	0.3386
343.916	0.3394
344.254	0.34
344.592	0.3402
344.93	0.3415
345.268	0.342
345.605	0.3422
345.943	0.3427
346.28	0.3435
346.618	0.3434
346.955	0.3435
347.292	0.3444
347.629	0.3445
347.966	0.3459
348.303	0.3452
348.64	0.3455
348.977	0.3458
349.314	0.3464
349.65	0.3459
349.987	0.3462
350.324	0.3459
350.66	0.3448
350.996	0.3452
351.333	0.3446
351.669	0.3435
352.005	0.3425
352.341	0.3417
352.677	0.3414
353.013	0.34
353.349	0.338
353.685	0.3364
354.02	0.3353
354.356	0.3345
354.691	0.3335
355.027	0.3323
355.362	0.3307
355.697	0.3293
356.033	0.3279
356.368	0.3263
356.703	0.3252
357.038	0.3243
357.373	0.323
357.707	0.3225
358.042	0.3204
358.377	0.3188
358.711	0.3167
359.046	0.3155
359.38	0.3148
359.715	0.3136
360.049	0.312
360.383	0.3098
360.717	0.308
361.051	0.3058
361.385	0.3036
361.719	0.3022
362.053	0.2992
362.387	0.2961
362.72	0.2946
363.054	0.2918
363.387	0.2905
363.721	0.2866
364.054	0.2842
364.387	0.2818
364.721	0.2799
365.054	0.2766
365.387	0.2746
365.72	0.2719
366.053	0.2702
366.385	0.2672
366.718	0.2655
367.051	0.2634
367.383	0.2611
367.716	0.2585
368.048	0.2577
368.381	0.2562
368.713	0.2527
369.045	0.251
369.377	0.2497
369.709	0.2481
370.041	0.2453
370.373	0.243
370.705	0.2411
371.037	0.2394
371.368	0.2363
371.7	0.2348
372.031	0.2318
372.363	0.2289
372.694	0.2271
373.025	0.2241
373.356	0.2203
373.688	0.2176
374.019	0.2151
374.35	0.2115
374.68	0.2101
375.011	0.2067
375.342	0.2043
375.673	0.2011
376.003	0.199
376.334	0.196
376.664	0.1933
376.995	0.1911
377.325	0.1894
377.655	0.1869
377.985	0.1844
378.315	0.1822
378.645	0.1809
378.975	0.1786
379.305	0.1764
379.635	0.1748
379.964	0.1737
380.294	0.1715
380.623	0.1697
380.953	0.1667
381.282	0.1653
381.611	0.1631
381.941	0.162
382.27	0.1596
382.599	0.158
382.928	0.1557
383.257	0.1535
383.585	0.1514
383.914	0.1495
384.243	0.1473
384.571	0.1447
384.9	0.1427
385.228	0.14
385.557	0.1369
385.885	0.1351
386.213	0.1332
386.541	0.131
386.869	0.1288
387.197	0.1268
387.525	0.1234
387.853	0.122
388.181	0.1195
388.508	0.1187
388.836	0.1153
389.164	0.1135
389.491	0.113
389.818	0.1102
390.146	0.1088
390.473	0.1069
390.8	0.106
391.127	0.1036
391.454	0.1028
391.781	0.1014
392.108	0.1001
392.435	0.098
392.761	0.097
393.088	0.0954
393.415	0.094
393.741	0.0935
394.067	0.0923
394.394	0.0909
394.72	0.0895
395.046	0.0888
395.372	0.0876
395.698	0.0857
396.024	0.0845
396.35	0.083
396.676	0.0818
397.001	0.0812
397.327	0.0794
397.653	0.0782
397.978	0.0767
398.303	0.0758
398.629	0.0743
398.954	0.0741
399.279	0.0734
399.604	0.0715
399.929	0.0705
400.254	0.0693
400.579	0.0694
400.904	0.068
401.229	0.0666
401.553	0.0663
401.878	0.0654
402.202	0.0645
402.527	0.0638
402.851	0.0631
403.175	0.0623
403.5	0.062
403.824	0.0613
404.148	0.0599
404.472	0.0599
404.796	0.0594
405.119	0.0594
405.443	0.0591
405.767	0.0583
406.09	0.0584
406.414	0.0573
406.737	0.0576
407.061	0.0571
407.384	0.057
407.707	0.0566
408.03	0.0558
408.353	0.0565
408.676	0.0558
408.999	0.0556
409.322	0.0555
409.645	0.0557
409.968	0.0549
410.29	0.0549
410.613	0.0549
410.935	0.0548
411.258	0.0548
411.58	0.0548
411.902	0.0547
412.224	0.0549
412.546	0.0548
412.868	0.0547
413.19	0.0547
413.512	0.0542
413.834	0.054
414.156	0.0539
414.477	0.0542
414.799	0.0534
415.121	0.0546
415.442	0.0537
415.763	0.0543
416.085	0.0548
416.406	0.054
416.727	0.0538
417.048	0.0553
417.369	0.0546
417.69	0.0549
418.011	0.0541
418.331	0.0554
418.652	0.0552
418.973	0.0548
419.293	0.0548
419.614	0.0553
419.934	0.0558
420.254	0.0554
420.574	0.0553
420.895	0.0554
421.215	0.0554
421.535	0.0549
421.855	0.0547
422.174	0.0556
422.494	0.0551
422.814	0.056
423.134	0.0555
423.453	0.0563
423.773	0.0564
424.092	0.0562
424.411	0.0558
424.731	0.0567
425.05	0.0563
425.369	0.0566
425.688	0.0565
426.007	0.0569
426.326	0.057
426.644	0.0571
426.963	0.0574
427.282	0.057
427.6	0.0569
427.919	0.0571
428.237	0.058
428.556	0.0583
428.874	0.0572
429.192	0.0584
429.51	0.0573
429.828	0.0578
430.146	0.0578
430.464	0.058
430.782	0.0587
431.1	0.0584
431.418	0.0584
431.735	0.0584
432.053	0.0589
432.37	0.0591
432.688	0.058
433.005	0.0592
433.322	0.059
433.639	0.0593
433.957	0.0594
434.274	0.0589
434.591	0.0594
434.907	0.0596
435.224	0.06
435.541	0.0599
435.858	0.0609
436.174	0.0602
436.491	0.0593
436.807	0.0587
437.124	0.06
437.44	0.0596
437.756	0.0596
438.072	0.0592
438.388	0.0594
438.704	0.0597
439.02	0.0591
439.336	0.0595
439.652	0.0599
439.968	0.0594
440.283	0.0604
440.599	0.0599
440.914	0.0588
441.23	0.0586
441.545	0.0587
441.86	0.0588
442.175	0.0598
442.491	0.0591
442.806	0.0596
443.121	0.0604
443.435	0.0593
443.75	0.0596
444.065	0.0598
444.38	0.0598
444.694	0.0597
445.009	0.0594
445.323	0.0598
445.638	0.0588
445.952	0.059
446.266	0.0592
446.58	0.0585
446.894	0.0586
447.208	0.0591
447.522	0.058
447.836	0.0582
448.15	0.0582
448.464	0.0584
448.777	0.0574
449.091	0.0576
449.404	0.0568
449.718	0.0572
450.031	0.0574
450.345	0.0578
450.658	0.0575
450.971	0.0574
451.284	0.0579
451.597	0.0578
451.91	0.0568
452.223	0.0566
452.535	0.0574
452.848	0.0572
453.161	0.0567
453.473	0.0574
453.786	0.0569
454.098	0.056
454.411	0.0569
454.723	0.0562
455.035	0.0559
455.347	0.0556
455.659	0.0545
455.971	0.0537
456.283	0.0545
456.595	0.0544
456.907	0.0545
457.218	0.0549
457.53	0.0541
457.841	0.0537
458.153	0.0538
458.464	0.053
458.776	0.0545
459.087	0.0528
459.398	0.0532
459.709	0.0524
460.02	0.0526
460.331	0.0526
460.642	0.0523
460.953	0.0521
461.263	0.0516
461.574	0.0515
461.885	0.0518
462.195	0.0515
462.506	0.0514
462.816	0.0508
463.126	0.0505
463.437	0.05
463.747	0.0506
464.057	0.0505
464.367	0.0502
464.677	0.0494
464.987	0.0496
465.296	0.0493
465.606	0.0484
465.916	0.0482
466.225	0.049
466.535	0.0483
466.844	0.0482
467.154	0.0476
467.463	0.0475
467.772	0.0462
468.081	0.0474
468.39	0.0463
468.699	0.0466
469.008	0.0466
469.317	0.0452
469.626	0.0461
469.935	0.0456
470.243	0.045
470.552	0.0451
470.86	0.0434
471.169	0.0435
471.477	0.0438
471.785	0.0435
472.093	0.0432
472.402	0.0425
472.71	0.0428
473.018	0.0427
473.326	0.0411
473.633	0.0418
473.941	0.0409
474.249	0.0418
474.556	0.0408
474.864	0.0398
475.171	0.0397
475.479	0.0398
475.786	0.0403
476.094	0.0396
476.401	0.0395
476.708	0.0383
477.015	0.0389
477.322	0.0383
477.629	0.0383
477.936	0.0384
478.242	0.038
478.549	0.0376
478.856	0.0367
479.162	0.0364
479.469	0.0366
479.775	0.0363
480.081	0.036
480.388	0.0359
480.694	0.036
481	0.0346
481.306	0.0351
481.612	0.0354
481.918	0.0348
482.224	0.0347
482.53	0.0332
482.835	0.0335
483.141	0.033
483.446	0.0329
483.752	0.0326
484.057	0.0326
484.363	0.0322
484.668	0.0324
484.973	0.0311
485.278	0.032
485.583	0.0306
485.888	0.0295
486.193	0.0295
486.498	0.031
486.803	0.0305
487.107	0.0293
487.412	0.0285
487.717	0.0288
488.021	0.0282
488.325	0.0275
488.63	0.0283
488.934	0.0283
489.238	0.0272
489.542	0.0267
489.846	0.027
490.15	0.0259
490.454	0.0261
490.758	0.0258
491.062	0.0262
491.366	0.0256
491.669	0.0251
491.973	0.025
492.276	0.0253
492.58	0.0254
492.883	0.0248
493.186	0.0231
493.489	0.0233
493.792	0.0237
494.096	0.0229
494.399	0.0233
494.701	0.0231
495.004	0.0234
495.307	0.0225
495.61	0.0227
495.912	0.0222
496.215	0.0214
496.517	0.0219
496.82	0.0218
497.122	0.0213
497.424	0.0212
497.727	0.02
498.029	0.0204
498.331	0.0194
498.633	0.0205
498.935	0.0197
499.237	0.0192
499.538	0.0191
499.84	0.0197
500.142	0.0185
500.443	0.019
500.745	0.0192
501.046	0.0185
501.348	0.0184
501.649	0.0183
501.95	0.0184
502.251	0.0167
502.552	0.0168
502.853	0.0167
503.154	0.0167
503.455	0.0178
503.756	0.017
504.057	0.0161
504.357	0.0158
504.658	0.0163
504.958	0.016
505.259	0.0158
505.559	0.0155
505.859	0.0157
506.16	0.0157
506.46	0.014
506.76	0.0144
507.06	0.014
507.36	0.0147
507.66	0.0145
507.96	0.0126
508.259	0.0134
508.559	0.0142
508.859	0.0131
509.158	0.0131
509.457	0.0132
509.757	0.0119
510.056	0.0122
510.355	0.0115
510.655	0.0121
510.954	0.0118
511.253	0.0117
511.552	0.0107
511.851	0.0112
512.149	0.011
512.448	0.0112
512.747	0.0105
513.045	0.011
513.344	0.0099
513.642	0.0109
513.941	0.0107
514.239	0.0106
514.537	0.0107
514.836	0.0103
515.134	0.009
515.432	0.0098
515.73	0.0103
516.028	0.0082
516.326	0.0089
516.623	0.0088
516.921	0.0092
517.219	0.0105
517.516	0.0092
517.814	0.0099
518.111	0.0081
518.409	0.0078
518.706	0.0093
519.003	0.0077
519.3	0.0082
519.597	0.0082
519.894	0.0081
520.191	0.0086
520.488	0.0078
520.785	0.0068
521.082	0.0083
521.378	0.0075
521.675	0.0073
521.971	0.0064
522.268	0.0068
522.564	0.0068
522.861	0.0065
523.157	0.0067
523.453	0.0064
523.749	0.0057
524.045	0.0054
524.341	0.0056
524.637	0.0058
524.933	0.0061
525.229	0.0058
525.524	0.0055
525.82	0.0044
526.115	0.0055
526.411	0.005
526.706	0.0035
527.002	0.0034
527.297	0.0037
527.592	0.0043
527.887	0.0034
528.182	0.0017
528.477	0.0038
528.772	0.0028
529.067	0.003
529.362	0.003
529.657	0.0034
529.951	0.0035
530.246	0.0044
530.54	0.0036
530.835	0.0037
531.129	0.0055
531.423	0.0036
531.718	0.0034
532.012	0.0037
532.306	0.0039
532.6	0.0039
532.894	0.0033
533.188	0.0024
533.482	0.0041
533.775	0.0038
534.069	0.0036
534.363	0.0025
534.656	0.0025
534.95	0.0028
535.243	0.0023
535.536	0.0042
535.83	0.0025
536.123	0.003
536.416	0.0033
536.709	0.003
537.002	0.0025
537.295	0.0024
537.588	0.0016
537.881	0.0022
538.173	0.0017
538.466	0.0023
538.759	0.0015
539.051	0.0015
539.344	0.002
539.636	0.0025
539.928	0.0025
540.22	0.0022
540.513	0.0022
540.805	0.0024
541.097	0.0019
541.389	0.0027
541.681	0.0029
541.972	0.0019
542.264	0.0018
542.556	0.0026
542.847	0.0012
543.139	0.0018
543.431	0.0025
543.722	0.0016
544.013	0.0017
544.305	0.0024
544.596	0.0009
544.887	0.0013
545.178	0.001
545.469	0.0005
545.76	0.0014
546.051	0.0017
546.342	0.0009
546.632	0.0023
546.923	0.0012
547.214	0.0008
547.504	0.0011
547.795	0.0007
548.085	0.002
548.375	0.0014
548.666	-0
548.956	0.0024
549.246	0.0008
549.536	0.0009
549.826	0.0007
550.116	0.001
550.406	0.0007
550.695	0.0018
550.985	0.0016
551.275	0.0011
551.564	0.0011
551.854	0.0013
552.143	0.0014
552.433	0.001
552.722	0.0001
553.011	-0.0004
553.3	0.001
553.589	0.0007
553.879	-0.0004
554.167	0.0007
554.456	0.0001
554.745	0.0011
555.034	-0.0006
555.323	-0.0011
555.611	-0.0001
555.9	0.0006
556.188	0.0003
556.477	0.001
556.765	0.0008
557.053	0.0003
557.342	0.0014
557.63	-0.0003
557.918	0
558.206	0.0011
558.494	0.001
558.782	0.0006
559.069	0.0018
559.357	0.0011
559.645	0.0021
559.932	0.0002
560.22	0.0012
560.507	0.0008
560.795	0.0016
561.082	0.0003
561.37	0.0003
561.657	0.0016
561.944	0.0004
562.231	0.0001
562.518	0.0004
562.805	0.0003
563.092	0.0001
563.379	-0.0002
563.665	0.0007
563.952	-0
564.239	0.0012
564.525	0.001
564.811	0.0023
565.098	-0.0002
565.384	0.0018
565.67	0.002
565.957	0.0018
566.243	0.001
566.529	0.0013
566.815	0.0008
567.101	0.0001
567.387	0.0004
567.672	-0.0003
567.958	0.0014
568.244	0.0002
568.529	-0.0001
568.815	0.0008
569.1	0.0002
569.386	0.0012
569.671	0.0016
569.956	0.0014
570.242	0.0016
570.527	0.0007
570.812	0.001
571.097	0.001
571.382	0.0019
571.666	0.002
571.951	0.0014
572.236	0.0023
572.521	0.002
572.805	0.0026
573.09	0.0008
573.374	-0.0002
573.659	0.0019
573.943	0.0027
574.227	0.0023
574.511	0.0021
574.795	0.0023
575.079	0.0022
575.363	0.0008
575.647	0.0019
575.931	0.0019
576.215	0.0002
576.499	-0.0003
576.782	0.0006
577.066	0
577.349	0.0006
577.633	0.0005
577.916	0.0006
578.2	0.0012
578.483	0.0022
578.766	0.0025
579.049	0.002
579.332	0.0016
579.615	0.0009
579.898	0.001
580.181	0.0022
580.464	0.0007
580.746	0.001
581.029	0.002
581.312	0.0014
581.594	0.0005
581.877	0.0028
582.159	0.0025
582.441	0.0021
582.724	0.0017
583.006	0.002
583.288	0.0009
583.57	0.0018
583.852	0.0008
584.134	0.0007
584.416	0.0002
584.697	0.0009
584.979	0.0006
585.261	0.0001
585.542	0.0015
585.824	0.0007
586.105	0.0013
586.387	0.001
586.668	0.0011
586.949	-0
587.231	0.0006
587.512	0.0009
587.793	0.0015
588.074	0.0013
588.355	0.0011
588.636	0.0013
588.916	0.0014
589.197	0.002
589.478	0.001
589.758	0.0004
590.039	0.0004
590.319	0.0011
590.6	0.0007
590.88	0.0008
591.16	-0.0004
591.441	-0.0004
591.721	0
592.001	-0.0002
592.281	0.0001
592.561	0
592.841	-0.0011
593.12	0.0007
593.4	0.0013
593.68	0.0017
593.959	0.0016
594.239	0.0012
594.518	0.0017
594.798	0.001
595.077	0.0011
595.356	0.0009
595.636	0.001
595.915	0.0008
596.194	0.001
596.473	0.0002
596.752	0.0005
597.031	0.0003
597.31	0.0002
597.588	0.0014
597.867	0.0002
598.146	0.0006
598.424	0.0008
598.703	-0.0006
598.981	-0.0003
599.259	0.0006
599.538	0.0012
599.816	0.0006
600.094	-0.0004
600.372	0.0007
600.65	0.0012
600.928	-0.0001
601.206	-0.0017
601.484	-0.0008
601.762	-0.0014
602.04	-0.0019
602.317	-0.0014
602.595	-0.0008
602.872	-0.0015
603.15	-0.0009
603.427	-0.0004
603.704	0.0008
603.982	0.001
604.259	0.0006
604.536	0.0006
604.813	0.0006
605.09	-0.0001
605.367	-0.0011
605.644	-0.0011
605.921	-0.0011
606.197	-0.0015
606.474	0.0003
606.751	-0.0008
607.027	-0.0004
607.304	-0.0003
607.58	0.0001
607.856	-0.0001
608.133	0.0003
608.409	-0.0007
608.685	-0.001
608.961	-0.0009
609.237	-0.0013
609.513	-0.0008
609.789	-0.0016
610.065	-0.0014
610.341	-0.0009
610.616	-0.0002
610.892	-0.0005
611.167	-0.0013
611.443	0
611.718	0.0004
611.994	-0.0002
612.269	0.0001
612.544	-0.0002
612.819	-0.0004
613.095	-0.0003
613.37	0.0004
613.645	0.0002
613.919	0.0007
614.194	0.001
614.469	0.0005
614.744	-0.0008
615.019	-0
615.293	-0
615.568	-0.0008
615.842	-0.0008
616.116	-0.0005
616.391	-0.0022
616.665	-0.0023
616.939	-0.0017
617.213	-0.0008
617.488	-0.0012
617.762	-0.0025
618.035	-0.0017
618.309	-0.003
618.583	-0.0019
618.857	-0.0014
619.131	-0.002
619.404	-0.0017
619.678	-0.0022
619.951	-0.0032
620.225	-0.0012
620.498	0.0003
620.771	-0.0015
621.045	-0.0012
621.318	-0.0007
621.591	-0.0022
621.864	-0.0018
622.137	-0.0006
622.41	-0.0003
622.683	-0.0003
622.956	-0.0011
623.228	-0.0021
623.501	-0.0006
623.774	-0.0019
624.046	-0.002
624.319	-0.0021
624.591	-0.0031
624.863	-0.0017
625.136	-0.0017
625.408	-0.0021
625.68	-0.0027
625.952	-0.0016
626.224	-0.002
626.496	-0.003
626.768	-0.0018
627.04	-0.0033
627.311	-0.0044
627.583	-0.0028
627.855	-0.002
628.126	-0.0029
628.398	-0.0024
628.669	-0.0042
628.941	-0.0039
629.212	-0.0031
629.483	-0.0016
629.755	-0.0024
630.026	-0.0026
630.297	-0.0018
630.568	-0.004
630.839	-0.002
631.11	-0.0032
631.38	-0.0034
631.651	-0.0032
631.922	-0.0028
632.192	-0.0023
632.463	-0.0031
632.733	-0.0038
633.004	-0.0035
633.274	-0.0038
633.545	-0.0027
633.815	-0.0025
634.085	-0.0032
634.355	-0.0023
634.625	-0.0025
634.895	-0.0019
635.165	-0.0027
635.435	-0.0025
635.705	-0.0043
635.974	-0.0038
636.244	-0.0045
636.514	-0.0025
636.783	-0.0022
637.053	-0.0015
637.322	-0.0019
637.591	-0.0031
637.861	-0.0036
638.13	-0.0031
638.399	-0.0016
638.668	-0.002
638.937	-0.0033
639.206	-0.0027
639.475	-0.0021
639.744	-0.0024
640.013	-0.0024
640.281	-0.0011
640.55	-0.0034
640.819	-0.0011
641.087	-0.001
641.356	-0.0022
641.624	-0.0023
641.892	-0.0033
642.161	-0.0029
642.429	-0.0034
642.697	-0.0033
642.965	-0.0022
643.233	-0.0032
643.501	-0.0028
643.769	-0.0038
644.037	-0.0029
644.305	-0.0037
644.572	-0.0034
644.84	-0.0043
645.108	-0.0044
645.375	-0.0065
645.643	-0.0065
645.91	-0.0055
646.177	-0.0058
646.445	-0.0066
646.712	-0.0067
646.979	-0.0058
647.246	-0.0045
647.513	-0.0032
647.78	-0.0032
648.047	-0.0028
648.314	-0.0023
648.58	-0.0031
648.847	-0.0021
649.114	-0.0039
649.38	-0.005
649.647	-0.0039
649.913	-0.0032
650.18	-0.005
650.446	-0.005
650.712	-0.0055
650.978	-0.0047
651.245	-0.0052
651.511	-0.0041
651.777	-0.0032
652.043	-0.003
652.309	-0.0043
652.574	-0.0039
652.84	-0.0048
653.106	-0.0056
653.371	-0.0058
653.637	-0.0055
653.903	-0.0042
654.168	-0.0044
654.433	-0.0035
654.699	-0.0031
654.964	-0.0022
655.229	-0.0036
655.494	-0.0026
655.759	-0.0045
656.024	0.0012
656.289	-0
656.554	0.0066
656.819	0.0003
657.084	-0.0026
657.349	-0.005
657.613	-0.0036
657.878	-0.0044
658.142	-0.0045
658.407	-0.0045
658.671	-0.0042
658.936	-0.0034
659.2	-0.003
659.464	-0.0026
659.728	-0.0019
659.992	-0.0039
660.256	-0.0027
660.52	-0.0049
660.784	-0.0047
661.048	-0.0047
661.312	-0.0037
661.575	-0.0046
661.839	-0.0045
662.103	-0.0045
662.366	-0.0046
662.63	-0.0046
662.893	-0.0037
663.156	-0.0046
663.42	-0.0031
663.683	-0.0049
663.946	-0.0047
664.209	-0.0036
664.472	-0.0026
664.735	-0.0024
664.998	-0.0024
665.261	-0.0037
665.524	-0.004
665.786	-0.0039
666.049	-0.0036
666.312	-0.0029
666.574	-0.0022
666.837	-0.0031
667.099	-0.0032
667.361	-0.0041
667.624	-0.0052
667.886	-0.0049
668.148	-0.0035
668.41	-0.0034
668.672	-0.0036
668.934	-0.0037
669.196	-0.0033
669.458	-0.0032
669.72	-0.0033
669.982	-0.0024
670.243	-0.003
670.505	-0.0034
670.766	-0.0041
671.028	-0.0039
671.289	-0.0036
671.551	-0.0044
671.812	-0.0033
672.073	-0.0016
672.334	-0.0027
672.596	-0.0021
672.857	-0.0016
673.118	-0.0015
673.379	-0.0016
673.639	-0.0018
673.9	-0.0047
674.161	-0.0028
674.422	-0.0029
674.682	-0.0035
674.943	-0.0032
675.203	-0.0024
675.464	-0.0035
675.724	-0.0022
675.985	-0.0024
676.245	-0.0026
676.505	-0.0039
676.765	-0.0038
677.025	-0.0042
677.285	-0.0053
677.545	-0.0047
677.805	-0.0049
678.065	-0.0044
678.325	-0.0012
678.585	-0.0032
678.844	-0.0025
679.104	-0.0018
679.363	-0.0033
679.623	-0.0035
679.882	-0.0027
680.142	-0.0023
680.401	-0.0022
680.66	-0.0033
680.919	-0.0039
681.178	-0.0031
681.437	-0.0039
681.696	-0.0027
681.955	-0.0025
682.214	-0.0025
682.473	-0.0019
682.732	-0.0033
682.99	-0.0034
683.249	-0.0037
683.508	-0.0044
683.766	-0.0028
684.024	-0.0025
684.283	-0.0039
684.541	-0.0031
684.799	-0.0028
685.058	-0.0032
685.316	-0.0034
685.574	-0.0028
685.832	-0.0041
686.09	-0.0036
686.348	-0.0043
686.606	-0.0042
686.863	-0.0046
687.121	-0.0051
687.379	-0.0057
687.636	-0.0058
687.894	-0.0039
688.151	-0.005
688.409	-0.0054
688.666	-0.0048
688.923	-0.0059
689.181	-0.0043
689.438	-0.0041
689.695	-0.0031
689.952	-0.0013
690.209	-0.0025
690.466	-0.0023
690.723	-0.0036
690.979	-0.0044
691.236	-0.0042
691.493	-0.0033
691.75	-0.0035
692.006	-0.0035
692.263	-0.0035
692.519	-0.0036
692.775	-0.004
693.032	-0.0034
693.288	-0.0045
693.544	-0.0045
693.8	-0.0052
694.056	-0.0056
694.313	-0.0054
694.568	-0.0048
694.824	-0.0058
695.08	-0.0053
695.336	-0.0047
695.592	-0.0053
695.847	-0.0042
696.103	-0.0063
696.359	-0.005
696.614	-0.0056
696.869	-0.006
697.125	-0.0061
697.38	-0.0035
697.635	-0.0052
697.891	-0.0043
698.146	-0.0054
698.401	-0.0072
698.656	-0.0069
698.911	-0.0072
699.166	-0.0086
699.42	-0.0079
699.675	-0.008
699.93	-0.0067
700.185	-0.006
700.439	-0.0051
700.694	-0.0046
700.948	-0.0049
701.203	-0.0049
701.457	-0.0052
701.711	-0.0055
701.965	-0.0056
702.22	-0.0042
702.474	-0.0042
702.728	-0.0035
702.982	-0.0027
703.236	-0.0031
703.49	-0.0039
703.743	-0.0044
703.997	-0.0056
704.251	-0.0051
704.504	-0.0052
704.758	-0.0042
705.012	-0.005
705.265	-0.0051
705.518	-0.0056
705.772	-0.0053
706.025	-0.0052
706.278	-0.0051
706.531	-0.005
706.785	-0.0056
707.038	-0.0046
707.291	-0.0043
707.543	-0.0055
707.796	-0.0041
708.049	-0.0051
708.302	-0.0042
708.555	-0.0042
708.807	-0.0023
709.06	-0.0037
709.312	-0.0031
709.565	-0.0042
709.817	-0.0049
710.069	-0.0052
710.322	-0.0062
710.574	-0.0063
710.826	-0.0043
711.078	-0.0022
711.33	-0.0025
711.582	-0.0021
711.834	-0.0038
712.086	-0.0042
712.338	-0.0052
712.59	-0.0066
712.841	-0.0058
713.093	-0.0038
713.344	-0.0062
713.596	-0.0056
713.847	-0.0055
714.099	-0.0046
714.35	-0.0062
714.601	-0.007
714.853	-0.0061
715.104	-0.0073
715.355	-0.0076
715.606	-0.0053
715.857	-0.0069
716.108	-0.0063
716.359	-0.0077
716.609	-0.0074
716.86	-0.0074
717.111	-0.0075
717.361	-0.0069
717.612	-0.0077
717.863	-0.0077
718.113	-0.0086
718.363	-0.0085
718.614	-0.0066
718.864	-0.0066
719.114	-0.0077
719.364	-0.0078
719.614	-0.0073
719.865	-0.0076
720.114	-0.0082
720.364	-0.0077
720.614	-0.0072
720.864	-0.0075
721.114	-0.0054
721.364	-0.0058
721.613	-0.0058
721.863	-0.0055
722.112	-0.0056
722.362	-0.0059
722.611	-0.0059
722.86	-0.0074
723.11	-0.008
723.359	-0.0073
723.608	-0.0063
723.857	-0.0057
724.106	-0.0065
724.355	-0.0052
724.604	-0.0048
724.853	-0.0057
725.102	-0.0062
725.351	-0.0052
725.599	-0.0057
725.848	-0.0044
726.097	-0.004
726.345	-0.0027
726.594	-0.002
726.842	-0.0028
727.09	-0.0048
727.339	-0.0054
727.587	-0.0046
727.835	-0.0059
728.083	-0.005
728.331	-0.0058
728.579	-0.005
728.827	-0.0035
729.075	-0.0049
729.323	-0.0029
729.571	-0.002
729.818	-0.0031
730.066	-0.0018
730.314	-0.0038
730.561	-0.0032
730.809	-0.0066
731.056	-0.0052
731.303	-0.0028
731.551	-0.0052
731.798	-0.0058
732.045	-0.0043
732.292	-0.0047
732.539	-0.0056
732.786	-0.0053
733.033	-0.0047
733.28	-0.0035
733.527	-0.0048
733.774	-0.0047
734.021	-0.0034
734.267	-0.0042
734.514	-0.0039
734.76	-0.0027
735.007	-0.004
735.253	-0.0052
735.5	-0.0047
735.746	-0.0044
735.992	-0.0041
736.238	-0.0043
736.485	-0.0055
736.731	-0.0058
736.977	-0.0072
737.223	-0.0056
737.469	-0.0069
737.715	-0.0054
737.96	-0.0056
738.206	-0.0043
738.452	-0.0022
738.697	-0.0027
738.943	-0.0028
739.189	-0.0039
739.434	-0.0029
739.679	-0.0027
739.925	-0.0029
740.17	-0.0044
740.415	-0.0044
740.66	-0.0043
740.906	-0.0045
741.151	-0.0051
741.396	-0.0044
741.641	-0.0052
741.886	-0.0058
742.13	-0.0056
742.375	-0.005
742.62	-0.007
742.865	-0.0048
743.109	-0.0056
743.354	-0.0064
743.598	-0.0064
743.843	-0.0058
744.087	-0.0049
744.331	-0.0055
744.576	-0.0052
744.82	-0.007
745.064	-0.007
745.308	-0.0068
745.552	-0.0072
745.796	-0.0059
746.04	-0.0059
746.284	-0.0057
746.528	-0.0065
746.771	-0.0072
747.015	-0.0068
747.259	-0.0072
747.502	-0.0054
747.746	-0.005
747.989	-0.0067
748.233	-0.007
748.476	-0.0068
748.719	-0.0082
748.963	-0.0069
749.206	-0.0057
749.449	-0.006
749.692	-0.0044
749.935	-0.0044
750.178	-0.0049
750.421	-0.0059
750.664	-0.0078
750.906	-0.0079
751.149	-0.0085
751.392	-0.0081
751.635	-0.0073
751.877	-0.0064
752.12	-0.0061
752.362	-0.0062
752.604	-0.0068
752.847	-0.0065
753.089	-0.0059
753.331	-0.0066
753.573	-0.0063
753.816	-0.0047
754.058	-0.0053
754.3	-0.0054
754.542	-0.0064
754.783	-0.0077
755.025	-0.0072
755.267	-0.009
755.509	-0.0089
755.75	-0.0095
755.992	-0.0081
756.234	-0.0078
756.475	-0.0082
756.716	-0.0063
756.958	-0.0051
757.199	-0.0038
757.44	-0.0066
757.682	-0.0067
757.923	-0.0038
758.164	-0.005
758.405	-0.0052
758.646	-0.0052
758.887	-0.0048
759.128	-0.0063
759.369	-0.0069
759.609	-0.0054
759.85	-0.0062
760.091	-0.0058
760.331	-0.0064
760.572	-0.0059
760.812	-0.0062
761.053	-0.0043
761.293	-0.0042
761.533	-0.0047
761.774	-0.0036
762.014	-0.0046
762.254	-0.0052
762.494	-0.0048
762.734	-0.0051
762.974	-0.0058
763.214	-0.0051
763.454	-0.0058
763.694	-0.0056
763.933	-0.0042
764.173	-0.0051
764.413	-0.0053
764.652	-0.0049
764.892	-0.0056
765.131	-0.0052
765.371	-0.0052
765.61	-0.0063
765.849	-0.0071
766.089	-0.0067
766.328	-0.0073
766.567	-0.0062
766.806	-0.0069
767.045	-0.0054
767.284	-0.0046
767.523	-0.0046
767.762	-0.006
768.001	-0.0054
768.239	-0.0053
768.478	-0.0038
768.717	-0.0051
768.955	-0.005
769.194	-0.0043
769.432	-0.0047
769.671	-0.0039
769.909	-0.0044
770.148	-0.0047
770.386	-0.0041
770.624	-0.0039
770.862	-0.0028
771.1	-0.0035
771.338	-0.0039
771.576	-0.0029
771.814	-0.0044
772.052	-0.0052
772.29	-0.0062
772.528	-0.0053
772.765	-0.0044
773.003	-0.0041
773.24	-0.0038
773.478	-0.003
773.716	-0.0024
773.953	-0.0032
774.19	-0.0019
774.428	-0.0022
774.665	-0.0022
774.902	-0.0022
775.139	-0.0014
775.376	-0.0028
775.613	-0.0023
775.85	-0.0026
776.087	-0.002
776.324	-0.0023
776.561	-0.0025
776.798	-0.0008
777.034	-0.0008
777.271	-0.0004
777.508	-0.0012
777.744	-0.0021
777.981	-0.0014
778.217	-0.0028
778.454	-0.0029
778.69	-0.0031
778.926	-0.0042
779.162	-0.0051
779.399	-0.0055
779.635	-0.0063
779.871	-0.007
780.107	-0.007
780.343	-0.0068
780.579	-0.0054
780.814	-0.0055
781.05	-0.0064
781.286	-0.0066
781.522	-0.0039
781.757	-0.0031
781.993	-0.0029
782.228	-0.0029
782.464	-0.0029
782.699	-0.003
782.934	-0.0038
783.17	-0.0034
783.405	-0.0033
783.64	-0.0044
783.875	-0.0032
784.11	-0.003
784.345	-0.0029
784.58	-0.0033
784.815	-0.0026
785.05	-0.0045
785.285	-0.0047
785.52	-0.0036
785.754	-0.0039
785.989	-0.0045
786.223	-0.0037
786.458	-0.0037
786.692	-0.0034
786.927	-0.0029
787.161	-0.0036
787.396	-0.0034
787.63	-0.0022
787.864	-0.0029
788.098	-0.0027
788.332	-0.0022
788.566	-0.0026
788.8	-0.0021
789.034	-0.0025
789.268	-0.0013
789.502	-0.0021
789.736	-0.0017
789.969	-0.0012
790.203	-0.0031
790.437	-0.0034
790.67	-0.0036
790.904	-0.0037
791.137	-0.0042
791.37	-0.0048
791.604	-0.0047
791.837	-0.0052
792.07	-0.004
792.303	-0.0042
792.537	-0.0064
792.77	-0.0059
793.003	-0.0058
793.236	-0.0061
793.469	-0.0038
793.701	-0.0049
793.934	-0.0046
794.167	-0.0051
794.4	-0.0041
794.632	-0.0028
794.865	-0.0043
795.097	-0.0047
795.33	-0.0055
795.562	-0.0052
795.795	-0.0048
796.027	-0.0064
796.259	-0.0063
796.491	-0.0081
796.724	-0.0059
796.956	-0.0065
797.188	-0.0057
797.42	-0.0061
797.652	-0.0053
797.883	-0.0056
798.115	-0.0053
798.347	-0.0053
798.579	-0.0058
798.81	-0.0063
799.042	-0.006
799.274	-0.0053
799.505	-0.0043
799.737	-0.0042
799.968	-0.0035
800.199	-0.0031
800.431	-0.002
800.662	-0.0031
800.893	-0.0027
801.124	-0.0013
801.355	-0.003
801.586	-0.0011
801.817	-0.0037
802.048	-0.0035
802.279	-0.0046
802.51	-0.0062
802.741	-0.0041
802.971	-0.0056
803.202	-0.0059
803.433	-0.0053
803.663	-0.0052
803.894	-0.0048
804.124	-0.0049
804.354	-0.0051
804.585	-0.0052
804.815	-0.0047
805.045	-0.0063
805.275	-0.0051
805.506	0.0105
805.736	-0.0572
805.966	0.0502
806.196	0.0154
