Data from 03 0.2 mM BQDS 0.4 mM K2Cr2O7 1 M H2SO4 5 min_Absorbance_10-47-42-316.txt Node
Date: Wed Dec 08 10:47:42 EST 2021
User: kwabilab-user
Spectrometer: HDX00518
Trigger mode: 0
Integration Time (sec): 5.000000E-2
Scans to average: 50
Nonlinearity correction enabled: false
Boxcar width: 0
Storing dark spectrum: false
XAxis mode: Wavelengths
Number of Pixels in Spectrum: 2068
>>>>>Begin Spectral Data<<<<<
195.27	0.0012
195.642	-0.0119
196.014	0.0053
196.386	-0.0099
196.758	-0.006
197.129	-0.0075
197.501	0.0325
197.872	0.0755
198.244	0.1048
198.615	0.0947
198.986	0.0963
199.357	0.0851
199.728	0.104
200.099	0.0901
200.47	0.0987
200.841	0.0894
201.212	0.0889
201.582	0.085
201.953	0.1106
202.323	0.0939
202.694	0.0856
203.064	0.1002
203.434	0.0888
203.804	0.1107
204.174	0.0865
204.544	0.0957
204.914	0.0888
205.284	0.1065
205.653	0.1122
206.023	0.1005
206.393	0.0841
206.762	0.1011
207.131	0.0909
207.501	0.1171
207.87	0.1039
208.239	0.1042
208.608	0.0976
208.977	0.0991
209.346	0.1156
209.715	0.1112
210.083	0.1239
210.452	0.1178
210.82	0.1161
211.189	0.1221
211.557	0.1166
211.925	0.1336
212.294	0.1394
212.662	0.1418
213.03	0.1401
213.398	0.134
213.766	0.1618
214.133	0.1739
214.501	0.1768
214.869	0.1956
215.236	0.2146
215.604	0.2134
215.971	0.2192
216.338	0.2444
216.705	0.2666
217.072	0.2783
217.439	0.2907
217.806	0.3334
218.173	0.3493
218.54	0.3814
218.907	0.4214
219.273	0.4659
219.64	0.4866
220.006	0.5252
220.373	0.5694
220.739	0.5992
221.105	0.6345
221.471	0.6644
221.837	0.7094
222.203	0.7407
222.569	0.7715
222.935	0.8112
223.3	0.8311
223.666	0.8743
224.031	0.8924
224.397	0.9089
224.762	0.9283
225.127	0.9396
225.493	0.9639
225.858	0.975
226.223	0.9808
226.588	0.9845
226.952	0.993
227.317	1.0003
227.682	0.994
228.046	0.9845
228.411	0.9988
228.775	0.9895
229.14	0.9851
229.504	0.9836
229.868	0.9808
230.232	0.9744
230.596	0.9621
230.96	0.9605
231.324	0.9485
231.688	0.939
232.052	0.933
232.415	0.9246
232.779	0.9179
233.142	0.9118
233.505	0.901
233.869	0.8955
234.232	0.8833
234.595	0.8722
234.958	0.8637
235.321	0.8543
235.684	0.8452
236.047	0.84
236.409	0.8248
236.772	0.8189
237.134	0.8086
237.497	0.7993
237.859	0.7941
238.222	0.7852
238.584	0.7769
238.946	0.7659
239.308	0.7589
239.67	0.7519
240.032	0.7459
240.393	0.7383
240.755	0.7315
241.117	0.7234
241.478	0.7193
241.84	0.7066
242.201	0.7025
242.562	0.6971
242.924	0.6908
243.285	0.6835
243.646	0.6796
244.007	0.6762
244.368	0.6692
244.728	0.6628
245.089	0.6609
245.45	0.6539
245.81	0.6512
246.171	0.6496
246.531	0.6433
246.891	0.6382
247.252	0.6351
247.612	0.6312
247.972	0.6251
248.332	0.625
248.692	0.623
249.051	0.6193
249.411	0.6153
249.771	0.61
250.13	0.6102
250.49	0.6087
250.849	0.6054
251.208	0.6027
251.568	0.6006
251.927	0.5984
252.286	0.5975
252.645	0.5958
253.004	0.5916
253.363	0.5916
253.721	0.5895
254.08	0.587
254.439	0.5841
254.797	0.5812
255.155	0.5783
255.514	0.5808
255.872	0.579
256.23	0.5743
256.588	0.5758
256.946	0.5731
257.304	0.5729
257.662	0.5711
258.02	0.5697
258.377	0.5674
258.735	0.5645
259.093	0.5655
259.45	0.5629
259.807	0.561
260.165	0.56
260.522	0.5582
260.879	0.5564
261.236	0.5538
261.593	0.5527
261.95	0.5481
262.306	0.5503
262.663	0.5458
263.02	0.5457
263.376	0.5438
263.733	0.5414
264.089	0.5409
264.445	0.5373
264.802	0.5336
265.158	0.5324
265.514	0.5314
265.87	0.5311
266.226	0.5285
266.581	0.5259
266.937	0.5218
267.293	0.5219
267.648	0.5194
268.004	0.5139
268.359	0.5132
268.714	0.5111
269.07	0.5091
269.425	0.5071
269.78	0.505
270.135	0.5017
270.49	0.4986
270.844	0.4982
271.199	0.4948
271.554	0.4925
271.908	0.4876
272.263	0.4852
272.617	0.4835
272.972	0.4807
273.326	0.4789
273.68	0.4749
274.034	0.4717
274.388	0.4709
274.742	0.4646
275.096	0.4624
275.45	0.4598
275.803	0.4554
276.157	0.4527
276.51	0.4491
276.864	0.4475
277.217	0.4429
277.571	0.4391
277.924	0.4356
278.277	0.4316
278.63	0.429
278.983	0.4254
279.336	0.423
279.688	0.4183
280.041	0.4141
280.394	0.4095
280.746	0.4075
281.099	0.4027
281.451	0.3986
281.803	0.396
282.156	0.3925
282.508	0.388
282.86	0.386
283.212	0.3806
283.564	0.3776
283.916	0.3743
284.267	0.371
284.619	0.3657
284.971	0.3624
285.322	0.3591
285.673	0.3555
286.025	0.3521
286.376	0.3473
286.727	0.3428
287.078	0.3404
287.429	0.3369
287.78	0.3317
288.131	0.3293
288.482	0.3242
288.833	0.3211
289.183	0.3166
289.534	0.3139
289.884	0.3098
290.235	0.3069
290.585	0.3023
290.935	0.2987
291.285	0.2954
291.635	0.2921
291.985	0.2867
292.335	0.2835
292.685	0.2801
293.035	0.2761
293.384	0.272
293.734	0.2691
294.083	0.2651
294.433	0.2617
294.782	0.2582
295.131	0.2554
295.48	0.2519
295.829	0.2492
296.179	0.2442
296.527	0.2414
296.876	0.238
297.225	0.2362
297.574	0.2318
297.922	0.229
298.271	0.2255
298.619	0.2221
298.968	0.2196
299.316	0.2169
299.664	0.2138
300.012	0.211
300.36	0.208
300.708	0.205
301.056	0.2028
301.404	0.2006
301.752	0.1973
302.099	0.1961
302.447	0.1939
302.794	0.1907
303.142	0.1887
303.489	0.1865
303.836	0.1849
304.183	0.1827
304.531	0.1809
304.878	0.1788
305.224	0.1772
305.571	0.1759
305.918	0.1744
306.265	0.1722
306.611	0.1712
306.958	0.1697
307.304	0.1676
307.651	0.1667
307.997	0.1656
308.343	0.1646
308.689	0.1639
309.035	0.1627
309.381	0.1619
309.727	0.1601
310.073	0.1607
310.419	0.1597
310.764	0.1584
311.11	0.1585
311.455	0.1573
311.801	0.1558
312.146	0.1563
312.491	0.1556
312.837	0.1552
313.182	0.1552
313.527	0.1552
313.872	0.1543
314.216	0.1545
314.561	0.1544
314.906	0.1545
315.251	0.1545
315.595	0.1541
315.94	0.154
316.284	0.1544
316.628	0.1536
316.972	0.1541
317.317	0.1542
317.661	0.1549
318.005	0.1556
318.348	0.1555
318.692	0.1563
319.036	0.1566
319.38	0.1567
319.723	0.1576
320.067	0.1577
320.41	0.1587
320.754	0.1592
321.097	0.1606
321.44	0.1608
321.783	0.1614
322.126	0.1622
322.469	0.1631
322.812	0.1637
323.155	0.1648
323.498	0.1662
323.84	0.1668
324.183	0.1678
324.525	0.1683
324.868	0.1692
325.21	0.1705
325.552	0.1718
325.894	0.1725
326.236	0.1734
326.578	0.1748
326.92	0.1762
327.262	0.1767
327.604	0.1785
327.946	0.1792
328.287	0.1805
328.629	0.1815
328.97	0.1826
329.312	0.184
329.653	0.1849
329.994	0.1866
330.335	0.1873
330.676	0.1886
331.017	0.189
331.358	0.1912
331.699	0.1925
332.04	0.1937
332.38	0.1946
332.721	0.1962
333.061	0.1967
333.402	0.1989
333.742	0.2003
334.083	0.2016
334.423	0.2018
334.763	0.203
335.103	0.2046
335.443	0.205
335.783	0.2059
336.123	0.206
336.462	0.2084
336.802	0.2088
337.141	0.2105
337.481	0.2109
337.82	0.2113
338.16	0.2128
338.499	0.2133
338.838	0.2144
339.177	0.2162
339.516	0.2163
339.855	0.2173
340.194	0.2187
340.533	0.2196
340.872	0.22
341.21	0.2212
341.549	0.2211
341.887	0.2226
342.226	0.223
342.564	0.2231
342.902	0.2232
343.24	0.2236
343.578	0.2239
343.916	0.2247
344.254	0.2249
344.592	0.2253
344.93	0.2249
345.268	0.2254
345.605	0.2249
345.943	0.2257
346.28	0.2255
346.618	0.2258
346.955	0.2258
347.292	0.2262
347.629	0.2268
347.966	0.2267
348.303	0.2266
348.64	0.2267
348.977	0.2259
349.314	0.2264
349.65	0.227
349.987	0.2268
350.324	0.2257
350.66	0.2255
350.996	0.225
351.333	0.2249
351.669	0.2238
352.005	0.2231
352.341	0.2226
352.677	0.2219
353.013	0.2209
353.349	0.2203
353.685	0.2189
354.02	0.2182
354.356	0.2176
354.691	0.2163
355.027	0.2158
355.362	0.2141
355.697	0.2137
356.033	0.2127
356.368	0.2114
356.703	0.2105
357.038	0.2101
357.373	0.2095
357.707	0.2085
358.042	0.2079
358.377	0.2062
358.711	0.2052
359.046	0.2048
359.38	0.203
359.715	0.2026
360.049	0.2015
360.383	0.2009
360.717	0.1992
361.051	0.1975
361.385	0.1963
361.719	0.194
362.053	0.1936
362.387	0.1909
362.72	0.1901
363.054	0.1886
363.387	0.1865
363.721	0.1848
364.054	0.1825
364.387	0.1812
364.721	0.1802
365.054	0.1789
365.387	0.1769
365.72	0.175
366.053	0.1735
366.385	0.1719
366.718	0.1715
367.051	0.1696
367.383	0.1682
367.716	0.1668
368.048	0.1663
368.381	0.1642
368.713	0.164
369.045	0.1622
369.377	0.1602
369.709	0.1588
370.041	0.1578
370.373	0.1574
370.705	0.1552
371.037	0.1534
371.368	0.1519
371.7	0.1509
372.031	0.1491
372.363	0.1473
372.694	0.146
373.025	0.1438
373.356	0.1421
373.688	0.1395
374.019	0.1376
374.35	0.1367
374.68	0.1345
375.011	0.1327
375.342	0.1304
375.673	0.1293
376.003	0.1269
376.334	0.1254
376.664	0.1235
376.995	0.1225
377.325	0.121
377.655	0.1201
377.985	0.118
378.315	0.1179
378.645	0.1156
378.975	0.1151
379.305	0.1134
379.635	0.1127
379.964	0.1107
380.294	0.1094
380.623	0.1085
380.953	0.1075
381.282	0.1064
381.611	0.1046
381.941	0.1039
382.27	0.1025
382.599	0.1006
382.928	0.099
383.257	0.0979
383.585	0.0972
383.914	0.0958
384.243	0.0942
384.571	0.0925
384.9	0.0907
385.228	0.0895
385.557	0.0883
385.885	0.0873
386.213	0.0855
386.541	0.0842
386.869	0.0825
387.197	0.0798
387.525	0.0792
387.853	0.0778
388.181	0.077
388.508	0.0758
388.836	0.0748
389.164	0.0736
389.491	0.0728
389.818	0.0712
390.146	0.07
390.473	0.0686
390.8	0.0675
391.127	0.067
391.454	0.0664
391.781	0.0649
392.108	0.0638
392.435	0.0624
392.761	0.0615
393.088	0.0611
393.415	0.0608
393.741	0.0608
394.067	0.0594
394.394	0.0588
394.72	0.058
395.046	0.0567
395.372	0.056
395.698	0.0549
396.024	0.0548
396.35	0.0534
396.676	0.0536
397.001	0.0527
397.327	0.0515
397.653	0.0504
397.978	0.0494
398.303	0.0487
398.629	0.0478
398.954	0.048
399.279	0.0474
399.604	0.0467
399.929	0.0463
400.254	0.0457
400.579	0.0456
400.904	0.0444
401.229	0.0437
401.553	0.0426
401.878	0.0425
402.202	0.0419
402.527	0.0418
402.851	0.0414
403.175	0.0409
403.5	0.0404
403.824	0.0404
404.148	0.0398
404.472	0.0401
404.796	0.039
405.119	0.0386
405.443	0.0381
405.767	0.0385
406.09	0.0385
406.414	0.0383
406.737	0.0379
407.061	0.038
407.384	0.0377
407.707	0.037
408.03	0.0382
408.353	0.0374
408.676	0.0371
408.999	0.0366
409.322	0.0368
409.645	0.0372
409.968	0.0363
410.29	0.0368
410.613	0.0364
410.935	0.0362
411.258	0.0366
411.58	0.0363
411.902	0.0366
412.224	0.0365
412.546	0.0365
412.868	0.0362
413.19	0.0361
413.512	0.0365
413.834	0.0361
414.156	0.0366
414.477	0.0359
414.799	0.0363
415.121	0.0365
415.442	0.0361
415.763	0.0367
416.085	0.0362
416.406	0.0371
416.727	0.0362
417.048	0.036
417.369	0.036
417.69	0.0356
418.011	0.0363
418.331	0.0365
418.652	0.0365
418.973	0.0368
419.293	0.0366
419.614	0.0362
419.934	0.0365
420.254	0.0371
420.574	0.0363
420.895	0.0364
421.215	0.0362
421.535	0.0358
421.855	0.0366
422.174	0.036
422.494	0.0366
422.814	0.037
423.134	0.0366
423.453	0.037
423.773	0.0372
424.092	0.0366
424.411	0.0367
424.731	0.0371
425.05	0.0372
425.369	0.0373
425.688	0.0377
426.007	0.0371
426.326	0.0377
426.644	0.0381
426.963	0.038
427.282	0.0381
427.6	0.0375
427.919	0.038
428.237	0.0382
428.556	0.0388
428.874	0.0378
429.192	0.0375
429.51	0.0379
429.828	0.0387
430.146	0.0378
430.464	0.0383
430.782	0.0382
431.1	0.0385
431.418	0.0377
431.735	0.038
432.053	0.0387
432.37	0.0385
432.688	0.0386
433.005	0.0386
433.322	0.0382
433.639	0.0384
433.957	0.0385
434.274	0.0388
434.591	0.0386
434.907	0.0392
435.224	0.0388
435.541	0.0391
435.858	0.0388
436.174	0.0392
436.491	0.0388
436.807	0.0387
437.124	0.0381
437.44	0.0388
437.756	0.0381
438.072	0.0385
438.388	0.0394
438.704	0.0388
439.02	0.039
439.336	0.0386
439.652	0.0391
439.968	0.0385
440.283	0.0382
440.599	0.0386
440.914	0.0384
441.23	0.0386
441.545	0.0391
441.86	0.0382
442.175	0.0388
442.491	0.0385
442.806	0.0382
443.121	0.0386
443.435	0.038
443.75	0.0386
444.065	0.0383
444.38	0.0387
444.694	0.0381
445.009	0.0387
445.323	0.0383
445.638	0.0386
445.952	0.0383
446.266	0.0372
446.58	0.0384
446.894	0.0378
447.208	0.0387
447.522	0.0384
447.836	0.0369
448.15	0.0372
448.464	0.0369
448.777	0.0372
449.091	0.0371
449.404	0.0379
449.718	0.0382
450.031	0.0373
450.345	0.0372
450.658	0.037
450.971	0.0371
451.284	0.0366
451.597	0.0363
451.91	0.0372
452.223	0.037
452.535	0.037
452.848	0.0364
453.161	0.0365
453.473	0.037
453.786	0.0366
454.098	0.0363
454.411	0.0362
454.723	0.036
455.035	0.0362
455.347	0.0363
455.659	0.0363
455.971	0.0363
456.283	0.0359
456.595	0.0361
456.907	0.0357
457.218	0.0356
457.53	0.0353
457.841	0.0349
458.153	0.0349
458.464	0.0349
458.776	0.0333
459.087	0.0341
459.398	0.034
459.709	0.034
460.02	0.0342
460.331	0.0334
460.642	0.0334
460.953	0.034
461.263	0.0331
461.574	0.034
461.885	0.0334
462.195	0.0341
462.506	0.0329
462.816	0.0333
463.126	0.032
463.437	0.0318
463.747	0.0312
464.057	0.0321
464.367	0.0313
464.677	0.0312
464.987	0.0325
465.296	0.0305
465.606	0.0308
465.916	0.0306
466.225	0.0301
466.535	0.0302
466.844	0.0302
467.154	0.0303
467.463	0.0298
467.772	0.03
468.081	0.0295
468.39	0.0297
468.699	0.0294
469.008	0.03
469.317	0.0288
469.626	0.029
469.935	0.029
470.243	0.0294
470.552	0.0291
470.86	0.0291
471.169	0.028
471.477	0.0282
471.785	0.0286
472.093	0.0275
472.402	0.0276
472.71	0.0269
473.018	0.0271
473.326	0.0262
473.633	0.0263
473.941	0.0266
474.249	0.0263
474.556	0.0262
474.864	0.0255
475.171	0.0252
475.479	0.0256
475.786	0.026
476.094	0.0256
476.401	0.0265
476.708	0.0251
477.015	0.0258
477.322	0.0244
477.629	0.025
477.936	0.0238
478.242	0.0242
478.549	0.0237
478.856	0.0235
479.162	0.0239
479.469	0.0234
479.775	0.0242
480.081	0.0233
480.388	0.0232
480.694	0.022
481	0.0225
481.306	0.0229
481.612	0.0224
481.918	0.0215
482.224	0.0221
482.53	0.0211
482.835	0.0212
483.141	0.0204
483.446	0.0204
483.752	0.0205
484.057	0.019
484.363	0.0202
484.668	0.0199
484.973	0.0191
485.278	0.0202
485.583	0.0184
485.888	0.0188
486.193	0.0182
486.498	0.0187
486.803	0.0191
487.107	0.0185
487.412	0.0178
487.717	0.0179
488.021	0.0186
488.325	0.0173
488.63	0.017
488.934	0.0172
489.238	0.0173
489.542	0.0172
489.846	0.0164
490.15	0.0174
490.454	0.0173
490.758	0.0168
491.062	0.0163
491.366	0.0157
491.669	0.0152
491.973	0.0161
492.276	0.0157
492.58	0.0152
492.883	0.0156
493.186	0.0161
493.489	0.0151
493.792	0.0157
494.096	0.0153
494.399	0.0152
494.701	0.015
495.004	0.0143
495.307	0.0138
495.61	0.0133
495.912	0.013
496.215	0.0135
496.517	0.0136
496.82	0.0132
497.122	0.0134
497.424	0.012
497.727	0.0129
498.029	0.0131
498.331	0.0132
498.633	0.0125
498.935	0.012
499.237	0.0123
499.538	0.0122
499.84	0.0123
500.142	0.0123
500.443	0.0122
500.745	0.0116
501.046	0.0116
501.348	0.0108
501.649	0.0115
501.95	0.0105
502.251	0.0112
502.552	0.0101
502.853	0.0103
503.154	0.01
503.455	0.0098
503.756	0.0107
504.057	0.0107
504.357	0.0099
504.658	0.0087
504.958	0.0092
505.259	0.01
505.559	0.0101
505.859	0.0093
506.16	0.0084
506.46	0.0097
506.76	0.0093
507.06	0.0091
507.36	0.0092
507.66	0.0098
507.96	0.0092
508.259	0.0088
508.559	0.0077
508.859	0.009
509.158	0.0078
509.457	0.0083
509.757	0.0093
510.056	0.0079
510.355	0.008
510.655	0.0069
510.954	0.0079
511.253	0.0068
511.552	0.0075
511.851	0.0074
512.149	0.0077
512.448	0.0069
512.747	0.008
513.045	0.0059
513.344	0.0082
513.642	0.008
513.941	0.0068
514.239	0.0075
514.537	0.0068
514.836	0.0067
515.134	0.0069
515.432	0.0066
515.73	0.0071
516.028	0.0053
516.326	0.0068
516.623	0.0056
516.921	0.0065
517.219	0.0069
517.516	0.0058
517.814	0.0055
518.111	0.0065
518.409	0.0072
518.706	0.0063
519.003	0.0064
519.3	0.0054
519.597	0.0055
519.894	0.0054
520.191	0.0066
520.488	0.0066
520.785	0.0049
521.082	0.0057
521.378	0.0057
521.675	0.0043
521.971	0.0048
522.268	0.0054
522.564	0.0056
522.861	0.0051
523.157	0.0046
523.453	0.0054
523.749	0.0058
524.045	0.0057
524.341	0.0041
524.637	0.0043
524.933	0.0044
525.229	0.0049
525.524	0.0039
525.82	0.0054
526.115	0.0038
526.411	0.0034
526.706	0.0042
527.002	0.0052
527.297	0.003
527.592	0.0062
527.887	0.005
528.182	0.0046
528.477	0.0055
528.772	0.0041
529.067	0.0051
529.362	0.0049
529.657	0.0043
529.951	0.0041
530.246	0.0036
530.54	0.0018
530.835	0.0022
531.129	0.0024
531.423	0.0041
531.718	0.0033
532.012	0.0032
532.306	0.0037
532.6	0.0037
532.894	0.003
533.188	0.0037
533.482	0.0031
533.775	0.0036
534.069	0.0023
534.363	0.0021
534.656	0.0031
534.95	0.0019
535.243	0.0022
535.536	0.0026
535.83	0.0027
536.123	0.0019
536.416	0.0034
536.709	0.0028
537.002	0.0032
537.295	0.0031
537.588	0.0032
537.881	0.0027
538.173	0.0032
538.466	0.0024
538.759	0.0018
539.051	0.0019
539.344	0.0027
539.636	0.0023
539.928	0.0029
540.22	0.0029
540.513	0.003
540.805	0.0022
541.097	0.0015
541.389	0.0034
541.681	0.0019
541.972	0.0022
542.264	0.0013
542.556	0.0017
542.847	0.002
543.139	0.0025
543.431	0.0031
543.722	0.0031
544.013	0.0027
544.305	0.0037
544.596	0.0046
544.887	0.0026
545.178	0.0025
545.469	0.0019
545.76	0.0017
546.051	0.0024
546.342	0.0035
546.632	0.0016
546.923	0.0034
547.214	0.0028
547.504	0.0021
547.795	0.0024
548.085	0.0034
548.375	0.0021
548.666	0.0026
548.956	0.0014
549.246	0.0025
549.536	0.0015
549.826	0.0033
550.116	0.003
550.406	0.0036
550.695	0.0045
550.985	0.0026
551.275	0.0034
551.564	0.0026
551.854	0.0035
552.143	0.0035
552.433	0.0038
552.722	0.0032
553.011	0.0026
553.3	0.0037
553.589	0.0033
553.879	0.0025
554.167	0.0035
554.456	0.0028
554.745	0.0019
555.034	0.0025
555.323	0.0007
555.611	0.0014
555.9	0.0032
556.188	0.0024
556.477	0.0023
556.765	0.002
557.053	0.0017
557.342	0.0017
557.63	0.0031
557.918	0.0029
558.206	0.0032
558.494	0.0028
558.782	0.0028
559.069	0.0035
559.357	0.003
559.645	0.0031
559.932	0.0027
560.22	0.0028
560.507	0.0025
560.795	0.0022
561.082	0.0017
561.37	0.0028
561.657	0.0026
561.944	0.0029
562.231	0.0032
562.518	0.0017
562.805	0.0026
563.092	0.003
563.379	0.0034
563.665	0.0032
563.952	0.0031
564.239	0.0042
564.525	0.0036
564.811	0.0039
565.098	0.004
565.384	0.0046
565.67	0.0041
565.957	0.0046
566.243	0.0036
566.529	0.0044
566.815	0.0047
567.101	0.0033
567.387	0.0026
567.672	0.0033
567.958	0.0037
568.244	0.0033
568.529	0.003
568.815	0.0025
569.1	0.0037
569.386	0.0021
569.671	0.0026
569.956	0.0024
570.242	0.0025
570.527	0.0037
570.812	0.0028
571.097	0.0037
571.382	0.0036
571.666	0.0022
571.951	0.0027
572.236	0.0029
572.521	0.002
572.805	0.0033
573.09	0.0025
573.374	0.0017
573.659	0.0017
573.943	0.0034
574.227	0.0022
574.511	0.0028
574.795	0.0028
575.079	0.0021
575.363	0.002
575.647	0.003
575.931	0.0025
576.215	0.0024
576.499	0.0025
576.782	0.0021
577.066	0.0025
577.349	0.0023
577.633	0.0035
577.916	0.0031
578.2	0.0031
578.483	0.0031
578.766	0.0024
579.049	0.0031
579.332	0.0029
579.615	0.0024
579.898	0.0031
580.181	0.0023
580.464	0.0024
580.746	0.0013
581.029	0.0027
581.312	0.0019
581.594	0.0021
581.877	0.0026
582.159	0.0029
582.441	0.0032
582.724	0.0023
583.006	0.0025
583.288	0.0014
583.57	0.002
583.852	0.0009
584.134	0.001
584.416	0.0028
584.697	0.0025
584.979	0.0025
585.261	0.0023
585.542	0.0018
585.824	0.0025
586.105	0.0031
586.387	0.0018
586.668	0.0028
586.949	0.0026
587.231	0.0017
587.512	0.0026
587.793	0.0024
588.074	0.0029
588.355	0.0028
588.636	0.0036
588.916	0.0031
589.197	0.003
589.478	0.003
589.758	0.0021
590.039	0.0021
590.319	0.0024
590.6	0.0028
590.88	0.0024
591.16	0.0033
591.441	0.0033
591.721	0.0031
592.001	0.003
592.281	0.0023
592.561	0.0033
592.841	0.0024
593.12	0.0027
593.4	0.0025
593.68	0.0029
593.959	0.0025
594.239	0.0038
594.518	0.0027
594.798	0.0027
595.077	0.0027
595.356	0.003
595.636	0.0032
595.915	0.0029
596.194	0.0034
596.473	0.0036
596.752	0.0015
597.031	0.0025
597.31	0.0015
597.588	0.0019
597.867	0.0015
598.146	0.0022
598.424	0.0019
598.703	0.0022
598.981	0.0022
599.259	0.0018
599.538	0.0029
599.816	0.0028
600.094	0.002
600.372	0.0026
600.65	0.0027
600.928	0.0028
601.206	0.003
601.484	0.0025
601.762	0.003
602.04	0.0026
602.317	0.003
602.595	0.0019
602.872	0.0031
603.15	0.0026
603.427	0.0022
603.704	0.0018
603.982	0.0015
604.259	0.0012
604.536	0.0016
604.813	0.0024
605.09	0.0022
605.367	0.0018
605.644	0.0016
605.921	0.0027
606.197	0.0022
606.474	0.002
606.751	0.0027
607.027	0.0025
607.304	0.0019
607.58	0.0018
607.856	0.0016
608.133	0.0023
608.409	0.0035
608.685	0.0022
608.961	0.0033
609.237	0.0029
609.513	0.0029
609.789	0.0027
610.065	0.0015
610.341	0.002
610.616	0.0024
610.892	0.0027
611.167	0.0025
611.443	0.002
611.718	0.0008
611.994	0.0014
612.269	0.0019
612.544	0.0015
612.819	0.0019
613.095	0.0019
613.37	0.0016
613.645	0.0014
613.919	0.0012
614.194	0.0021
614.469	0.0013
614.744	0
615.019	0.0013
615.293	0.0007
615.568	0.0006
615.842	0.0005
616.116	0.0006
616.391	0.0001
616.665	0.002
616.939	0.0008
617.213	0.002
617.488	0.0017
617.762	0.0014
618.035	0.0009
618.309	0.0019
618.583	0.0015
618.857	0.0019
619.131	0.0022
619.404	0.0014
619.678	0.0017
619.951	0.0009
620.225	0.0002
620.498	0.0016
620.771	0.001
621.045	0.002
621.318	0.0022
621.591	0.0014
621.864	0.0012
622.137	0.0005
622.41	0.0008
622.683	0.0005
622.956	0.0014
623.228	0.0027
623.501	0.0029
623.774	0.0029
624.046	0.0024
624.319	0.0017
624.591	-0
624.863	0.0016
625.136	0.0022
625.408	0.0017
625.68	0.0018
625.952	0.0025
626.224	0.0022
626.496	0.0023
626.768	0.0015
627.04	0.0018
627.311	0.0016
627.583	0.0024
627.855	0.002
628.126	0.0016
628.398	0.002
628.669	0.0023
628.941	0.0009
629.212	0.0005
629.483	0.0011
629.755	0.0019
630.026	0.0016
630.297	0.0011
630.568	-0.0003
630.839	0.0003
631.11	-0
631.38	-0.0012
631.651	-0.0004
631.922	-0.001
632.192	-0.0012
632.463	-0.0003
632.733	-0.0003
633.004	-0.0002
633.274	-0.0009
633.545	0.0024
633.815	0.0018
634.085	0.0018
634.355	0.0017
634.625	0.0025
634.895	0.0012
635.165	-0.0002
635.435	0.0007
635.705	0.0009
635.974	0.0001
636.244	0.0017
636.514	0.0018
636.783	0.0017
637.053	0.0016
637.322	0.0017
637.591	0.0017
637.861	0.0011
638.13	0.0025
638.399	0.0012
638.668	0.0012
638.937	0.0007
639.206	0.0015
639.475	0.0028
639.744	0.0014
640.013	0.002
640.281	0.0034
640.55	0.0028
640.819	0.0028
641.087	0.0027
641.356	0.0021
641.624	0.0014
641.892	0.0023
642.161	0.0022
642.429	0.0022
642.697	0.0025
642.965	0.0031
643.233	0.0028
643.501	0.0021
643.769	0.0014
644.037	0.0014
644.305	0.0007
644.572	-0.0004
644.84	0.0008
645.108	0.0008
645.375	0.0004
645.643	0.0015
645.91	0
646.177	0.0024
646.445	0.0041
646.712	0.0037
646.979	0.0038
647.246	0.0037
647.513	0.0035
647.78	0.0027
648.047	0.0042
648.314	0.0026
648.58	0.0031
648.847	0.001
649.114	0.0007
649.38	0.0004
649.647	0.0002
649.913	0.0004
650.18	0.0016
650.446	0.0009
650.712	0.0021
650.978	0.0029
651.245	0.0026
651.511	0.0028
651.777	0.0012
652.043	0.0026
652.309	0.003
652.574	0.0032
652.84	0.0018
653.106	0.0005
653.371	0.0007
653.637	0.0013
653.903	0.0022
654.168	0.0025
654.433	0.0027
654.699	0.0038
654.964	0.0038
655.229	0.0031
655.494	0.0025
655.759	0.0006
656.024	0.0003
656.289	-0
656.554	0.0007
656.819	-0.0001
657.084	0.0025
657.349	0.0028
657.613	0.0023
657.878	0.0028
658.142	0.0034
658.407	0.0024
658.671	0.0027
658.936	0.0012
659.2	0.0009
659.464	0.0007
659.728	0.0007
659.992	0.0015
660.256	0.0005
660.52	0.0006
660.784	0.0008
661.048	0.0004
661.312	-0.0006
661.575	-0.0007
661.839	-0.001
662.103	-0.0016
662.366	-0.0016
662.63	-0.0006
662.893	-0
663.156	-0.0003
663.42	-0.0008
663.683	-0.0003
663.946	0.0009
664.209	0.0022
664.472	0.0026
664.735	0.0019
664.998	0.0011
665.261	0.0012
665.524	0.0016
665.786	0.0008
666.049	0.0011
666.312	0.0009
666.574	0.0008
666.837	-0.0001
667.099	-0.0009
667.361	-0.0014
667.624	-0.0005
667.886	0.0006
668.148	0.0004
668.41	0.0018
668.672	0.0001
668.934	0.0011
669.196	0.0012
669.458	0.0021
669.72	0.0012
669.982	0.0017
670.243	0.0023
670.505	0.0018
670.766	0.0019
671.028	0.0017
671.289	0.0016
671.551	0.0004
671.812	-0.0002
672.073	0.0015
672.334	0.0001
672.596	0.0011
672.857	-0.0008
673.118	0.0002
673.379	-0.0001
673.639	-0.0012
673.9	-0.0005
674.161	-0.0016
674.422	-0.0024
674.682	-0.0022
674.943	-0.002
675.203	-0.0007
675.464	-0.0002
675.724	0.0005
675.985	0.0017
676.245	0.0022
676.505	0.0023
676.765	0.0023
677.025	0.0016
677.285	0.0018
677.545	0.0029
677.805	0.0026
678.065	0.0037
678.325	0.0031
678.585	0.0029
678.844	0.0019
679.104	0.0016
679.363	0.002
679.623	0.0031
679.882	0.0032
680.142	0.0038
680.401	0.0035
680.66	0.0044
680.919	0.0039
681.178	0.0043
681.437	0.0038
681.696	0.0035
681.955	0.0033
682.214	0.0046
682.473	0.0041
682.732	0.0011
682.99	0.0024
683.249	0.0029
683.508	0.0027
683.766	0.0023
684.024	0.0024
684.283	0.0031
684.541	0.0029
684.799	0.0032
685.058	0.0025
685.316	0.0016
685.574	0.0028
685.832	0.0031
686.09	0.0033
686.348	0.0044
686.606	0.0042
686.863	0.0041
687.121	0.0044
687.379	0.003
687.636	0.0032
687.894	0.0042
688.151	0.0047
688.409	0.0042
688.666	0.0042
688.923	0.0044
689.181	0.0035
689.438	0.0029
689.695	0.0024
689.952	0.0013
690.209	0.0016
690.466	0.0017
690.723	0.0021
690.979	0.0019
691.236	0.0016
691.493	0.0012
691.75	0.0029
692.006	0.0029
692.263	0.003
692.519	0.003
692.775	0.0022
693.032	0.0007
693.288	0.0025
693.544	0.0028
693.8	0.0028
694.056	0.0024
694.313	0.002
694.568	0.0026
694.824	0.0026
695.08	0.0035
695.336	0.004
695.592	0.0028
695.847	0.0033
696.103	0.0036
696.359	0.0033
696.614	0.0024
696.869	0.0012
697.125	0.0001
697.38	0
697.635	-0.0008
697.891	0.0003
698.146	0.0005
698.401	0.0017
698.656	0.0005
698.911	0.0019
699.166	0.0005
699.42	0.0007
699.675	0.0005
699.93	-0.0011
700.185	0.0005
700.439	0.0018
700.694	0.0012
700.948	0.0016
701.203	0.0015
701.457	0.0013
701.711	0.0004
701.965	-0.0006
702.22	-0.0006
702.474	-0.0002
702.728	-0.0011
702.982	-0.0007
703.236	-0.0002
703.49	0.0001
703.743	0.0001
703.997	0.0005
704.251	0.0015
704.504	0.0006
704.758	0.0008
705.012	0.0003
705.265	0
705.518	-0
705.772	-0.0004
706.025	0
706.278	0
706.531	-0.001
706.785	-0.0011
707.038	-0.0002
707.291	-0.0013
707.543	-0.0004
707.796	-0.0005
708.049	-0.0016
708.302	-0.0013
708.555	-0.0006
708.807	0.0002
709.06	-0.001
709.312	-0.0027
709.565	-0.0016
709.817	-0.0023
710.069	-0.0019
710.322	-0.0019
710.574	-0.0011
710.826	-0.001
711.078	-0.0005
711.33	-0.001
711.582	-0.0006
711.834	0.0008
712.086	0.0015
712.338	0.0017
712.59	0.0016
712.841	0.0015
713.093	0.0012
713.344	0.0006
713.596	0.0017
713.847	0.0017
714.099	0.0016
714.35	0.0021
714.601	0.002
714.853	0.0035
715.104	0.0026
715.355	0.0007
715.606	0.0016
715.857	0.0029
716.108	0.0026
716.359	0.0019
716.609	0.0024
716.86	0.0019
717.111	0.0007
717.361	-0.0004
717.612	-0.0001
717.863	-0.0001
718.113	-0.0007
718.363	0.0004
718.614	0.0007
718.864	0.0011
719.114	0.0011
719.364	0.0001
719.614	-0
719.865	-0.0012
720.114	0.0006
720.364	0.0002
720.614	0.0016
720.864	0.0022
721.114	0.0024
721.364	0.0029
721.613	0.0034
721.863	0.0035
722.112	0.002
722.362	0.0034
722.611	0.0031
722.86	0.0018
723.11	0.0005
723.359	0.0016
723.608	0.0027
723.857	0.0033
724.106	0.0052
724.355	0.0051
724.604	0.0051
724.853	0.0046
725.102	0.0037
725.351	0.002
725.599	0.0027
725.848	0.0028
726.097	0.0021
726.345	0.0016
726.594	0.0022
726.842	0.0016
727.09	0.0016
727.339	0.0017
727.587	0.0011
727.835	-0.0005
728.083	-0.0009
728.331	-0.001
728.579	-0.0014
728.827	-0.0002
729.075	-0.0007
729.323	0.0005
729.571	0.0013
729.818	0.0014
730.066	0.0019
730.314	0.0018
730.561	0.0005
730.809	-0.0004
731.056	-0.0005
731.303	-0.0009
731.551	-0.0001
731.798	0.0004
732.045	-0.0002
732.292	0.0011
732.539	0.0005
732.786	0.0005
733.033	0.0013
733.28	0.0018
733.527	0.0034
733.774	0.0023
734.021	0.0032
734.267	0.0037
734.514	0.0037
734.76	0.003
735.007	0.0054
735.253	0.0052
735.5	0.0052
735.746	0.0054
735.992	0.0048
736.238	0.0045
736.485	0.006
736.731	0.005
736.977	0.0051
737.223	0.004
737.469	0.005
737.715	0.0055
737.96	0.0069
738.206	0.006
738.452	0.0073
738.697	0.0079
738.943	0.0064
739.189	0.0039
739.434	0.0022
739.679	0.0016
739.925	0.0014
740.17	0.0011
740.415	0.001
740.66	0.0025
740.906	0.003
741.151	0.0022
741.396	0.0027
741.641	0.0047
741.886	0.0051
742.13	0.0052
742.375	0.006
742.62	0.0065
742.865	0.0052
743.109	0.0049
743.354	0.0051
743.598	0.0047
743.843	0.0049
744.087	0.0041
744.331	0.0043
744.576	0.0035
744.82	0.0036
745.064	0.0036
745.308	0.0033
745.552	0.0031
745.796	0.0036
746.04	0.0033
746.284	0.0023
746.528	0.0002
746.771	0.001
747.015	0.0008
747.259	0.0008
747.502	0.0009
747.746	0.0019
747.989	0.0022
748.233	0.0034
748.476	0.0032
748.719	0.0044
748.963	0.0039
749.206	0.0032
749.449	0.0041
749.692	0.0026
749.935	0.0044
750.178	0.0033
750.421	0.0026
750.664	0.0037
750.906	0.0038
751.149	0.0025
751.392	0.0023
751.635	0.0008
751.877	0.0002
752.12	-0
752.362	0.0009
752.604	0.0003
752.847	0.0007
753.089	0.0017
753.331	0.0012
753.573	0.0022
753.816	0.0023
754.058	0.003
754.3	0.0029
754.542	0.0036
754.783	0.0037
755.025	0.0029
755.267	0.0012
755.509	0.0006
755.75	0.0008
755.992	0.0019
756.234	0.001
756.475	-0.0002
756.716	-0.0007
756.958	-0.0004
757.199	-0.0002
757.44	0.0012
757.682	0.0011
757.923	0.0003
758.164	-0
758.405	-0
758.646	0.0007
758.887	0.0006
759.128	-0.0002
759.369	-0.0008
759.609	-0.0008
759.85	-0.0008
760.091	-0.0002
760.331	-0.0004
760.572	-0.0008
760.812	-0.0018
761.053	-0.0013
761.293	0.0002
761.533	-0.0002
761.774	0.0004
762.014	0.0004
762.254	0.0005
762.494	-0.0004
762.734	-0.0003
762.974	-0.0009
763.214	-0.0012
763.454	-0.0011
763.694	-0.001
763.933	-0.0015
764.173	-0
764.413	-0.0004
764.652	0.0002
764.892	0.0002
765.131	0.0002
765.371	0.0007
765.61	0.002
765.849	0.0016
766.089	0.0021
766.328	0.0029
766.567	0.0027
766.806	0.0031
767.045	0.0025
767.284	0.0028
767.523	0.0031
767.762	0.0036
768.001	0.0022
768.239	0.0025
768.478	0.0018
768.717	0.0019
768.955	0.002
769.194	0.0015
769.432	0.0017
769.671	0.0019
769.909	0.0023
770.148	0.002
770.386	0.0025
770.624	0.0018
770.862	0.0029
771.1	0.0017
771.338	0.0014
771.576	0.0018
771.814	0.0016
772.052	0.0018
772.29	0.0023
772.528	0.0026
772.765	0.0022
773.003	0.0035
773.24	0.0026
773.478	0.002
773.716	0.0037
773.953	0.0038
774.19	0.0042
774.428	0.0045
774.665	0.0045
774.902	0.0045
775.139	0.0027
775.376	0.0037
775.613	0.0025
775.85	0.0028
776.087	0.0019
776.324	0.0025
776.561	0.0028
776.798	0.005
777.034	0.0059
777.271	0.0063
777.508	0.0067
777.744	0.0064
777.981	0.0055
778.217	0.0055
778.454	0.0045
778.69	0.0042
778.926	0.0047
779.162	0.0043
779.399	0.0033
779.635	0.0035
779.871	0.0033
780.107	0.0037
780.343	0.0035
780.579	0.0043
780.814	0.0039
781.05	0.0042
781.286	0.004
781.522	0.0038
781.757	0.0056
781.993	0.0054
782.228	0.0052
782.464	0.0046
782.699	0.0038
782.934	0.003
783.17	0.0033
783.405	0.0028
783.64	0.0027
783.875	0.0031
784.11	0.0036
784.345	0.0035
784.58	0.0034
784.815	0.0035
785.05	0.0038
785.285	0.0021
785.52	0.0017
785.754	0.0017
785.989	0.002
786.223	0.0006
786.458	0.0006
786.692	0.0005
786.927	-0.0001
787.161	-0
787.396	-0.0001
787.63	-0.0001
787.864	-0.0005
788.098	-0.0005
788.332	-0
788.566	-0
788.8	-0.0009
789.034	0
789.268	0.0009
789.502	0.0011
789.736	0.0022
789.969	0.0029
790.203	0.0025
790.437	0.0021
790.67	0.0011
790.904	0.0018
791.137	0.0012
791.37	0.0006
791.604	-0.0007
791.837	-0.0001
792.07	-0.0007
792.303	0.0005
792.537	-0.0003
792.77	-0.0008
793.003	-0.0006
793.236	-0.0016
793.469	-0.0008
793.701	-0.0002
793.934	-0.0007
794.167	-0.0008
794.4	-0.0007
794.632	0.0004
794.865	-0.0008
795.097	0.0002
795.33	0.0009
795.562	0.0002
795.795	0.0004
796.027	0.0004
796.259	0.0006
796.491	0.0005
796.724	0.0004
796.956	0.0005
797.188	0.0013
797.42	0.0005
797.652	0.0011
797.883	-0.0002
798.115	-0.0003
798.347	-0.0001
798.579	-0.0017
798.81	-0.0029
799.042	-0.0023
799.274	-0.003
799.505	-0.0025
799.737	-0.0028
799.968	-0.0024
800.199	-0.0018
800.431	-0.0013
800.662	-0.0002
800.893	-0.0003
801.124	0.0006
801.355	0
801.586	0.0006
801.817	0.0003
802.048	0.0004
802.279	0.0006
802.51	0.001
802.741	-0.0009
802.971	-0.0001
803.202	-0.001
803.433	-0.0012
803.663	-0.0005
803.894	-0.0008
804.124	0.0003
804.354	-0.0006
804.585	-0.001
804.815	-0.0005
805.045	-0.0007
805.275	-0.0024
805.506	-0.0597
805.736	0.0544
805.966	-0.0992
806.196	0.063
