Data from 03 0.2 mM BQDS 0.4 mM K2Cr2O7 1 M H2SO4 5 min_Absorbance_20-32-44-282.txt Node
Date: Tue Dec 07 20:32:44 EST 2021
User: kwabilab-user
Spectrometer: HDX00518
Trigger mode: 0
Integration Time (sec): 5.000000E-2
Scans to average: 50
Nonlinearity correction enabled: false
Boxcar width: 0
Storing dark spectrum: false
XAxis mode: Wavelengths
Number of Pixels in Spectrum: 2068
>>>>>Begin Spectral Data<<<<<
195.27	0.0124
195.642	0.1413
196.014	0.1399
196.386	-0.0113
196.758	0.0233
197.129	0.0119
197.501	0.044
197.872	0.1147
198.244	0.1348
198.615	0.1332
198.986	0.1225
199.357	0.136
199.728	0.1346
200.099	0.1185
200.47	0.1296
200.841	0.1339
201.212	0.122
201.582	0.1167
201.953	0.1389
202.323	0.1221
202.694	0.1292
203.064	0.1402
203.434	0.1123
203.804	0.1451
204.174	0.1252
204.544	0.1357
204.914	0.1432
205.284	0.13
205.653	0.148
206.023	0.1333
206.393	0.1337
206.762	0.1329
207.131	0.1381
207.501	0.1407
207.87	0.1393
208.239	0.1609
208.608	0.1503
208.977	0.156
209.346	0.1688
209.715	0.1611
210.083	0.1476
210.452	0.1438
210.82	0.1677
211.189	0.1788
211.557	0.1669
211.925	0.1749
212.294	0.1946
212.662	0.1704
213.03	0.1886
213.398	0.1787
213.766	0.2079
214.133	0.2116
214.501	0.238
214.869	0.2302
215.236	0.2663
215.604	0.2559
215.971	0.2761
216.338	0.2883
216.705	0.3105
217.072	0.347
217.439	0.3369
217.806	0.3845
218.173	0.3917
218.54	0.4277
218.907	0.476
219.273	0.5068
219.64	0.5303
220.006	0.5846
220.373	0.618
220.739	0.6594
221.105	0.6816
221.471	0.7274
221.837	0.7645
222.203	0.8097
222.569	0.8358
222.935	0.881
223.3	0.9031
223.666	0.941
224.031	0.9535
224.397	0.9835
224.762	0.9997
225.127	1.0195
225.493	1.0391
225.858	1.0413
226.223	1.0623
226.588	1.0784
226.952	1.0739
227.317	1.0843
227.682	1.0812
228.046	1.0783
228.411	1.0874
228.775	1.0912
229.14	1.074
229.504	1.0756
229.868	1.073
230.232	1.0606
230.596	1.0581
230.96	1.0539
231.324	1.0451
231.688	1.0305
232.052	1.031
232.415	1.019
232.779	1.0179
233.142	1.0062
233.505	0.9952
233.869	0.9876
234.232	0.9826
234.595	0.9593
234.958	0.9556
235.321	0.943
235.684	0.9311
236.047	0.9247
236.409	0.9169
236.772	0.9124
237.134	0.8994
237.497	0.8859
237.859	0.8802
238.222	0.8721
238.584	0.8651
238.946	0.8559
239.308	0.8498
239.67	0.8405
240.032	0.8359
240.393	0.8283
240.755	0.8182
241.117	0.816
241.478	0.8093
241.84	0.7997
242.201	0.7916
242.562	0.7884
242.924	0.7829
243.285	0.7779
243.646	0.769
244.007	0.7669
244.368	0.7614
244.728	0.7566
245.089	0.7524
245.45	0.7507
245.81	0.7487
246.171	0.7422
246.531	0.7361
246.891	0.7336
247.252	0.7318
247.612	0.728
247.972	0.7255
248.332	0.7247
248.692	0.7197
249.051	0.716
249.411	0.716
249.771	0.7107
250.13	0.7116
250.49	0.7104
250.849	0.708
251.208	0.7047
251.568	0.7049
251.927	0.7015
252.286	0.7002
252.645	0.6997
253.004	0.6954
253.363	0.6959
253.721	0.6955
254.08	0.6957
254.439	0.6941
254.797	0.6907
255.155	0.6889
255.514	0.6901
255.872	0.6872
256.23	0.6862
256.588	0.688
256.946	0.6862
257.304	0.6862
257.662	0.6845
258.02	0.6835
258.377	0.6818
258.735	0.6796
259.093	0.6796
259.45	0.6785
259.807	0.6778
260.165	0.6762
260.522	0.6763
260.879	0.6748
261.236	0.6722
261.593	0.672
261.95	0.6683
262.306	0.6706
262.663	0.6671
263.02	0.6662
263.376	0.6658
263.733	0.6646
264.089	0.6632
264.445	0.6621
264.802	0.6596
265.158	0.6572
265.514	0.6558
265.87	0.6548
266.226	0.6535
266.581	0.651
266.937	0.6485
267.293	0.6483
267.648	0.6457
268.004	0.6433
268.359	0.6408
268.714	0.6383
269.07	0.6372
269.425	0.6338
269.78	0.6347
270.135	0.6291
270.49	0.6306
270.844	0.6259
271.199	0.6237
271.554	0.6214
271.908	0.6181
272.263	0.6166
272.617	0.6127
272.972	0.6109
273.326	0.6063
273.68	0.6052
274.034	0.6011
274.388	0.5988
274.742	0.5962
275.096	0.5922
275.45	0.5896
275.803	0.5866
276.157	0.584
276.51	0.5783
276.864	0.5757
277.217	0.5732
277.571	0.5691
277.924	0.5646
278.277	0.5621
278.63	0.5573
278.983	0.5531
279.336	0.5495
279.688	0.5462
280.041	0.5421
280.394	0.5375
280.746	0.5342
281.099	0.5293
281.451	0.5249
281.803	0.5205
282.156	0.5163
282.508	0.5122
282.86	0.5065
283.212	0.5037
283.564	0.4982
283.916	0.4945
284.267	0.4904
284.619	0.4868
284.971	0.4816
285.322	0.4763
285.673	0.4724
286.025	0.469
286.376	0.4639
286.727	0.4588
287.078	0.4545
287.429	0.4509
287.78	0.445
288.131	0.4387
288.482	0.4349
288.833	0.4316
289.183	0.4263
289.534	0.4202
289.884	0.417
290.235	0.4119
290.585	0.4065
290.935	0.403
291.285	0.3984
291.635	0.3944
291.985	0.3894
292.335	0.3841
292.685	0.3804
293.035	0.3761
293.384	0.3714
293.734	0.3653
294.083	0.3609
294.433	0.3569
294.782	0.3528
295.131	0.3486
295.48	0.3442
295.829	0.3404
296.179	0.3355
296.527	0.3322
296.876	0.3278
297.225	0.3241
297.574	0.3194
297.922	0.3156
298.271	0.3113
298.619	0.3063
298.968	0.3039
299.316	0.3001
299.664	0.2964
300.012	0.2931
300.36	0.2888
300.708	0.2856
301.056	0.2821
301.404	0.2794
301.752	0.2765
302.099	0.2734
302.447	0.2706
302.794	0.2672
303.142	0.2639
303.489	0.2613
303.836	0.2591
304.183	0.2576
304.531	0.2541
304.878	0.2521
305.224	0.2489
305.571	0.2475
305.918	0.2453
306.265	0.2426
306.611	0.2412
306.958	0.2395
307.304	0.2371
307.651	0.2364
307.997	0.2343
308.343	0.2327
308.689	0.232
309.035	0.2306
309.381	0.2296
309.727	0.2273
310.073	0.2274
310.419	0.226
310.764	0.225
311.11	0.2239
311.455	0.2233
311.801	0.2221
312.146	0.2216
312.491	0.2212
312.837	0.2212
313.182	0.2205
313.527	0.2199
313.872	0.2194
314.216	0.2196
314.561	0.2189
314.906	0.2196
315.251	0.2193
315.595	0.2187
315.94	0.2191
316.284	0.2196
316.628	0.2189
316.972	0.2193
317.317	0.2197
317.661	0.2204
318.005	0.2212
318.348	0.2214
318.692	0.2217
319.036	0.2214
319.38	0.2221
319.723	0.2232
320.067	0.2237
320.41	0.2245
320.754	0.2252
321.097	0.2268
321.44	0.2273
321.783	0.2276
322.126	0.2291
322.469	0.2306
322.812	0.2311
323.155	0.2324
323.498	0.2341
323.84	0.2352
324.183	0.2366
324.525	0.2373
324.868	0.238
325.21	0.2402
325.552	0.2418
325.894	0.2423
326.236	0.2438
326.578	0.2451
326.92	0.2466
327.262	0.2472
327.604	0.2487
327.946	0.2507
328.287	0.2522
328.629	0.254
328.97	0.2548
329.312	0.2568
329.653	0.2577
329.994	0.26
330.335	0.2613
330.676	0.263
331.017	0.2638
331.358	0.2658
331.699	0.2678
332.04	0.2692
332.38	0.2705
332.721	0.273
333.061	0.2736
333.402	0.2753
333.742	0.2776
334.083	0.2792
334.423	0.28
334.763	0.2813
335.103	0.2828
335.443	0.2838
335.783	0.2855
336.123	0.2863
336.462	0.2878
336.802	0.2892
337.141	0.2908
337.481	0.2917
337.82	0.292
338.16	0.2939
338.499	0.2954
338.838	0.2961
339.177	0.2986
339.516	0.2993
339.855	0.3011
340.194	0.3018
340.533	0.303
340.872	0.3042
341.21	0.3052
341.549	0.3065
341.887	0.3077
342.226	0.3078
342.564	0.3076
342.902	0.3087
343.24	0.3089
343.578	0.3087
343.916	0.3103
344.254	0.3111
344.592	0.3106
344.93	0.3118
345.268	0.3118
345.605	0.3118
345.943	0.312
346.28	0.3118
346.618	0.3124
346.955	0.3128
347.292	0.3135
347.629	0.3134
347.966	0.314
348.303	0.3144
348.64	0.3135
348.977	0.3136
349.314	0.3137
349.65	0.3141
349.987	0.3139
350.324	0.3134
350.66	0.3133
350.996	0.3137
351.333	0.3127
351.669	0.311
352.005	0.3109
352.341	0.3102
352.677	0.3085
353.013	0.3074
353.349	0.3075
353.685	0.306
354.02	0.305
354.356	0.3043
354.691	0.3024
355.027	0.3017
355.362	0.2992
355.697	0.2989
356.033	0.2982
356.368	0.2967
356.703	0.2955
357.038	0.2951
357.373	0.2942
357.707	0.2929
358.042	0.2916
358.377	0.2908
358.711	0.2902
359.046	0.2886
359.38	0.2869
359.715	0.2863
360.049	0.2839
360.383	0.2832
360.717	0.2815
361.051	0.2796
361.385	0.278
361.719	0.2761
362.053	0.2747
362.387	0.2715
362.72	0.2702
363.054	0.2675
363.387	0.2659
363.721	0.2639
364.054	0.2617
364.387	0.2594
364.721	0.2573
365.054	0.2556
365.387	0.2534
365.72	0.2509
366.053	0.2488
366.385	0.2473
366.718	0.246
367.051	0.2435
367.383	0.2423
367.716	0.2404
368.048	0.2387
368.381	0.2365
368.713	0.2357
369.045	0.2345
369.377	0.2328
369.709	0.2305
370.041	0.2293
370.373	0.2276
370.705	0.2259
371.037	0.223
371.368	0.2214
371.7	0.2197
372.031	0.2171
372.363	0.215
372.694	0.2122
373.025	0.2106
373.356	0.2085
373.688	0.2054
374.019	0.2027
374.35	0.2003
374.68	0.1978
375.011	0.1953
375.342	0.1931
375.673	0.1915
376.003	0.189
376.334	0.1869
376.664	0.1842
376.995	0.1825
377.325	0.1805
377.655	0.1791
377.985	0.177
378.315	0.1753
378.645	0.1733
378.975	0.1713
379.305	0.1698
379.635	0.1693
379.964	0.1667
380.294	0.1654
380.623	0.1637
380.953	0.1626
381.282	0.1603
381.611	0.1582
381.941	0.157
382.27	0.1558
382.599	0.1536
382.928	0.1514
383.257	0.1502
383.585	0.1483
383.914	0.1463
384.243	0.1444
384.571	0.1418
384.9	0.1398
385.228	0.1376
385.557	0.1362
385.885	0.1346
386.213	0.1317
386.541	0.1296
386.869	0.1273
387.197	0.1254
387.525	0.123
387.853	0.1219
388.181	0.1199
388.508	0.1194
388.836	0.1174
389.164	0.1151
389.491	0.1139
389.818	0.1121
390.146	0.1111
390.473	0.1088
390.8	0.1082
391.127	0.1063
391.454	0.1049
391.781	0.1034
392.108	0.1023
392.435	0.1005
392.761	0.0996
393.088	0.099
393.415	0.0975
393.741	0.0973
394.067	0.095
394.394	0.0948
394.72	0.0932
395.046	0.092
395.372	0.0903
395.698	0.0888
396.024	0.0884
396.35	0.087
396.676	0.0867
397.001	0.0849
397.327	0.0833
397.653	0.082
397.978	0.0814
398.303	0.08
398.629	0.0787
398.954	0.0785
399.279	0.077
399.604	0.0767
399.929	0.0756
400.254	0.074
400.579	0.0739
400.904	0.0723
401.229	0.0717
401.553	0.0704
401.878	0.0699
402.202	0.0689
402.527	0.0686
402.851	0.0679
403.175	0.067
403.5	0.0664
403.824	0.0666
404.148	0.066
404.472	0.0651
404.796	0.0641
405.119	0.0638
405.443	0.0633
405.767	0.0622
406.09	0.062
406.414	0.062
406.737	0.0613
407.061	0.0611
407.384	0.0607
407.707	0.0595
408.03	0.0603
408.353	0.0602
408.676	0.0596
408.999	0.059
409.322	0.0587
409.645	0.0589
409.968	0.0578
410.29	0.0587
410.613	0.0573
410.935	0.0574
411.258	0.0573
411.58	0.0571
411.902	0.0573
412.224	0.0569
412.546	0.056
412.868	0.0562
413.19	0.0561
413.512	0.0557
413.834	0.0563
414.156	0.0561
414.477	0.0556
414.799	0.0557
415.121	0.0565
415.442	0.0557
415.763	0.0559
416.085	0.0547
416.406	0.0554
416.727	0.0552
417.048	0.0554
417.369	0.0546
417.69	0.0543
418.011	0.0547
418.331	0.0541
418.652	0.0543
418.973	0.0544
419.293	0.055
419.614	0.0544
419.934	0.0539
420.254	0.0536
420.574	0.0541
420.895	0.054
421.215	0.0536
421.535	0.0535
421.855	0.0532
422.174	0.0536
422.494	0.0537
422.814	0.0543
423.134	0.054
423.453	0.0535
423.773	0.0535
424.092	0.0534
424.411	0.0535
424.731	0.054
425.05	0.053
425.369	0.0534
425.688	0.0536
426.007	0.0534
426.326	0.0541
426.644	0.0545
426.963	0.0542
427.282	0.0542
427.6	0.0538
427.919	0.0535
428.237	0.0538
428.556	0.0549
428.874	0.0535
429.192	0.0533
429.51	0.0532
429.828	0.0537
430.146	0.0542
430.464	0.0542
430.782	0.0535
431.1	0.0539
431.418	0.0535
431.735	0.0532
432.053	0.0541
432.37	0.0539
432.688	0.0535
433.005	0.0537
433.322	0.0534
433.639	0.0535
433.957	0.0537
434.274	0.054
434.591	0.0529
434.907	0.0541
435.224	0.0534
435.541	0.0537
435.858	0.0537
436.174	0.0534
436.491	0.0539
436.807	0.054
437.124	0.053
437.44	0.0531
437.756	0.0526
438.072	0.0527
438.388	0.0536
438.704	0.0529
439.02	0.053
439.336	0.0528
439.652	0.0527
439.968	0.0536
440.283	0.0524
440.599	0.053
440.914	0.0526
441.23	0.0524
441.545	0.0531
441.86	0.0524
442.175	0.0528
442.491	0.0523
442.806	0.0524
443.121	0.0524
443.435	0.052
443.75	0.0525
444.065	0.0519
444.38	0.0522
444.694	0.0515
445.009	0.052
445.323	0.0519
445.638	0.0519
445.952	0.0516
446.266	0.0512
446.58	0.0515
446.894	0.0515
447.208	0.052
447.522	0.0518
447.836	0.0506
448.15	0.05
448.464	0.0506
448.777	0.0505
449.091	0.0502
449.404	0.0509
449.718	0.0509
450.031	0.0505
450.345	0.0498
450.658	0.0496
450.971	0.0494
451.284	0.0498
451.597	0.0497
451.91	0.0497
452.223	0.0488
452.535	0.0498
452.848	0.0491
453.161	0.0489
453.473	0.0497
453.786	0.0496
454.098	0.0489
454.411	0.0486
454.723	0.0485
455.035	0.0483
455.347	0.0493
455.659	0.049
455.971	0.0485
456.283	0.0485
456.595	0.0478
456.907	0.048
457.218	0.0481
457.53	0.0475
457.841	0.047
458.153	0.0467
458.464	0.0464
458.776	0.0458
459.087	0.0466
459.398	0.0461
459.709	0.046
460.02	0.0455
460.331	0.0451
460.642	0.045
460.953	0.0449
461.263	0.0453
461.574	0.0445
461.885	0.0439
462.195	0.0448
462.506	0.0442
462.816	0.0438
463.126	0.0439
463.437	0.0435
463.747	0.0429
464.057	0.0431
464.367	0.0425
464.677	0.0426
464.987	0.0429
465.296	0.0416
465.606	0.0417
465.916	0.0414
466.225	0.0412
466.535	0.0413
466.844	0.0403
467.154	0.0406
467.463	0.0408
467.772	0.0399
468.081	0.0403
468.39	0.0402
468.699	0.0394
469.008	0.0397
469.317	0.0398
469.626	0.0396
469.935	0.0383
470.243	0.0387
470.552	0.0392
470.86	0.0383
471.169	0.038
471.477	0.0378
471.785	0.0376
472.093	0.0383
472.402	0.0371
472.71	0.0372
473.018	0.0366
473.326	0.0355
473.633	0.0367
473.941	0.0366
474.249	0.0352
474.556	0.0364
474.864	0.0352
475.171	0.0343
475.479	0.0349
475.786	0.035
476.094	0.0343
476.401	0.0342
476.708	0.0339
477.015	0.0344
477.322	0.0336
477.629	0.0327
477.936	0.0329
478.242	0.033
478.549	0.0328
478.856	0.0323
479.162	0.0323
479.469	0.0327
479.775	0.0323
480.081	0.0307
480.388	0.032
480.694	0.0306
481	0.0309
481.306	0.0307
481.612	0.0309
481.918	0.0296
482.224	0.0305
482.53	0.0292
482.835	0.0294
483.141	0.028
483.446	0.0287
483.752	0.0286
484.057	0.0277
484.363	0.0281
484.668	0.0273
484.973	0.0265
485.278	0.0267
485.583	0.0262
485.888	0.0259
486.193	0.0263
486.498	0.0261
486.803	0.0258
487.107	0.0255
487.412	0.0253
487.717	0.0252
488.021	0.0255
488.325	0.0245
488.63	0.0237
488.934	0.0243
489.238	0.0246
489.542	0.024
489.846	0.0231
490.15	0.0242
490.454	0.0232
490.758	0.0232
491.062	0.0224
491.366	0.0227
491.669	0.0226
491.973	0.0228
492.276	0.0221
492.58	0.0207
492.883	0.021
493.186	0.0214
493.489	0.022
493.792	0.0209
494.096	0.0211
494.399	0.0215
494.701	0.0203
495.004	0.02
495.307	0.0193
495.61	0.0197
495.912	0.0195
496.215	0.0187
496.517	0.0191
496.82	0.0189
497.122	0.0191
497.424	0.0181
497.727	0.0183
498.029	0.0186
498.331	0.0186
498.633	0.0182
498.935	0.0173
499.237	0.0186
499.538	0.0172
499.84	0.0169
500.142	0.0177
500.443	0.0171
500.745	0.0165
501.046	0.017
501.348	0.0159
501.649	0.0173
501.95	0.0159
502.251	0.0158
502.552	0.0147
502.853	0.0153
503.154	0.015
503.455	0.014
503.756	0.0147
504.057	0.0144
504.357	0.0146
504.658	0.0137
504.958	0.014
505.259	0.0148
505.559	0.014
505.859	0.0141
506.16	0.0134
506.46	0.0136
506.76	0.0141
507.06	0.0125
507.36	0.0133
507.66	0.0133
507.96	0.0134
508.259	0.0121
508.559	0.0118
508.859	0.013
509.158	0.0121
509.457	0.0113
509.757	0.0129
510.056	0.0119
510.355	0.011
510.655	0.01
510.954	0.0111
511.253	0.0118
511.552	0.0112
511.851	0.0111
512.149	0.0106
512.448	0.0108
512.747	0.0109
513.045	0.009
513.344	0.0104
513.642	0.0112
513.941	0.0103
514.239	0.0095
514.537	0.0097
514.836	0.0107
515.134	0.0094
515.432	0.0094
515.73	0.0105
516.028	0.0089
516.326	0.0098
516.623	0.0086
516.921	0.0089
517.219	0.009
517.516	0.0096
517.814	0.0094
518.111	0.0087
518.409	0.0108
518.706	0.0088
519.003	0.0091
519.3	0.0079
519.597	0.008
519.894	0.0089
520.191	0.0099
520.488	0.0084
520.785	0.0065
521.082	0.0082
521.378	0.0082
521.675	0.0071
521.971	0.0071
522.268	0.0071
522.564	0.0069
522.861	0.0072
523.157	0.0064
523.453	0.0071
523.749	0.008
524.045	0.0084
524.341	0.0078
524.637	0.0062
524.933	0.006
525.229	0.007
525.524	0.0056
525.82	0.0069
526.115	0.0058
526.411	0.0056
526.706	0.0072
527.002	0.0066
527.297	0.0046
527.592	0.0074
527.887	0.0068
528.182	0.0058
528.477	0.0067
528.772	0.0061
529.067	0.006
529.362	0.0071
529.657	0.0055
529.951	0.0058
530.246	0.0051
530.54	0.0043
530.835	0.0045
531.129	0.0041
531.423	0.0063
531.718	0.0039
532.012	0.0047
532.306	0.0045
532.6	0.0046
532.894	0.0031
533.188	0.0051
533.482	0.0041
533.775	0.0053
534.069	0.0055
534.363	0.0038
534.656	0.004
534.95	0.0033
535.243	0.0045
535.536	0.0044
535.83	0.0055
536.123	0.0037
536.416	0.0043
536.709	0.0037
537.002	0.0052
537.295	0.0043
537.588	0.0054
537.881	0.0037
538.173	0.0038
538.466	0.0041
538.759	0.0035
539.051	0.0024
539.344	0.0034
539.636	0.0036
539.928	0.0034
540.22	0.0048
540.513	0.0043
540.805	0.0035
541.097	0.003
541.389	0.0037
541.681	0.0027
541.972	0.0034
542.264	0.0032
542.556	0.0032
542.847	0.0028
543.139	0.0033
543.431	0.0046
543.722	0.0034
544.013	0.0044
544.305	0.0047
544.596	0.0039
544.887	0.0038
545.178	0.0033
545.469	0.0032
545.76	0.0024
546.051	0.0036
546.342	0.0035
546.632	0.0021
546.923	0.0036
547.214	0.0037
547.504	0.0038
547.795	0.0044
548.085	0.003
548.375	0.0031
548.666	0.0036
548.956	0.0023
549.246	0.0026
549.536	0.0019
549.826	0.0035
550.116	0.0034
550.406	0.0037
550.695	0.0049
550.985	0.0044
551.275	0.0035
551.564	0.0031
551.854	0.0034
552.143	0.003
552.433	0.004
552.722	0.0039
553.011	0.0031
553.3	0.004
553.589	0.0032
553.879	0.003
554.167	0.0031
554.456	0.0023
554.745	0.0026
555.034	0.0023
555.323	0.0014
555.611	0.0022
555.9	0.0028
556.188	0.0032
556.477	0.003
556.765	0.0014
557.053	0.0023
557.342	0.0019
557.63	0.0031
557.918	0.0021
558.206	0.0022
558.494	0.0032
558.782	0.0025
559.069	0.0032
559.357	0.0026
559.645	0.0009
559.932	0.0023
560.22	0.003
560.507	0.004
560.795	0.0025
561.082	0.0026
561.37	0.0038
561.657	0.0034
561.944	0.0039
562.231	0.0025
562.518	0.0016
562.805	0.0025
563.092	0.0036
563.379	0.0036
563.665	0.0032
563.952	0.003
564.239	0.0039
564.525	0.004
564.811	0.0035
565.098	0.003
565.384	0.0038
565.67	0.0026
565.957	0.0034
566.243	0.0029
566.529	0.0034
566.815	0.0043
567.101	0.0031
567.387	0.0031
567.672	0.0025
567.958	0.0029
568.244	0.0034
568.529	0.003
568.815	0.0031
569.1	0.004
569.386	0.0025
569.671	0.0029
569.956	0.003
570.242	0.0024
570.527	0.0033
570.812	0.0034
571.097	0.003
571.382	0.0029
571.666	0.0022
571.951	0.0027
572.236	0.0031
572.521	0.0024
572.805	0.0024
573.09	0.0031
573.374	0.0027
573.659	0.0024
573.943	0.003
574.227	0.0024
574.511	0.0032
574.795	0.003
575.079	0.0028
575.363	0.0031
575.647	0.0037
575.931	0.0025
576.215	0.0025
576.499	0.0025
576.782	0.0032
577.066	0.003
577.349	0.0032
577.633	0.0037
577.916	0.0035
578.2	0.0039
578.483	0.0044
578.766	0.0029
579.049	0.0037
579.332	0.0033
579.615	0.0027
579.898	0.0035
580.181	0.0034
580.464	0.0029
580.746	0.0023
581.029	0.0028
581.312	0.002
581.594	0.0029
581.877	0.004
582.159	0.0039
582.441	0.0032
582.724	0.0028
583.006	0.0029
583.288	0.0012
583.57	0.0022
583.852	0.0021
584.134	0.0015
584.416	0.0023
584.697	0.0035
584.979	0.0032
585.261	0.0032
585.542	0.003
585.824	0.003
586.105	0.0031
586.387	0.0023
586.668	0.0025
586.949	0.0025
587.231	0.0018
587.512	0.0027
587.793	0.0028
588.074	0.0036
588.355	0.0034
588.636	0.0031
588.916	0.0036
589.197	0.0029
589.478	0.003
589.758	0.0021
590.039	0.0024
590.319	0.0024
590.6	0.0029
590.88	0.0023
591.16	0.0024
591.441	0.0031
591.721	0.0027
592.001	0.0031
592.281	0.0024
592.561	0.003
592.841	0.0031
593.12	0.0028
593.4	0.0024
593.68	0.0026
593.959	0.0027
594.239	0.0035
594.518	0.0023
594.798	0.0022
595.077	0.003
595.356	0.0033
595.636	0.0028
595.915	0.0023
596.194	0.0023
596.473	0.0021
596.752	0.0017
597.031	0.0018
597.31	0.0016
597.588	0.0019
597.867	0.0016
598.146	0.0027
598.424	0.002
598.703	0.0022
598.981	0.0021
599.259	0.0029
599.538	0.0029
599.816	0.0028
600.094	0.0034
600.372	0.0031
600.65	0.0029
600.928	0.0028
601.206	0.0034
601.484	0.0033
601.762	0.0029
602.04	0.0017
602.317	0.0025
602.595	0.002
602.872	0.0018
603.15	0.002
603.427	0.0007
603.704	0.0015
603.982	0.0018
604.259	0.001
604.536	0.002
604.813	0.0015
605.09	0.0014
605.367	0.002
605.644	0.0023
605.921	0.002
606.197	0.0016
606.474	0.0018
606.751	0.0026
607.027	0.003
607.304	0.0015
607.58	0.0026
607.856	0.0016
608.133	0.0028
608.409	0.0024
608.685	0.0024
608.961	0.0021
609.237	0.002
609.513	0.0024
609.789	0.002
610.065	0.0008
610.341	0.0016
610.616	0.0017
610.892	0.0025
611.167	0.0018
611.443	0.0005
611.718	0.0012
611.994	0.0012
612.269	0.0014
612.544	0.001
612.819	0.0013
613.095	0.0017
613.37	0.0016
613.645	0.0013
613.919	0.0018
614.194	0.0016
614.469	0.0011
614.744	0.001
615.019	0.0018
615.293	0.0009
615.568	0.0008
615.842	0.0007
616.116	0.0013
616.391	0.0002
616.665	0.0025
616.939	0.0012
617.213	0.0018
617.488	0.0008
617.762	0.0013
618.035	0.0007
618.309	0.0007
618.583	0.0015
618.857	0.001
619.131	0.0018
619.404	0.001
619.678	0.0014
619.951	0.0011
620.225	0.0008
620.498	0.0008
620.771	0.0007
621.045	0.0023
621.318	0.0005
621.591	-0
621.864	0.0002
622.137	0.0007
622.41	0.0016
622.683	0.0004
622.956	0.0005
623.228	0.0015
623.501	0.0027
623.774	0.0022
624.046	0.001
624.319	0.0014
624.591	-0.0002
624.863	0.0011
625.136	0.0012
625.408	0.0006
625.68	0.0013
625.952	0.0009
626.224	0.0009
626.496	0.0013
626.768	0.0004
627.04	0.0009
627.311	0.0012
627.583	0.0018
627.855	0.0013
628.126	0.0012
628.398	0.0017
628.669	0.001
628.941	-0.0006
629.212	-0.0004
629.483	0.0006
629.755	0.0008
630.026	0.0004
630.297	-0.0004
630.568	-0.001
630.839	-0.0007
631.11	-0.0013
631.38	-0.0015
631.651	-0.0014
631.922	-0.0013
632.192	-0.0021
632.463	-0.0019
632.733	-0.001
633.004	-0.0012
633.274	-0.0024
633.545	-0.0005
633.815	-0.0002
634.085	0.0006
634.355	-0.0004
634.625	0.0011
634.895	-0.0007
635.165	-0.0016
635.435	-0.0005
635.705	-0.0002
635.974	-0.0018
636.244	0.0001
636.514	0.0007
636.783	0.0005
637.053	0.0005
637.322	-0.001
637.591	0.0002
637.861	0.0008
638.13	0.0008
638.399	-0.0002
638.668	0.0005
638.937	-0.0015
639.206	-0.0002
639.475	-0.0008
639.744	-0
640.013	0.0011
640.281	0.0012
640.55	0.0013
640.819	0.0008
641.087	0.0006
641.356	-0.0005
641.624	0
641.892	0.0008
642.161	0.0003
642.429	0.0004
642.697	-0.0003
642.965	0.0005
643.233	0.0011
643.501	0.0005
643.769	-0.0002
644.037	-0.0001
644.305	-0.0006
644.572	-0.002
644.84	-0.0015
645.108	-0.0007
645.375	-0.0008
645.643	-0.0001
645.91	-0.001
646.177	-0.0003
646.445	0.0026
646.712	0.0017
646.979	0.0025
647.246	0.002
647.513	0.0014
647.78	0.0009
648.047	0.0021
648.314	0.0014
648.58	0.0011
648.847	0.0006
649.114	-0.0007
649.38	0.0001
649.647	-0.0003
649.913	-0.0012
650.18	-0.0005
650.446	-0.0006
650.712	0.0009
650.978	0.0008
651.245	0.0013
651.511	0.0016
651.777	0.0009
652.043	0.0017
652.309	0.001
652.574	0.0014
652.84	0.001
653.106	0
653.371	-0.0013
653.637	0.0005
653.903	0.0002
654.168	0.0002
654.433	0.0007
654.699	0.0008
654.964	0.0018
655.229	0.001
655.494	0.0011
655.759	0.0006
656.024	0.0006
656.289	-0
656.554	0.0004
656.819	-0.0006
657.084	0.0002
657.349	0.0014
657.613	0.0005
657.878	0.0008
658.142	0.0007
658.407	0.0006
658.671	0.0007
658.936	-0.0003
659.2	-0.0007
659.464	-0.0009
659.728	0.0001
659.992	-0.0002
660.256	-0.0011
660.52	-0.0012
660.784	-0.0013
661.048	-0.0012
661.312	-0.002
661.575	-0.0024
661.839	-0.0037
662.103	-0.0029
662.366	-0.0032
662.63	-0.0013
662.893	-0.0013
663.156	-0.0026
663.42	-0.0024
663.683	-0.0016
663.946	-0.0002
664.209	0.0015
664.472	0.0005
664.735	-0.0001
664.998	-0.0005
665.261	-0.0002
665.524	-0.0009
665.786	-0.0014
666.049	-0.0006
666.312	-0.0006
666.574	-0.0013
666.837	-0.0018
667.099	-0.0035
667.361	-0.0023
667.624	-0.0036
667.886	-0.0032
668.148	-0.0015
668.41	-0.0004
668.672	-0.0015
668.934	-0.0019
669.196	-0.0013
669.458	-0.0009
669.72	-0.0005
669.982	-0.0002
670.243	0.0004
670.505	0.0001
670.766	-0.0011
671.028	-0.0007
671.289	-0.0008
671.551	-0.0002
671.812	-0.0011
672.073	-0.0003
672.334	-0.0014
672.596	-0.001
672.857	-0.0015
673.118	-0.0014
673.379	-0.0018
673.639	-0.0023
673.9	-0.0022
674.161	-0.0038
674.422	-0.004
674.682	-0.0033
674.943	-0.0033
675.203	-0.0027
675.464	-0.002
675.724	-0.001
675.985	-0.0003
676.245	0.0007
676.505	0.0005
676.765	0.0003
677.025	0.0007
677.285	-0.0002
677.545	0.0009
677.805	0.0013
678.065	0.002
678.325	0.0008
678.585	0.0004
678.844	0.001
679.104	-0.0002
679.363	0.0013
679.623	0.0021
679.882	0.0018
680.142	0.0026
680.401	0.0018
680.66	0.0028
680.919	0.0025
681.178	0.0034
681.437	0.0029
681.696	0.0029
681.955	0.002
682.214	0.0032
682.473	0.0026
682.732	0.001
682.99	0.0012
683.249	0.0019
683.508	0.0014
683.766	0.0014
684.024	0.0017
684.283	0.0013
684.541	0.0017
684.799	0.0016
685.058	0.0013
685.316	0.0012
685.574	0.0024
685.832	0.0026
686.09	0.0021
686.348	0.0022
686.606	0.0022
686.863	0.0029
687.121	0.0019
687.379	0.0023
687.636	0.0023
687.894	0.0024
688.151	0.0024
688.409	0.0023
688.666	0.0014
688.923	0.0025
689.181	0.0016
689.438	0.0009
689.695	0.0018
689.952	-0.0006
690.209	0.0003
690.466	0.0001
690.723	0.0015
690.979	0.0001
691.236	0.0006
691.493	0.0005
691.75	0.0014
692.006	0.0021
692.263	0.0018
692.519	0.0021
692.775	0.0012
693.032	-0.0001
693.288	0.0008
693.544	0.0016
693.8	0.0015
694.056	0.0014
694.313	0.0007
694.568	0.0009
694.824	0.0002
695.08	0.0023
695.336	0.0027
695.592	0.0014
695.847	0.002
696.103	0.0012
696.359	0.0003
696.614	0.0007
696.869	-0.0004
697.125	0
697.38	-0.0003
697.635	-0.0013
697.891	-0.0008
698.146	-0.0014
698.401	-0.0002
698.656	-0.0013
698.911	-0.0009
699.166	-0.0012
699.42	-0.0008
699.675	-0.0012
699.93	-0.0022
700.185	-0.0008
700.439	0.0001
700.694	-0.001
700.948	-0.0001
701.203	0.0006
701.457	-0.0006
701.711	-0.0012
701.965	-0.0016
702.22	-0.0018
702.474	-0.0013
702.728	-0.002
702.982	-0.0016
703.236	-0.0012
703.49	-0.0013
703.743	-0.0011
703.997	-0.0007
704.251	-0.0003
704.504	-0.0003
704.758	-0.0005
705.012	-0.001
705.265	-0.0016
705.518	-0.0018
705.772	-0.0019
706.025	-0.0011
706.278	-0.0012
706.531	-0.0013
706.785	-0.0017
707.038	-0.0008
707.291	-0.0013
707.543	-0.0012
707.796	-0.0021
708.049	-0.0023
708.302	-0.0022
708.555	-0.0023
708.807	-0.0019
709.06	-0.0017
709.312	-0.0042
709.565	-0.0031
709.817	-0.0039
710.069	-0.0033
710.322	-0.0025
710.574	-0.0027
710.826	-0.002
711.078	-0.0012
711.33	-0.0019
711.582	-0.0022
711.834	-0.0011
712.086	-0.0011
712.338	0.0002
712.59	-0.0005
712.841	0.0004
713.093	0.0003
713.344	-0.0004
713.596	0.0001
713.847	0.001
714.099	0.0007
714.35	0.0004
714.601	0.0005
714.853	0.0019
715.104	0.0014
715.355	0.0003
715.606	0.0002
715.857	0.0003
716.108	0.0015
716.359	0.0003
716.609	0.0003
716.86	-0.0006
717.111	-0.0019
717.361	-0.0021
717.612	-0.0027
717.863	-0.0026
718.113	-0.0026
718.363	-0.0013
718.614	-0.002
718.864	-0.0016
719.114	-0.0014
719.364	-0.0011
719.614	-0.0016
719.865	-0.0029
720.114	-0.0021
720.364	-0.0023
720.614	-0.0006
720.864	0.0006
721.114	0.0004
721.364	0.0008
721.613	0.001
721.863	0.0013
722.112	0.0005
722.362	0.0018
722.611	0.0016
722.86	0.0001
723.11	-0.0001
723.359	-0.0002
723.608	0.0013
723.857	0.0019
724.106	0.0034
724.355	0.0032
724.604	0.0034
724.853	0.0028
725.102	0.0011
725.351	0.0014
725.599	0
725.848	0.0008
726.097	0
726.345	0.0007
726.594	0.0007
726.842	-0.0005
727.09	-0.0001
727.339	-0.0003
727.587	-0.0011
727.835	-0.0023
728.083	-0.0019
728.331	-0.0027
728.579	-0.003
728.827	-0.0029
729.075	-0.0026
729.323	-0.0012
729.571	-0.0008
729.818	-0.0012
730.066	-0.0002
730.314	-0.0007
730.561	-0.0018
730.809	-0.0016
731.056	-0.0014
731.303	-0.0015
731.551	-0.0013
731.798	-0.0011
732.045	-0.0011
732.292	-0.0024
732.539	-0.0017
732.786	-0.0008
733.033	-0
733.28	0.0001
733.527	0.0012
733.774	0.0004
734.021	0.0013
734.267	0.0015
734.514	0.002
734.76	0.0021
735.007	0.0036
735.253	0.0039
735.5	0.0041
735.746	0.0047
735.992	0.0037
736.238	0.0032
736.485	0.0033
736.731	0.0027
736.977	0.0026
737.223	0.0026
737.469	0.0036
737.715	0.0027
737.96	0.0039
738.206	0.003
738.452	0.0045
738.697	0.0049
738.943	0.0042
739.189	0.0026
739.434	0.0007
739.679	0.0004
739.925	-0.0007
740.17	-0.0013
740.415	-0.0009
740.66	0.0005
740.906	0.0008
741.151	0.0009
741.396	0.0004
741.641	0.0023
741.886	0.0027
742.13	0.003
742.375	0.0032
742.62	0.0044
742.865	0.0029
743.109	0.0028
743.354	0.002
743.598	0.0018
743.843	0.0019
744.087	0.0011
744.331	0.0016
744.576	0.0017
744.82	0.0012
745.064	0.0014
745.308	0.0009
745.552	0.0005
745.796	0.002
746.04	0.0018
746.284	-0
746.528	-0.0015
746.771	-0.001
747.015	-0.0014
747.259	-0.0009
747.502	-0.001
747.746	-0.0001
747.989	-0.0001
748.233	0.0005
748.476	0.0004
748.719	0.0011
748.963	0.0012
749.206	0.0007
749.449	0.0021
749.692	0.0004
749.935	0.0021
750.178	0.0012
750.421	0.0017
750.664	0.0025
750.906	0.0019
751.149	0.0008
751.392	0.0008
751.635	-0.0008
751.877	-0.0022
752.12	-0.002
752.362	-0.0015
752.604	-0.0019
752.847	-0.0011
753.089	-0.0012
753.331	-0.0005
753.573	0
753.816	0.0006
754.058	0.0012
754.3	0.0005
754.542	0.001
754.783	0.0003
755.025	-0.0001
755.267	-0.0008
755.509	-0.0012
755.75	-0.0005
755.992	0.0005
756.234	-0.0011
756.475	-0.0016
756.716	-0.001
756.958	-0.0004
757.199	-0.0005
757.44	0.0004
757.682	0.0009
757.923	-0.0002
758.164	-0.0007
758.405	-0.0017
758.646	-0.0018
758.887	-0.001
759.128	-0.0023
759.369	-0.0026
759.609	-0.0023
759.85	-0.0021
760.091	-0.0014
760.331	-0.0021
760.572	-0.0021
760.812	-0.0022
761.053	-0.0022
761.293	-0.0017
761.533	-0.0008
761.774	-0.0018
762.014	-0.0023
762.254	-0.0014
762.494	-0.0023
762.734	-0.0024
762.974	-0.0022
763.214	-0.0028
763.454	-0.0028
763.694	-0.0024
763.933	-0.0033
764.173	-0.0016
764.413	-0.0015
764.652	-0.0005
764.892	-0.0007
765.131	0.0004
765.371	-0.0004
765.61	0.0006
765.849	-0.0005
766.089	-0.0005
766.328	0.0001
766.567	0.0002
766.806	0.0007
767.045	0.0006
767.284	0.001
767.523	0.0013
767.762	0.0015
768.001	0.0008
768.239	0.001
768.478	0.0005
768.717	0.0001
768.955	0.0007
769.194	0.0004
769.432	0.0005
769.671	0.0008
769.909	0.0003
770.148	0.0009
770.386	0.0017
770.624	0.0005
770.862	0.0004
771.1	-0
771.338	0.0001
771.576	0.0001
771.814	-0.0003
772.052	-0.0002
772.29	0.0001
772.528	0.0014
772.765	0.0005
773.003	0.0012
773.24	0.0012
773.478	-0.0002
773.716	0.0012
773.953	0.0012
774.19	0.0016
774.428	0.0018
774.665	0.0017
774.902	0.0008
775.139	0.0003
775.376	0.0004
775.613	-0.0001
775.85	0.0009
776.087	-0.0006
776.324	-0.001
776.561	0.0003
776.798	0.0014
777.034	0.002
777.271	0.0031
777.508	0.0036
777.744	0.0033
777.981	0.0022
778.217	0.002
778.454	0.0018
778.69	0.0018
778.926	0.0016
779.162	0.0023
779.399	0.0007
779.635	0.0009
779.871	0.0006
780.107	0.0008
780.343	0.001
780.579	0.0018
780.814	0.0007
781.05	0.002
781.286	0.0022
781.522	0.0016
781.757	0.0031
781.993	0.0028
782.228	0.003
782.464	0.0022
782.699	0.0014
782.934	0.0009
783.17	0.0011
783.405	0.0006
783.64	0.0004
783.875	0.0011
784.11	0.0019
784.345	0.0021
784.58	0.0016
784.815	0.0014
785.05	0.0021
785.285	0.0002
785.52	-0.0003
785.754	0.0009
785.989	-0.0007
786.223	-0.0013
786.458	-0.0006
786.692	-0.0019
786.927	-0.0019
787.161	-0.0024
787.396	-0.003
787.63	-0.0027
787.864	-0.0031
788.098	-0.0032
788.332	-0.002
788.566	-0.0017
788.8	-0.0019
789.034	-0.0012
789.268	-0.0011
789.502	-0.0006
789.736	0.0009
789.969	0.0012
790.203	0.0009
790.437	0.0005
790.67	-0.0008
790.904	0.0001
791.137	-0.0017
791.37	-0.0022
791.604	-0.0023
791.837	-0.0016
792.07	-0.0021
792.303	-0.0008
792.537	-0.0017
792.77	-0.0021
793.003	-0.0017
793.236	-0.0031
793.469	-0.0021
793.701	-0.0016
793.934	-0.0022
794.167	-0.0015
794.4	-0.0003
794.632	-0.0003
794.865	-0.0019
795.097	-0.0012
795.33	0.0001
795.562	-0.0008
795.795	-0.0004
796.027	-0.0012
796.259	-0.0007
796.491	-0.002
796.724	-0.0026
796.956	-0.0011
797.188	-0.0007
797.42	-0.0013
797.652	-0.0015
797.883	-0.0015
798.115	-0.0017
798.347	-0.0028
798.579	-0.0042
798.81	-0.0043
799.042	-0.0039
799.274	-0.0042
799.505	-0.0035
799.737	-0.0052
799.968	-0.004
800.199	-0.0031
800.431	-0.0032
800.662	-0.0029
800.893	-0.0021
801.124	-0.0019
801.355	-0.0018
801.586	-0.0014
801.817	-0.0013
802.048	-0.0018
802.279	-0.0012
802.51	-0.0008
802.741	-0.0025
802.971	-0.0021
803.202	-0.0028
803.433	-0.0025
803.663	-0.0016
803.894	-0.0015
804.124	-0.0014
804.354	-0.0021
804.585	-0.0025
804.815	-0.0027
805.045	-0.0014
805.275	-0.0043
805.506	-0.0857
805.736	0.1565
805.966	0.0043
806.196	0.1025
