Data from 03 0.2 mM BQDS 0.4 mM K2Cr2O7 1 M H2SO4 5 min_Absorbance_17-22-42-857.txt Node
Date: Wed Dec 08 17:22:42 EST 2021
User: kwabilab-user
Spectrometer: HDX00518
Trigger mode: 0
Integration Time (sec): 5.000000E-2
Scans to average: 50
Nonlinearity correction enabled: false
Boxcar width: 0
Storing dark spectrum: false
XAxis mode: Wavelengths
Number of Pixels in Spectrum: 2068
>>>>>Begin Spectral Data<<<<<
195.27	0.2914
195.642	0.2445
196.014	0.2296
196.386	0.3399
196.758	0.0918
197.129	0.0592
197.501	0.0842
197.872	0.1163
198.244	0.1148
198.615	0.124
198.986	0.1351
199.357	0.1241
199.728	0.137
200.099	0.12
200.47	0.1314
200.841	0.1357
201.212	0.1223
201.582	0.1279
201.953	0.1393
202.323	0.1344
202.694	0.1221
203.064	0.1427
203.434	0.1111
203.804	0.1398
204.174	0.1291
204.544	0.1324
204.914	0.1315
205.284	0.131
205.653	0.135
206.023	0.1417
206.393	0.1314
206.762	0.1546
207.131	0.1389
207.501	0.1373
207.87	0.1697
208.239	0.1396
208.608	0.1264
208.977	0.1464
209.346	0.1561
209.715	0.1553
210.083	0.16
210.452	0.1445
210.82	0.1768
211.189	0.1817
211.557	0.1698
211.925	0.1654
212.294	0.1836
212.662	0.1856
213.03	0.2008
213.398	0.1707
213.766	0.1992
214.133	0.2086
214.501	0.242
214.869	0.2113
215.236	0.2484
215.604	0.2376
215.971	0.2761
216.338	0.2847
216.705	0.3095
217.072	0.3343
217.439	0.3322
217.806	0.3807
218.173	0.3822
218.54	0.4285
218.907	0.4544
219.273	0.506
219.64	0.5375
220.006	0.5656
220.373	0.5893
220.739	0.6527
221.105	0.6761
221.471	0.698
221.837	0.742
222.203	0.78
222.569	0.8083
222.935	0.8514
223.3	0.8606
223.666	0.9051
224.031	0.9311
224.397	0.9362
224.762	0.9541
225.127	0.9684
225.493	0.9928
225.858	0.9884
226.223	1.0127
226.588	1.0179
226.952	1.0276
227.317	1.0332
227.682	1.032
228.046	1.0202
228.411	1.0257
228.775	1.0268
229.14	1.0153
229.504	1.0124
229.868	1.0118
230.232	1.0043
230.596	0.9983
230.96	0.9837
231.324	0.9768
231.688	0.9687
232.052	0.9585
232.415	0.9496
232.779	0.9451
233.142	0.9357
233.505	0.9286
233.869	0.9177
234.232	0.9088
234.595	0.8973
234.958	0.8873
235.321	0.8749
235.684	0.8675
236.047	0.8588
236.409	0.8514
236.772	0.8406
237.134	0.8331
237.497	0.824
237.859	0.8149
238.222	0.8043
238.584	0.7971
238.946	0.7871
239.308	0.7774
239.67	0.771
240.032	0.7643
240.393	0.7506
240.755	0.7479
241.117	0.7419
241.478	0.7347
241.84	0.7279
242.201	0.7195
242.562	0.7152
242.924	0.7059
243.285	0.6998
243.646	0.693
244.007	0.6905
244.368	0.6838
244.728	0.6786
245.089	0.6722
245.45	0.6691
245.81	0.6635
246.171	0.6586
246.531	0.6504
246.891	0.6496
247.252	0.645
247.612	0.6401
247.972	0.6353
248.332	0.6332
248.692	0.6281
249.051	0.6253
249.411	0.6208
249.771	0.6175
250.13	0.6171
250.49	0.613
250.849	0.6103
251.208	0.6088
251.568	0.6042
251.927	0.602
252.286	0.5986
252.645	0.5965
253.004	0.5932
253.363	0.5896
253.721	0.5895
254.08	0.5888
254.439	0.5862
254.797	0.5832
255.155	0.5804
255.514	0.5793
255.872	0.579
256.23	0.575
256.588	0.5746
256.946	0.5711
257.304	0.568
257.662	0.5679
258.02	0.5668
258.377	0.5636
258.735	0.5621
259.093	0.5611
259.45	0.558
259.807	0.5562
260.165	0.5569
260.522	0.5527
260.879	0.55
261.236	0.5483
261.593	0.5459
261.95	0.5429
262.306	0.5421
262.663	0.5411
263.02	0.5395
263.376	0.5371
263.733	0.535
264.089	0.5335
264.445	0.5298
264.802	0.5278
265.158	0.5253
265.514	0.5242
265.87	0.5219
266.226	0.5202
266.581	0.5179
266.937	0.5144
267.293	0.514
267.648	0.5111
268.004	0.508
268.359	0.5062
268.714	0.502
269.07	0.5007
269.425	0.4974
269.78	0.4973
270.135	0.4954
270.49	0.4925
270.844	0.4895
271.199	0.4871
271.554	0.4842
271.908	0.4811
272.263	0.4798
272.617	0.4767
272.972	0.4737
273.326	0.4722
273.68	0.4702
274.034	0.4657
274.388	0.4632
274.742	0.461
275.096	0.4568
275.45	0.4553
275.803	0.4512
276.157	0.4486
276.51	0.4451
276.864	0.4412
277.217	0.4394
277.571	0.4356
277.924	0.4327
278.277	0.431
278.63	0.4258
278.983	0.4222
279.336	0.4194
279.688	0.4158
280.041	0.4128
280.394	0.4087
280.746	0.4064
281.099	0.4018
281.451	0.3976
281.803	0.3939
282.156	0.3902
282.508	0.3881
282.86	0.384
283.212	0.3798
283.564	0.3762
283.916	0.3743
284.267	0.3699
284.619	0.366
284.971	0.3623
285.322	0.359
285.673	0.3555
286.025	0.3527
286.376	0.3476
286.727	0.3431
287.078	0.3407
287.429	0.3382
287.78	0.3333
288.131	0.3287
288.482	0.3257
288.833	0.3224
289.183	0.3183
289.534	0.3142
289.884	0.3099
290.235	0.3066
290.585	0.3026
290.935	0.2993
291.285	0.2956
291.635	0.2915
291.985	0.2877
292.335	0.2844
292.685	0.2813
293.035	0.2769
293.384	0.273
293.734	0.27
294.083	0.2659
294.433	0.2621
294.782	0.2587
295.131	0.2552
295.48	0.2524
295.829	0.2489
296.179	0.2442
296.527	0.2418
296.876	0.2385
297.225	0.2367
297.574	0.2316
297.922	0.2288
298.271	0.2256
298.619	0.222
298.968	0.22
299.316	0.2173
299.664	0.2137
300.012	0.2116
300.36	0.2084
300.708	0.2052
301.056	0.2031
301.404	0.2007
301.752	0.198
302.099	0.1959
302.447	0.1931
302.794	0.1906
303.142	0.1885
303.489	0.1867
303.836	0.1835
304.183	0.1826
304.531	0.1807
304.878	0.179
305.224	0.176
305.571	0.1753
305.918	0.1733
306.265	0.1716
306.611	0.1698
306.958	0.1697
307.304	0.1677
307.651	0.1663
307.997	0.1644
308.343	0.164
308.689	0.1629
309.035	0.1614
309.381	0.1605
309.727	0.1594
310.073	0.1593
310.419	0.158
310.764	0.1575
311.11	0.1575
311.455	0.1562
311.801	0.1552
312.146	0.1552
312.491	0.1546
312.837	0.1539
313.182	0.1539
313.527	0.1536
313.872	0.1527
314.216	0.1529
314.561	0.1525
314.906	0.1531
315.251	0.1526
315.595	0.1519
315.94	0.1522
316.284	0.1524
316.628	0.152
316.972	0.152
317.317	0.1531
317.661	0.153
318.005	0.1534
318.348	0.1533
318.692	0.1544
319.036	0.1537
319.38	0.1548
319.723	0.1552
320.067	0.1551
320.41	0.1562
320.754	0.1571
321.097	0.1574
321.44	0.1581
321.783	0.1581
322.126	0.1591
322.469	0.1608
322.812	0.1615
323.155	0.1621
323.498	0.1628
323.84	0.1639
324.183	0.1645
324.525	0.165
324.868	0.166
325.21	0.1673
325.552	0.1685
325.894	0.1687
326.236	0.1701
326.578	0.1707
326.92	0.1719
327.262	0.1733
327.604	0.1745
327.946	0.175
328.287	0.1762
328.629	0.1775
328.97	0.1784
329.312	0.1793
329.653	0.1807
329.994	0.1822
330.335	0.1834
330.676	0.1839
331.017	0.1848
331.358	0.1865
331.699	0.1878
332.04	0.1891
332.38	0.1894
332.721	0.1919
333.061	0.1925
333.402	0.1938
333.742	0.1945
334.083	0.1963
334.423	0.1963
334.763	0.1975
335.103	0.1991
335.443	0.1996
335.783	0.2
336.123	0.2012
336.462	0.2028
336.802	0.2035
337.141	0.2041
337.481	0.2054
337.82	0.2057
338.16	0.2064
338.499	0.2077
338.838	0.2087
339.177	0.2099
339.516	0.2102
339.855	0.2114
340.194	0.2125
340.533	0.2127
340.872	0.2136
341.21	0.2148
341.549	0.2153
341.887	0.2159
342.226	0.2163
342.564	0.2162
342.902	0.2171
343.24	0.2176
343.578	0.2174
343.916	0.2176
344.254	0.218
344.592	0.2185
344.93	0.2189
345.268	0.2184
345.605	0.2181
345.943	0.2188
346.28	0.2189
346.618	0.2186
346.955	0.219
347.292	0.2187
347.629	0.2193
347.966	0.2194
348.303	0.2188
348.64	0.2198
348.977	0.219
349.314	0.219
349.65	0.2196
349.987	0.219
350.324	0.2182
350.66	0.2181
350.996	0.219
351.333	0.2176
351.669	0.2164
352.005	0.2165
352.341	0.2154
352.677	0.2147
353.013	0.2138
353.349	0.2136
353.685	0.2122
354.02	0.211
354.356	0.2105
354.691	0.2087
355.027	0.2088
355.362	0.2069
355.697	0.2065
356.033	0.2055
356.368	0.2047
356.703	0.2034
357.038	0.2028
357.373	0.2025
357.707	0.2018
358.042	0.2003
358.377	0.1996
358.711	0.1988
359.046	0.1984
359.38	0.1964
359.715	0.1957
360.049	0.1949
360.383	0.1935
360.717	0.1923
361.051	0.1906
361.385	0.1901
361.719	0.1876
362.053	0.1872
362.387	0.1851
362.72	0.183
363.054	0.1813
363.387	0.1803
363.721	0.1782
364.054	0.1763
364.387	0.1746
364.721	0.1739
365.054	0.1722
365.387	0.1704
365.72	0.169
366.053	0.1671
366.385	0.1659
366.718	0.1648
367.051	0.1631
367.383	0.1619
367.716	0.1609
368.048	0.1603
368.381	0.1584
368.713	0.1574
369.045	0.156
369.377	0.1544
369.709	0.153
370.041	0.1517
370.373	0.1512
370.705	0.1496
371.037	0.1474
371.368	0.1456
371.7	0.1451
372.031	0.1433
372.363	0.1412
372.694	0.1399
373.025	0.138
373.356	0.1365
373.688	0.134
374.019	0.1325
374.35	0.1305
374.68	0.129
375.011	0.1267
375.342	0.1252
375.673	0.1236
376.003	0.1216
376.334	0.1204
376.664	0.1193
376.995	0.1168
377.325	0.1162
377.655	0.115
377.985	0.1131
378.315	0.1117
378.645	0.1112
378.975	0.1103
379.305	0.1082
379.635	0.1069
379.964	0.1055
380.294	0.1047
380.623	0.1044
380.953	0.1025
381.282	0.1014
381.611	0.1
381.941	0.0988
382.27	0.0975
382.599	0.0964
382.928	0.0946
383.257	0.0939
383.585	0.0931
383.914	0.0908
384.243	0.0898
384.571	0.0881
384.9	0.0859
385.228	0.0851
385.557	0.0841
385.885	0.0824
386.213	0.0809
386.541	0.0796
386.869	0.0777
387.197	0.0759
387.525	0.0749
387.853	0.0738
388.181	0.0729
388.508	0.0721
388.836	0.0706
389.164	0.0699
389.491	0.0686
389.818	0.0676
390.146	0.0664
390.473	0.0651
390.8	0.0651
391.127	0.0635
391.454	0.0627
391.781	0.0619
392.108	0.0606
392.435	0.059
392.761	0.0585
393.088	0.0577
393.415	0.0574
393.741	0.0573
394.067	0.0557
394.394	0.0555
394.72	0.0553
395.046	0.0533
395.372	0.053
395.698	0.052
396.024	0.0514
396.35	0.0505
396.676	0.0505
397.001	0.0504
397.327	0.0485
397.653	0.0478
397.978	0.0467
398.303	0.0457
398.629	0.0451
398.954	0.0451
399.279	0.0444
399.604	0.0439
399.929	0.0428
400.254	0.0424
400.579	0.0425
400.904	0.0416
401.229	0.0412
401.553	0.0397
401.878	0.0398
402.202	0.0396
402.527	0.0387
402.851	0.039
403.175	0.0381
403.5	0.0382
403.824	0.0382
404.148	0.0375
404.472	0.0376
404.796	0.0364
405.119	0.0365
405.443	0.0363
405.767	0.0356
406.09	0.0358
406.414	0.0362
406.737	0.0359
407.061	0.0352
407.384	0.0354
407.707	0.0346
408.03	0.0354
408.353	0.0349
408.676	0.0352
408.999	0.0345
409.322	0.0349
409.645	0.0347
409.968	0.0345
410.29	0.0344
410.613	0.0341
410.935	0.0342
411.258	0.0343
411.58	0.0341
411.902	0.0346
412.224	0.0341
412.546	0.0345
412.868	0.0341
413.19	0.034
413.512	0.0343
413.834	0.0343
414.156	0.0349
414.477	0.0339
414.799	0.034
415.121	0.0343
415.442	0.0339
415.763	0.0347
416.085	0.0343
416.406	0.0344
416.727	0.0341
417.048	0.0345
417.369	0.0342
417.69	0.0343
418.011	0.0342
418.331	0.0345
418.652	0.0345
418.973	0.0347
419.293	0.0348
419.614	0.0348
419.934	0.0345
420.254	0.0351
420.574	0.0342
420.895	0.0344
421.215	0.0342
421.535	0.0341
421.855	0.0346
422.174	0.0339
422.494	0.034
422.814	0.035
423.134	0.0345
423.453	0.035
423.773	0.0351
424.092	0.035
424.411	0.0347
424.731	0.0354
425.05	0.0355
425.369	0.0351
425.688	0.0352
426.007	0.0357
426.326	0.0356
426.644	0.0364
426.963	0.0365
427.282	0.0359
427.6	0.0361
427.919	0.0366
428.237	0.0362
428.556	0.0372
428.874	0.0358
429.192	0.0359
429.51	0.0359
429.828	0.0358
430.146	0.0367
430.464	0.0359
430.782	0.0361
431.1	0.0363
431.418	0.0357
431.735	0.036
432.053	0.0366
432.37	0.0367
432.688	0.0364
433.005	0.0365
433.322	0.0374
433.639	0.0371
433.957	0.0368
434.274	0.0368
434.591	0.037
434.907	0.0371
435.224	0.0371
435.541	0.0376
435.858	0.0377
436.174	0.037
436.491	0.0379
436.807	0.0374
437.124	0.0367
437.44	0.0364
437.756	0.0366
438.072	0.0363
438.388	0.0373
438.704	0.0374
439.02	0.0372
439.336	0.037
439.652	0.0371
439.968	0.0367
440.283	0.037
440.599	0.0372
440.914	0.0368
441.23	0.0368
441.545	0.0365
441.86	0.0367
442.175	0.0369
442.491	0.0367
442.806	0.0366
443.121	0.0371
443.435	0.0362
443.75	0.0363
444.065	0.0366
444.38	0.0368
444.694	0.0371
445.009	0.0367
445.323	0.0367
445.638	0.0365
445.952	0.0363
446.266	0.0366
446.58	0.0364
446.894	0.0368
447.208	0.0369
447.522	0.0366
447.836	0.0349
448.15	0.0352
448.464	0.0356
448.777	0.0359
449.091	0.0351
449.404	0.0363
449.718	0.0365
450.031	0.0359
450.345	0.0351
450.658	0.0354
450.971	0.0354
451.284	0.0343
451.597	0.0353
451.91	0.0355
452.223	0.0352
452.535	0.0354
452.848	0.0353
453.161	0.035
453.473	0.0351
453.786	0.0353
454.098	0.0345
454.411	0.0347
454.723	0.0344
455.035	0.0344
455.347	0.0352
455.659	0.035
455.971	0.0343
456.283	0.0347
456.595	0.0341
456.907	0.0342
457.218	0.0343
457.53	0.0338
457.841	0.0333
458.153	0.0327
458.464	0.0331
458.776	0.0319
459.087	0.0326
459.398	0.0324
459.709	0.0329
460.02	0.0322
460.331	0.0319
460.642	0.0316
460.953	0.0322
461.263	0.032
461.574	0.0319
461.885	0.0317
462.195	0.0322
462.506	0.0318
462.816	0.0314
463.126	0.0307
463.437	0.0306
463.747	0.0302
464.057	0.0304
464.367	0.0306
464.677	0.0297
464.987	0.0303
465.296	0.0296
465.606	0.0288
465.916	0.0286
466.225	0.0295
466.535	0.0284
466.844	0.0287
467.154	0.0283
467.463	0.0284
467.772	0.0288
468.081	0.028
468.39	0.0285
468.699	0.028
469.008	0.0287
469.317	0.0281
469.626	0.0279
469.935	0.027
470.243	0.0277
470.552	0.0282
470.86	0.0271
471.169	0.0271
471.477	0.0272
471.785	0.0268
472.093	0.0271
472.402	0.0257
472.71	0.0265
473.018	0.0255
473.326	0.025
473.633	0.0258
473.941	0.0257
474.249	0.0258
474.556	0.0252
474.864	0.0245
475.171	0.0241
475.479	0.0249
475.786	0.0249
476.094	0.0244
476.401	0.0242
476.708	0.0239
477.015	0.0246
477.322	0.0244
477.629	0.0235
477.936	0.0225
478.242	0.0228
478.549	0.0229
478.856	0.0224
479.162	0.0224
479.469	0.0227
479.775	0.0233
480.081	0.0216
480.388	0.0221
480.694	0.0213
481	0.0211
481.306	0.0218
481.612	0.021
481.918	0.0205
482.224	0.0212
482.53	0.0205
482.835	0.0201
483.141	0.0194
483.446	0.0196
483.752	0.0201
484.057	0.0187
484.363	0.019
484.668	0.0185
484.973	0.0187
485.278	0.0177
485.583	0.0178
485.888	0.0176
486.193	0.0178
486.498	0.0176
486.803	0.0178
487.107	0.0181
487.412	0.0165
487.717	0.0171
488.021	0.0173
488.325	0.0169
488.63	0.0164
488.934	0.0164
489.238	0.0169
489.542	0.0167
489.846	0.0151
490.15	0.0161
490.454	0.0163
490.758	0.0159
491.062	0.0156
491.366	0.015
491.669	0.0152
491.973	0.0157
492.276	0.015
492.58	0.0141
492.883	0.0148
493.186	0.0149
493.489	0.0147
493.792	0.0143
494.096	0.0144
494.399	0.0144
494.701	0.0147
495.004	0.0142
495.307	0.0133
495.61	0.013
495.912	0.0126
496.215	0.0128
496.517	0.0125
496.82	0.0123
497.122	0.0126
497.424	0.0113
497.727	0.0114
498.029	0.0127
498.331	0.0122
498.633	0.0127
498.935	0.0113
499.237	0.0112
499.538	0.0118
499.84	0.011
500.142	0.0119
500.443	0.011
500.745	0.0111
501.046	0.0117
501.348	0.0099
501.649	0.0108
501.95	0.0099
502.251	0.01
502.552	0.0093
502.853	0.0102
503.154	0.0099
503.455	0.0096
503.756	0.0096
504.057	0.0101
504.357	0.0096
504.658	0.0092
504.958	0.0096
505.259	0.01
505.559	0.0095
505.859	0.0092
506.16	0.0093
506.46	0.0091
506.76	0.009
507.06	0.0086
507.36	0.0093
507.66	0.0093
507.96	0.0088
508.259	0.0081
508.559	0.0077
508.859	0.0083
509.158	0.0085
509.457	0.007
509.757	0.0089
510.056	0.0078
510.355	0.0071
510.655	0.0065
510.954	0.0071
511.253	0.0074
511.552	0.0074
511.851	0.0067
512.149	0.0061
512.448	0.0062
512.747	0.0065
513.045	0.0062
513.344	0.0074
513.642	0.0079
513.941	0.0062
514.239	0.0068
514.537	0.0067
514.836	0.007
515.134	0.0062
515.432	0.0073
515.73	0.0063
516.028	0.0048
516.326	0.0064
516.623	0.006
516.921	0.0061
517.219	0.0074
517.516	0.0066
517.814	0.0059
518.111	0.0059
518.409	0.0072
518.706	0.0066
519.003	0.0069
519.3	0.0048
519.597	0.0049
519.894	0.006
520.191	0.006
520.488	0.0063
520.785	0.0048
521.082	0.0053
521.378	0.0057
521.675	0.0046
521.971	0.005
522.268	0.0051
522.564	0.0054
522.861	0.0048
523.157	0.0046
523.453	0.0043
523.749	0.0054
524.045	0.0067
524.341	0.0061
524.637	0.0042
524.933	0.0047
525.229	0.0047
525.524	0.0041
525.82	0.0055
526.115	0.004
526.411	0.0041
526.706	0.0053
527.002	0.0043
527.297	0.0031
527.592	0.0065
527.887	0.0056
528.182	0.0051
528.477	0.006
528.772	0.0045
529.067	0.0048
529.362	0.0042
529.657	0.0048
529.951	0.0043
530.246	0.0032
530.54	0.0017
530.835	0.0031
531.129	0.0033
531.423	0.0046
531.718	0.0041
532.012	0.0034
532.306	0.0032
532.6	0.004
532.894	0.0036
533.188	0.0046
533.482	0.003
533.775	0.0041
534.069	0.0024
534.363	0.0025
534.656	0.0022
534.95	0.0027
535.243	0.0033
535.536	0.0036
535.83	0.0042
536.123	0.0023
536.416	0.0027
536.709	0.0026
537.002	0.0047
537.295	0.0033
537.588	0.004
537.881	0.0027
538.173	0.0032
538.466	0.0029
538.759	0.0018
539.051	0.0025
539.344	0.0026
539.636	0.0028
539.928	0.0026
540.22	0.0031
540.513	0.0033
540.805	0.0028
541.097	0.0034
541.389	0.0026
541.681	0.0023
541.972	0.003
542.264	0.0023
542.556	0.0029
542.847	0.002
543.139	0.0031
543.431	0.0027
543.722	0.003
544.013	0.0037
544.305	0.0035
544.596	0.0041
544.887	0.0023
545.178	0.0025
545.469	0.0026
545.76	0.002
546.051	0.003
546.342	0.003
546.632	0.0021
546.923	0.0029
547.214	0.0029
547.504	0.0024
547.795	0.0032
548.085	0.0035
548.375	0.0026
548.666	0.0028
548.956	0.0021
549.246	0.0033
549.536	0.0027
549.826	0.0035
550.116	0.0034
550.406	0.0029
550.695	0.0046
550.985	0.0034
551.275	0.0045
551.564	0.0026
551.854	0.0033
552.143	0.0034
552.433	0.004
552.722	0.0029
553.011	0.0023
553.3	0.0036
553.589	0.0029
553.879	0.0035
554.167	0.0035
554.456	0.0029
554.745	0.0027
555.034	0.0024
555.323	0.0014
555.611	0.0021
555.9	0.0028
556.188	0.0024
556.477	0.0028
556.765	0.0024
557.053	0.0029
557.342	0.0023
557.63	0.0034
557.918	0.0042
558.206	0.0031
558.494	0.0042
558.782	0.0031
559.069	0.0036
559.357	0.0037
559.645	0.0028
559.932	0.0032
560.22	0.0038
560.507	0.0035
560.795	0.0029
561.082	0.0026
561.37	0.0026
561.657	0.0028
561.944	0.0038
562.231	0.0035
562.518	0.0021
562.805	0.0033
563.092	0.004
563.379	0.0032
563.665	0.0023
563.952	0.0042
564.239	0.0046
564.525	0.0043
564.811	0.0042
565.098	0.0036
565.384	0.0042
565.67	0.0043
565.957	0.0039
566.243	0.0038
566.529	0.0042
566.815	0.0054
567.101	0.0036
567.387	0.0032
567.672	0.0037
567.958	0.0039
568.244	0.0036
568.529	0.0037
568.815	0.0029
569.1	0.0039
569.386	0.003
569.671	0.003
569.956	0.0028
570.242	0.0026
570.527	0.0037
570.812	0.0034
571.097	0.0034
571.382	0.0026
571.666	0.0029
571.951	0.0024
572.236	0.003
572.521	0.0025
572.805	0.0032
573.09	0.0025
573.374	0.003
573.659	0.0026
573.943	0.0024
574.227	0.0026
574.511	0.0034
574.795	0.0023
575.079	0.0024
575.363	0.0024
575.647	0.0026
575.931	0.0025
576.215	0.0033
576.499	0.0024
576.782	0.0023
577.066	0.0019
577.349	0.0029
577.633	0.0033
577.916	0.0036
578.2	0.0036
578.483	0.003
578.766	0.0018
579.049	0.0032
579.332	0.0023
579.615	0.0028
579.898	0.0029
580.181	0.0025
580.464	0.0028
580.746	0.0015
581.029	0.0032
581.312	0.002
581.594	0.002
581.877	0.0025
582.159	0.0029
582.441	0.003
582.724	0.0024
583.006	0.0022
583.288	0.0015
583.57	0.0017
583.852	0.0023
584.134	0.0017
584.416	0.0026
584.697	0.0021
584.979	0.0023
585.261	0.0028
585.542	0.0017
585.824	0.0027
586.105	0.0034
586.387	0.0019
586.668	0.0023
586.949	0.0027
587.231	0.0021
587.512	0.0029
587.793	0.0022
588.074	0.0032
588.355	0.0022
588.636	0.0032
588.916	0.0027
589.197	0.003
589.478	0.0039
589.758	0.0028
590.039	0.0029
590.319	0.0031
590.6	0.0029
590.88	0.0026
591.16	0.0031
591.441	0.0029
591.721	0.0038
592.001	0.003
592.281	0.003
592.561	0.0034
592.841	0.0033
593.12	0.0025
593.4	0.002
593.68	0.0024
593.959	0.0025
594.239	0.0034
594.518	0.0023
594.798	0.0037
595.077	0.0034
595.356	0.003
595.636	0.0022
595.915	0.0033
596.194	0.0028
596.473	0.0039
596.752	0.0029
597.031	0.0024
597.31	0.0018
597.588	0.0018
597.867	0.0017
598.146	0.0022
598.424	0.0018
598.703	0.0017
598.981	0.0024
599.259	0.0022
599.538	0.0019
599.816	0.0029
600.094	0.0024
600.372	0.0026
600.65	0.0025
600.928	0.0035
601.206	0.0032
601.484	0.003
601.762	0.003
602.04	0.0027
602.317	0.0028
602.595	0.0024
602.872	0.003
603.15	0.0018
603.427	0.0021
603.704	0.0019
603.982	0.0017
604.259	0.002
604.536	0.0023
604.813	0.002
605.09	0.0022
605.367	0.0025
605.644	0.0013
605.921	0.002
606.197	0.0021
606.474	0.0017
606.751	0.0019
607.027	0.0024
607.304	0.0013
607.58	0.0017
607.856	0.0016
608.133	0.0024
608.409	0.0027
608.685	0.0025
608.961	0.0034
609.237	0.0031
609.513	0.0024
609.789	0.0023
610.065	0.0017
610.341	0.0026
610.616	0.0023
610.892	0.0028
611.167	0.0025
611.443	0.0023
611.718	0.002
611.994	0.0018
612.269	0.0023
612.544	0.0022
612.819	0.002
613.095	0.0029
613.37	0.0023
613.645	0.0015
613.919	0.0018
614.194	0.0019
614.469	0.0022
614.744	0.0012
615.019	0.0008
615.293	0.0006
615.568	0.0008
615.842	0.0011
616.116	0.0011
616.391	0.0016
616.665	0.0033
616.939	0.0017
617.213	0.0025
617.488	0.0016
617.762	0.0019
618.035	0.0023
618.309	0.002
618.583	0.0022
618.857	0.0021
619.131	0.003
619.404	0.0022
619.678	0.0019
619.951	0.0012
620.225	0.0013
620.498	0.0014
620.771	0.0012
621.045	0.0028
621.318	0.0031
621.591	0.0033
621.864	0.0023
622.137	0.0001
622.41	0.0011
622.683	0.0008
622.956	0.0023
623.228	0.0028
623.501	0.0028
623.774	0.003
624.046	0.003
624.319	0.0024
624.591	0.0011
624.863	0.0024
625.136	0.0025
625.408	0.0033
625.68	0.0024
625.952	0.0032
626.224	0.003
626.496	0.0035
626.768	0.0016
627.04	0.0016
627.311	0.0022
627.583	0.0025
627.855	0.0027
628.126	0.0023
628.398	0.0023
628.669	0.0034
628.941	0.0017
629.212	0.001
629.483	0.0016
629.755	0.0016
630.026	0.0018
630.297	0.0015
630.568	0.0015
630.839	0.0012
631.11	0.0007
631.38	0.0005
631.651	0.0013
631.922	0.0002
632.192	0.0009
632.463	0.0003
632.733	0.0018
633.004	0.0011
633.274	0.0011
633.545	0.0026
633.815	0.0042
634.085	0.0038
634.355	0.0022
634.625	0.0037
634.895	0.0023
635.165	0.0017
635.435	0.0028
635.705	0.0026
635.974	0.0018
636.244	0.0021
636.514	0.0018
636.783	0.0017
637.053	0.0027
637.322	0.0015
637.591	0.0032
637.861	0.0025
638.13	0.0022
638.399	0.0016
638.668	0.003
638.937	0.0016
639.206	0.0022
639.475	0.0022
639.744	0.0025
640.013	0.0028
640.281	0.0047
640.55	0.0032
640.819	0.003
641.087	0.0036
641.356	0.0029
641.624	0.0033
641.892	0.0035
642.161	0.0038
642.429	0.0031
642.697	0.0026
642.965	0.0051
643.233	0.0046
643.501	0.003
643.769	0.0024
644.037	0.002
644.305	0.0019
644.572	0.0015
644.84	0.0015
645.108	0.002
645.375	0.0013
645.643	0.001
645.91	0.0012
646.177	0.0025
646.445	0.0048
646.712	0.005
646.979	0.0051
647.246	0.0042
647.513	0.005
647.78	0.0037
648.047	0.0047
648.314	0.0029
648.58	0.004
648.847	0.0023
649.114	0.0016
649.38	0.0016
649.647	0.0012
649.913	0.0017
650.18	0.0026
650.446	0.0021
650.712	0.0028
650.978	0.0032
651.245	0.0042
651.511	0.0031
651.777	0.0029
652.043	0.0032
652.309	0.004
652.574	0.0047
652.84	0.0034
653.106	0.0017
653.371	0.0015
653.637	0.0023
653.903	0.0034
654.168	0.0032
654.433	0.0034
654.699	0.0039
654.964	0.0045
655.229	0.0035
655.494	0.0032
655.759	0.0008
656.024	0.0002
656.289	-0
656.554	-0.0018
656.819	0.0006
657.084	0.0027
657.349	0.0036
657.613	0.0041
657.878	0.0035
658.142	0.0036
658.407	0.0039
658.671	0.0036
658.936	0.0026
659.2	0.0022
659.464	0.0024
659.728	0.0028
659.992	0.0034
660.256	0.0019
660.52	0.0021
660.784	0.0019
661.048	0.0017
661.312	0.0003
661.575	0.001
661.839	-0.0009
662.103	-0.0006
662.366	0.0003
662.63	0.0016
662.893	0.0013
663.156	0.0007
663.42	0.0002
663.683	0.0004
663.946	0.0019
664.209	0.0033
664.472	0.0027
664.735	0.0023
664.998	0.0027
665.261	0.0023
665.524	0.0018
665.786	0.002
666.049	0.0026
666.312	0.002
666.574	0.0031
666.837	0.0017
667.099	0.0007
667.361	0.0012
667.624	0.0004
667.886	0.0002
668.148	0.0022
668.41	0.0032
668.672	0.0017
668.934	0.0022
669.196	0.0024
669.458	0.0023
669.72	0.0028
669.982	0.0031
670.243	0.0034
670.505	0.0029
670.766	0.0028
671.028	0.0037
671.289	0.0031
671.551	0.0017
671.812	0.0008
672.073	0.0013
672.334	0.0003
672.596	0.001
672.857	0.001
673.118	0.001
673.379	0.0006
673.639	0.0004
673.9	0.0006
674.161	-0.001
674.422	-0.002
674.682	-0.0006
674.943	-0.0009
675.203	0.0003
675.464	0.0005
675.724	0.002
675.985	0.0022
676.245	0.0027
676.505	0.0034
676.765	0.0028
677.025	0.0027
677.285	0.0034
677.545	0.0046
677.805	0.004
678.065	0.0039
678.325	0.0042
678.585	0.0029
678.844	0.0028
679.104	0.0022
679.363	0.0026
679.623	0.0034
679.882	0.0041
680.142	0.0041
680.401	0.004
680.66	0.0049
680.919	0.0047
681.178	0.0048
681.437	0.0059
681.696	0.0045
681.955	0.0048
682.214	0.0046
682.473	0.0051
682.732	0.0028
682.99	0.003
683.249	0.0028
683.508	0.0037
683.766	0.0035
684.024	0.0034
684.283	0.0038
684.541	0.0038
684.799	0.0041
685.058	0.0029
685.316	0.003
685.574	0.0034
685.832	0.0036
686.09	0.0035
686.348	0.005
686.606	0.0039
686.863	0.0049
687.121	0.005
687.379	0.0043
687.636	0.0043
687.894	0.0052
688.151	0.0054
688.409	0.005
688.666	0.0044
688.923	0.0057
689.181	0.005
689.438	0.0039
689.695	0.0043
689.952	0.0022
690.209	0.002
690.466	0.0022
690.723	0.0038
690.979	0.0031
691.236	0.0028
691.493	0.002
691.75	0.0031
692.006	0.0036
692.263	0.0046
692.519	0.0037
692.775	0.0035
693.032	0.0023
693.288	0.0035
693.544	0.0036
693.8	0.0026
694.056	0.0033
694.313	0.0038
694.568	0.0031
694.824	0.0027
695.08	0.0041
695.336	0.0038
695.592	0.0033
695.847	0.0035
696.103	0.0035
696.359	0.0039
696.614	0.0039
696.869	0.0019
697.125	0.0009
697.38	-0
697.635	-0
697.891	0.001
698.146	0.0006
698.401	0.0021
698.656	0.0019
698.911	0.0031
699.166	0.0022
699.42	0.0019
699.675	0.0016
699.93	0.0013
700.185	0.0013
700.439	0.0028
700.694	0.0023
700.948	0.0022
701.203	0.0032
701.457	0.0015
701.711	0.0015
701.965	0.0004
702.22	-0.0001
702.474	0.0009
702.728	0.0004
702.982	-0.0008
703.236	0.0003
703.49	0
703.743	0.0003
703.997	0.001
704.251	0.001
704.504	0.0026
704.758	0.0012
705.012	0.0011
705.265	0.0015
705.518	0.0015
705.772	0.0006
706.025	0.0004
706.278	0.0011
706.531	0.0005
706.785	-0.0007
707.038	0.0004
707.291	-0.0004
707.543	0.0004
707.796	-0.0002
708.049	-0.0007
708.302	-0.0003
708.555	-0.0003
708.807	0.0003
709.06	0.0004
709.312	-0.0011
709.565	-0.001
709.817	-0.0015
710.069	-0.0001
710.322	-0.0003
710.574	0.0005
710.826	-0.0001
711.078	0.0011
711.33	0.0011
711.582	0.0009
711.834	0.0017
712.086	0.0025
712.338	0.0026
712.59	0.0028
712.841	0.0021
713.093	0.0012
713.344	0.0017
713.596	0.0023
713.847	0.0029
714.099	0.0031
714.35	0.0025
714.601	0.0029
714.853	0.0037
715.104	0.0034
715.355	0.0025
715.606	0.0024
715.857	0.0028
716.108	0.0042
716.359	0.0037
716.609	0.0035
716.86	0.0024
717.111	0.0021
717.361	0.0001
717.612	0.0008
717.863	0.0005
718.113	0.0008
718.363	0.0013
718.614	0.0006
718.864	0.002
719.114	0.0018
719.364	0.0011
719.614	0.0007
719.865	-0.0008
720.114	0.0008
720.364	0.0007
720.614	0.0021
720.864	0.0032
721.114	0.0026
721.364	0.0035
721.613	0.0038
721.863	0.0041
722.112	0.0038
722.362	0.0042
722.611	0.0037
722.86	0.0028
723.11	0.0014
723.359	0.002
723.608	0.0027
723.857	0.0038
724.106	0.0056
724.355	0.0053
724.604	0.0061
724.853	0.0048
725.102	0.005
725.351	0.0034
725.599	0.0027
725.848	0.0031
726.097	0.0023
726.345	0.0026
726.594	0.0023
726.842	0.0027
727.09	0.0026
727.339	0.0018
727.587	0.0019
727.835	0.0006
728.083	0.0001
728.331	0.0001
728.579	-0.0006
728.827	-0.0001
729.075	0.0002
729.323	0.0013
729.571	0.0017
729.818	0.0023
730.066	0.0021
730.314	0.0027
730.561	0.0008
730.809	0.0009
731.056	0.0005
731.303	-0.0003
731.551	0.0016
731.798	0.0008
732.045	0.0006
732.292	0.0007
732.539	0.0011
732.786	0.0014
733.033	0.0019
733.28	0.0022
733.527	0.004
733.774	0.0028
734.021	0.0039
734.267	0.0037
734.514	0.0039
734.76	0.0043
735.007	0.0058
735.253	0.0065
735.5	0.0055
735.746	0.0064
735.992	0.0052
736.238	0.0056
736.485	0.0064
736.731	0.0067
736.977	0.006
737.223	0.0039
737.469	0.006
737.715	0.0061
737.96	0.0079
738.206	0.0069
738.452	0.0089
738.697	0.0084
738.943	0.0071
739.189	0.0055
739.434	0.0027
739.679	0.0027
739.925	0.0021
740.17	0.0024
740.415	0.0023
740.66	0.0028
740.906	0.0035
741.151	0.0039
741.396	0.0043
741.641	0.006
741.886	0.006
742.13	0.0066
742.375	0.0068
742.62	0.0074
742.865	0.0058
743.109	0.0055
743.354	0.0053
743.598	0.0062
743.843	0.0055
744.087	0.0055
744.331	0.0059
744.576	0.0051
744.82	0.0055
745.064	0.0046
745.308	0.0035
745.552	0.0042
745.796	0.0051
746.04	0.0041
746.284	0.0025
746.528	0.0013
746.771	0.0021
747.015	0.002
747.259	0.0016
747.502	0.0012
747.746	0.0031
747.989	0.0028
748.233	0.004
748.476	0.0047
748.719	0.0045
748.963	0.0053
749.206	0.004
749.449	0.0053
749.692	0.0036
749.935	0.0051
750.178	0.0047
750.421	0.0048
750.664	0.0046
750.906	0.0048
751.149	0.004
751.392	0.0039
751.635	0.002
751.877	0.0006
752.12	0.0002
752.362	0.0017
752.604	0.0003
752.847	0.0026
753.089	0.0029
753.331	0.0026
753.573	0.0027
753.816	0.0033
754.058	0.0034
754.3	0.0043
754.542	0.0054
754.783	0.0043
755.025	0.0043
755.267	0.0019
755.509	0.0021
755.75	0.0017
755.992	0.0022
756.234	0.001
756.475	0.0007
756.716	0.0003
756.958	0.0004
757.199	0.0001
757.44	0.0016
757.682	0.0013
757.923	-0.0001
758.164	0.0002
758.405	-0.0001
758.646	0.0002
758.887	0.0007
759.128	0.0011
759.369	0.0002
759.609	-0.0003
759.85	-0.0002
760.091	0.0008
760.331	0.0006
760.572	0.0001
760.812	-0.0008
761.053	-0.0005
761.293	0.0005
761.533	0.0005
761.774	0.001
762.014	0.0019
762.254	0.0022
762.494	0.0004
762.734	0.0008
762.974	0.0009
763.214	-0.0001
763.454	0.0004
763.694	0.0003
763.933	-0.0005
764.173	0.0014
764.413	0.0009
764.652	0.0005
764.892	0.001
765.131	0.0015
765.371	0.0014
765.61	0.0023
765.849	0.0023
766.089	0.0035
766.328	0.0042
766.567	0.0036
766.806	0.0039
767.045	0.0046
767.284	0.0042
767.523	0.0056
767.762	0.0046
768.001	0.0046
768.239	0.0038
768.478	0.0029
768.717	0.0024
768.955	0.0033
769.194	0.0023
769.432	0.0026
769.671	0.0032
769.909	0.0037
770.148	0.0036
770.386	0.0036
770.624	0.0034
770.862	0.0039
771.1	0.0035
771.338	0.0034
771.576	0.0032
771.814	0.0024
772.052	0.0033
772.29	0.0047
772.528	0.0043
772.765	0.0046
773.003	0.0043
773.24	0.0041
773.478	0.0039
773.716	0.005
773.953	0.0049
774.19	0.0053
774.428	0.0051
774.665	0.005
774.902	0.0052
775.139	0.0035
775.376	0.0041
775.613	0.0035
775.85	0.0044
776.087	0.0031
776.324	0.0041
776.561	0.0049
776.798	0.0054
777.034	0.0065
777.271	0.0075
777.508	0.008
777.744	0.0073
777.981	0.0069
778.217	0.0062
778.454	0.0057
778.69	0.0047
778.926	0.0052
779.162	0.005
779.399	0.0046
779.635	0.005
779.871	0.004
780.107	0.0051
780.343	0.0053
780.579	0.0057
780.814	0.0052
781.05	0.0057
781.286	0.0054
781.522	0.0043
781.757	0.0068
781.993	0.0062
782.228	0.0061
782.464	0.006
782.699	0.0047
782.934	0.0044
783.17	0.0045
783.405	0.0045
783.64	0.004
783.875	0.0043
784.11	0.0045
784.345	0.0048
784.58	0.0044
784.815	0.0044
785.05	0.0038
785.285	0.0027
785.52	0.0028
785.754	0.0035
785.989	0.0022
786.223	0.0015
786.458	0.002
786.692	0.0016
786.927	0.0022
787.161	0.0012
787.396	0.002
787.63	0.0007
787.864	0.0005
788.098	0.0013
788.332	0.001
788.566	0.0008
788.8	-0.0002
789.034	0.0012
789.268	0.0014
789.502	0.0015
789.736	0.0029
789.969	0.0036
790.203	0.0031
790.437	0.0032
790.67	0.0029
790.904	0.0029
791.137	0.0012
791.37	0.0015
791.604	0.0003
791.837	0.0008
792.07	0.0002
792.303	0.0015
792.537	0.0012
792.77	0.001
793.003	0.0007
793.236	-0.0005
793.469	-0.0003
793.701	0.0002
793.934	0.0005
794.167	0.0007
794.4	0.0002
794.632	0.0007
794.865	-0.0007
795.097	0.0012
795.33	0.0029
795.562	0.0013
795.795	0.0016
796.027	0.0017
796.259	0.0021
796.491	0.0014
796.724	0.0014
796.956	0.0021
797.188	0.0025
797.42	0.0022
797.652	0.0021
797.883	0.0006
798.115	0.0001
798.347	0.0002
798.579	-0.0016
798.81	-0.0018
799.042	-0.0016
799.274	-0.0024
799.505	-0.0016
799.737	-0.0015
799.968	-0.001
800.199	-0
800.431	-0.0003
800.662	0.0007
800.893	0.0007
801.124	0.0014
801.355	0.002
801.586	0.0021
801.817	0.0023
802.048	0.0017
802.279	0.001
802.51	0.002
802.741	0.0008
802.971	0.0013
803.202	-0
803.433	-0.0006
803.663	-0.0001
803.894	0.0003
804.124	0.0014
804.354	0.001
804.585	-0.0001
804.815	0.0008
805.045	0.0002
805.275	0.0004
805.506	-0.0623
805.736	0.1681
805.966	0.0679
806.196	0.0641
