Data from 03 0.2 mM BQDS 0.4 mM K2Cr2O7 1 M H2SO4 5 min_Absorbance_22-57-42-371.txt Node
Date: Tue Dec 07 22:57:42 EST 2021
User: kwabilab-user
Spectrometer: HDX00518
Trigger mode: 0
Integration Time (sec): 5.000000E-2
Scans to average: 50
Nonlinearity correction enabled: false
Boxcar width: 0
Storing dark spectrum: false
XAxis mode: Wavelengths
Number of Pixels in Spectrum: 2068
>>>>>Begin Spectral Data<<<<<
195.27	0.0831
195.642	0.1076
196.014	0.0441
196.386	0.0483
196.758	0.056
197.129	0.0201
197.501	0.0502
197.872	0.0943
198.244	0.1295
198.615	0.1296
198.986	0.1184
199.357	0.1002
199.728	0.1173
200.099	0.1183
200.47	0.1266
200.841	0.1018
201.212	0.1226
201.582	0.1247
201.953	0.1246
202.323	0.1236
202.694	0.1241
203.064	0.1347
203.434	0.1275
203.804	0.1412
204.174	0.1287
204.544	0.1276
204.914	0.1217
205.284	0.1249
205.653	0.1342
206.023	0.1318
206.393	0.1319
206.762	0.1235
207.131	0.128
207.501	0.1513
207.87	0.1405
208.239	0.1338
208.608	0.1245
208.977	0.1466
209.346	0.1547
209.715	0.1546
210.083	0.1617
210.452	0.1602
210.82	0.1505
211.189	0.1697
211.557	0.1544
211.925	0.1713
212.294	0.1872
212.662	0.1838
213.03	0.1741
213.398	0.1726
213.766	0.1916
214.133	0.2118
214.501	0.2248
214.869	0.2276
215.236	0.2397
215.604	0.2383
215.971	0.2471
216.338	0.269
216.705	0.304
217.072	0.3165
217.439	0.3193
217.806	0.3656
218.173	0.3982
218.54	0.4205
218.907	0.4524
219.273	0.4953
219.64	0.5133
220.006	0.5537
220.373	0.582
220.739	0.6362
221.105	0.6694
221.471	0.6875
221.837	0.7454
222.203	0.7858
222.569	0.8142
222.935	0.8467
223.3	0.8747
223.666	0.9016
224.031	0.9299
224.397	0.9403
224.762	0.9634
225.127	0.9751
225.493	0.9761
225.858	0.9917
226.223	1.0086
226.588	1.0159
226.952	1.0211
227.317	1.0302
227.682	1.0257
228.046	1.0144
228.411	1.0163
228.775	1.0209
229.14	1.0149
229.504	1.0101
229.868	1.0061
230.232	0.9962
230.596	0.9901
230.96	0.9822
231.324	0.9745
231.688	0.9639
232.052	0.9645
232.415	0.9497
232.779	0.9396
233.142	0.9298
233.505	0.922
233.869	0.9165
234.232	0.904
234.595	0.8935
234.958	0.885
235.321	0.8743
235.684	0.8667
236.047	0.859
236.409	0.8466
236.772	0.8428
237.134	0.8297
237.497	0.8197
237.859	0.8123
238.222	0.804
238.584	0.7995
238.946	0.7886
239.308	0.7833
239.67	0.7747
240.032	0.7674
240.393	0.7585
240.755	0.7545
241.117	0.7506
241.478	0.7443
241.84	0.7368
242.201	0.7308
242.562	0.7241
242.924	0.7193
243.285	0.7142
243.646	0.7103
244.007	0.707
244.368	0.7016
244.728	0.699
245.089	0.6923
245.45	0.6899
245.81	0.6872
246.171	0.6828
246.531	0.6765
246.891	0.6749
247.252	0.6712
247.612	0.67
247.972	0.6684
248.332	0.6629
248.692	0.6634
249.051	0.6605
249.411	0.6588
249.771	0.6543
250.13	0.6539
250.49	0.656
250.849	0.6514
251.208	0.6509
251.568	0.6486
251.927	0.6452
252.286	0.6473
252.645	0.6452
253.004	0.6443
253.363	0.6414
253.721	0.6433
254.08	0.6408
254.439	0.6402
254.797	0.6376
255.155	0.6366
255.514	0.6356
255.872	0.635
256.23	0.634
256.588	0.6325
256.946	0.6337
257.304	0.632
257.662	0.6331
258.02	0.6321
258.377	0.6294
258.735	0.6292
259.093	0.6286
259.45	0.6284
259.807	0.626
260.165	0.6251
260.522	0.6241
260.879	0.6219
261.236	0.6213
261.593	0.6205
261.95	0.6182
262.306	0.6184
262.663	0.617
263.02	0.6159
263.376	0.614
263.733	0.6117
264.089	0.6099
264.445	0.607
264.802	0.6063
265.158	0.6039
265.514	0.6033
265.87	0.5988
266.226	0.5973
266.581	0.5959
266.937	0.5936
267.293	0.5915
267.648	0.5894
268.004	0.5875
268.359	0.5842
268.714	0.58
269.07	0.5778
269.425	0.5753
269.78	0.5745
270.135	0.5699
270.49	0.5674
270.844	0.5644
271.199	0.5628
271.554	0.5586
271.908	0.5549
272.263	0.5529
272.617	0.5504
272.972	0.5451
273.326	0.5431
273.68	0.5372
274.034	0.5351
274.388	0.533
274.742	0.5278
275.096	0.5221
275.45	0.5211
275.803	0.5168
276.157	0.5117
276.51	0.5088
276.864	0.5051
277.217	0.5001
277.571	0.4958
277.924	0.4911
278.277	0.4886
278.63	0.4826
278.983	0.4788
279.336	0.4754
279.688	0.4703
280.041	0.4652
280.394	0.4612
280.746	0.4568
281.099	0.4516
281.451	0.448
281.803	0.4423
282.156	0.4393
282.508	0.4347
282.86	0.4302
283.212	0.4265
283.564	0.4218
283.916	0.4162
284.267	0.4129
284.619	0.408
284.971	0.4045
285.322	0.4005
285.673	0.3957
286.025	0.3906
286.376	0.3872
286.727	0.3812
287.078	0.378
287.429	0.375
287.78	0.3691
288.131	0.3655
288.482	0.3614
288.833	0.3574
289.183	0.3523
289.534	0.3487
289.884	0.3441
290.235	0.3404
290.585	0.3361
290.935	0.3319
291.285	0.3278
291.635	0.324
291.985	0.3197
292.335	0.3156
292.685	0.3113
293.035	0.3078
293.384	0.303
293.734	0.2989
294.083	0.2949
294.433	0.2907
294.782	0.2875
295.131	0.2844
295.48	0.2801
295.829	0.2764
296.179	0.2717
296.527	0.2689
296.876	0.2654
297.225	0.2627
297.574	0.2583
297.922	0.2557
298.271	0.252
298.619	0.2475
298.968	0.2452
299.316	0.2413
299.664	0.2389
300.012	0.2353
300.36	0.2316
300.708	0.229
301.056	0.2263
301.404	0.2235
301.752	0.2209
302.099	0.2182
302.447	0.216
302.794	0.2128
303.142	0.2106
303.489	0.2077
303.836	0.2058
304.183	0.2036
304.531	0.2016
304.878	0.1994
305.224	0.1972
305.571	0.1958
305.918	0.1936
306.265	0.1921
306.611	0.19
306.958	0.1885
307.304	0.1876
307.651	0.186
307.997	0.1841
308.343	0.1834
308.689	0.1824
309.035	0.181
309.381	0.1803
309.727	0.1785
310.073	0.1783
310.419	0.1772
310.764	0.1762
311.11	0.1756
311.455	0.1754
311.801	0.174
312.146	0.174
312.491	0.1735
312.837	0.1734
313.182	0.1731
313.527	0.173
313.872	0.1718
314.216	0.1724
314.561	0.1717
314.906	0.1719
315.251	0.1716
315.595	0.1723
315.94	0.1715
316.284	0.172
316.628	0.1717
316.972	0.1719
317.317	0.1725
317.661	0.1734
318.005	0.174
318.348	0.1737
318.692	0.1745
319.036	0.1742
319.38	0.1751
319.723	0.1756
320.067	0.1764
320.41	0.177
320.754	0.1781
321.097	0.1785
321.44	0.1802
321.783	0.1805
322.126	0.1811
322.469	0.1829
322.812	0.1838
323.155	0.1848
323.498	0.1857
323.84	0.1869
324.183	0.1877
324.525	0.1889
324.868	0.1899
325.21	0.1916
325.552	0.1923
325.894	0.1938
326.236	0.195
326.578	0.196
326.92	0.1979
327.262	0.1983
327.604	0.2001
327.946	0.2009
328.287	0.2024
328.629	0.2037
328.97	0.2048
329.312	0.2064
329.653	0.2073
329.994	0.2097
330.335	0.2112
330.676	0.2121
331.017	0.2131
331.358	0.215
331.699	0.2164
332.04	0.2185
332.38	0.2192
332.721	0.2218
333.061	0.2216
333.402	0.2237
333.742	0.2252
334.083	0.2273
334.423	0.2273
334.763	0.2285
335.103	0.2307
335.443	0.2308
335.783	0.2321
336.123	0.2327
336.462	0.2346
336.802	0.2361
337.141	0.2364
337.481	0.2384
337.82	0.2384
338.16	0.24
338.499	0.2414
338.838	0.2424
339.177	0.2443
339.516	0.2443
339.855	0.2464
340.194	0.2472
340.533	0.2479
340.872	0.2486
341.21	0.2506
341.549	0.2507
341.887	0.2514
342.226	0.2525
342.564	0.2525
342.902	0.2528
343.24	0.2529
343.578	0.254
343.916	0.2543
344.254	0.2543
344.592	0.2547
344.93	0.254
345.268	0.2556
345.605	0.2552
345.943	0.2554
346.28	0.2554
346.618	0.2558
346.955	0.2566
347.292	0.2564
347.629	0.2571
347.966	0.257
348.303	0.2568
348.64	0.2569
348.977	0.2566
349.314	0.257
349.65	0.2573
349.987	0.2572
350.324	0.2561
350.66	0.2562
350.996	0.256
351.333	0.2547
351.669	0.2544
352.005	0.2544
352.341	0.2528
352.677	0.2519
353.013	0.2505
353.349	0.2503
353.685	0.2491
354.02	0.2482
354.356	0.2469
354.691	0.2457
355.027	0.2449
355.362	0.2434
355.697	0.2428
356.033	0.2415
356.368	0.2404
356.703	0.2396
357.038	0.2392
357.373	0.2377
357.707	0.2369
358.042	0.2368
358.377	0.2352
358.711	0.2336
359.046	0.2328
359.38	0.2313
359.715	0.2303
360.049	0.2295
360.383	0.2284
360.717	0.227
361.051	0.2251
361.385	0.2242
361.719	0.2218
362.053	0.221
362.387	0.2181
362.72	0.2171
363.054	0.2148
363.387	0.2134
363.721	0.2115
364.054	0.2094
364.387	0.2075
364.721	0.2056
365.054	0.204
365.387	0.2022
365.72	0.2002
366.053	0.199
366.385	0.1969
366.718	0.1965
367.051	0.1938
367.383	0.1925
367.716	0.1909
368.048	0.1899
368.381	0.1882
368.713	0.187
369.045	0.186
369.377	0.184
369.709	0.1832
370.041	0.181
370.373	0.1802
370.705	0.1784
371.037	0.1769
371.368	0.1743
371.7	0.1739
372.031	0.1708
372.363	0.169
372.694	0.168
373.025	0.1662
373.356	0.1631
373.688	0.161
374.019	0.1589
374.35	0.1576
374.68	0.1548
375.011	0.1529
375.342	0.1507
375.673	0.149
376.003	0.1469
376.334	0.145
376.664	0.1432
376.995	0.1419
377.325	0.14
377.655	0.1389
377.985	0.1371
378.315	0.1363
378.645	0.1344
378.975	0.1332
379.305	0.1314
379.635	0.131
379.964	0.129
380.294	0.1275
380.623	0.1264
380.953	0.1246
381.282	0.1234
381.611	0.1214
381.941	0.1211
382.27	0.1187
382.599	0.1172
382.928	0.1161
383.257	0.1151
383.585	0.1133
383.914	0.1118
384.243	0.1099
384.571	0.1079
384.9	0.1064
385.228	0.1048
385.557	0.1035
385.885	0.1015
386.213	0.0997
386.541	0.0982
386.869	0.0961
387.197	0.0945
387.525	0.093
387.853	0.0916
388.181	0.0903
388.508	0.0897
388.836	0.0878
389.164	0.0867
389.491	0.0859
389.818	0.0844
390.146	0.0833
390.473	0.0813
390.8	0.0807
391.127	0.0788
391.454	0.0787
391.781	0.0772
392.108	0.0765
392.435	0.0751
392.761	0.0736
393.088	0.0729
393.415	0.0719
393.741	0.0719
394.067	0.0707
394.394	0.0705
394.72	0.0688
395.046	0.068
395.372	0.0669
395.698	0.0652
396.024	0.0655
396.35	0.0644
396.676	0.0637
397.001	0.0633
397.327	0.0611
397.653	0.0602
397.978	0.0601
398.303	0.0586
398.629	0.0579
398.954	0.0577
399.279	0.0568
399.604	0.0562
399.929	0.0553
400.254	0.0545
400.579	0.0537
400.904	0.0535
401.229	0.0521
401.553	0.0515
401.878	0.051
402.202	0.0509
402.527	0.0499
402.851	0.0499
403.175	0.049
403.5	0.0487
403.824	0.0488
404.148	0.0483
404.472	0.0481
404.796	0.0467
405.119	0.0472
405.443	0.0468
405.767	0.0459
406.09	0.0458
406.414	0.046
406.737	0.0457
407.061	0.0457
407.384	0.0448
407.707	0.0449
408.03	0.0456
408.353	0.0447
408.676	0.044
408.999	0.044
409.322	0.0444
409.645	0.0439
409.968	0.0435
410.29	0.0435
410.613	0.0435
410.935	0.0433
411.258	0.0439
411.58	0.0437
411.902	0.0429
412.224	0.0435
412.546	0.0435
412.868	0.0432
413.19	0.0431
413.512	0.0435
413.834	0.0428
414.156	0.0435
414.477	0.0429
414.799	0.0425
415.121	0.0431
415.442	0.0428
415.763	0.0434
416.085	0.0432
416.406	0.0436
416.727	0.0432
417.048	0.0425
417.369	0.0422
417.69	0.0428
418.011	0.0428
418.331	0.0429
418.652	0.0431
418.973	0.0437
419.293	0.0429
419.614	0.0431
419.934	0.0427
420.254	0.0431
420.574	0.043
420.895	0.0429
421.215	0.0426
421.535	0.0426
421.855	0.0424
422.174	0.0425
422.494	0.043
422.814	0.0439
423.134	0.0431
423.453	0.0434
423.773	0.0428
424.092	0.0428
424.411	0.0427
424.731	0.0438
425.05	0.0436
425.369	0.0437
425.688	0.0431
426.007	0.0434
426.326	0.0443
426.644	0.0451
426.963	0.0444
427.282	0.0443
427.6	0.0443
427.919	0.0441
428.237	0.0445
428.556	0.0447
428.874	0.0439
429.192	0.0441
429.51	0.0437
429.828	0.0445
430.146	0.0448
430.464	0.0443
430.782	0.0446
431.1	0.0441
431.418	0.0445
431.735	0.0448
432.053	0.0446
432.37	0.0444
432.688	0.0447
433.005	0.0448
433.322	0.0445
433.639	0.0445
433.957	0.0446
434.274	0.0451
434.591	0.0446
434.907	0.0453
435.224	0.0452
435.541	0.0451
435.858	0.0457
436.174	0.0454
436.491	0.0456
436.807	0.0458
437.124	0.0447
437.44	0.0443
437.756	0.044
438.072	0.0443
438.388	0.0453
438.704	0.0448
439.02	0.0448
439.336	0.0445
439.652	0.0446
439.968	0.0448
440.283	0.045
440.599	0.0451
440.914	0.0448
441.23	0.0445
441.545	0.0452
441.86	0.0453
442.175	0.0447
442.491	0.0447
442.806	0.0441
443.121	0.0446
443.435	0.0444
443.75	0.0442
444.065	0.0444
444.38	0.0444
444.694	0.044
445.009	0.0446
445.323	0.0443
445.638	0.0442
445.952	0.0446
446.266	0.0441
446.58	0.0447
446.894	0.0443
447.208	0.0449
447.522	0.0444
447.836	0.0426
448.15	0.043
448.464	0.0431
448.777	0.0438
449.091	0.0429
449.404	0.0433
449.718	0.0441
450.031	0.0433
450.345	0.0429
450.658	0.0434
450.971	0.0429
451.284	0.0432
451.597	0.0428
451.91	0.0427
452.223	0.0421
452.535	0.0429
452.848	0.0426
453.161	0.0425
453.473	0.0424
453.786	0.0428
454.098	0.0416
454.411	0.0418
454.723	0.0408
455.035	0.0412
455.347	0.0415
455.659	0.0416
455.971	0.042
456.283	0.0415
456.595	0.0413
456.907	0.041
457.218	0.0414
457.53	0.0409
457.841	0.0409
458.153	0.0407
458.464	0.0402
458.776	0.0395
459.087	0.039
459.398	0.0398
459.709	0.04
460.02	0.0394
460.331	0.039
460.642	0.0388
460.953	0.0389
461.263	0.0386
461.574	0.0386
461.885	0.0387
462.195	0.0383
462.506	0.0381
462.816	0.0378
463.126	0.0371
463.437	0.0371
463.747	0.0366
464.057	0.0369
464.367	0.0372
464.677	0.0363
464.987	0.0367
465.296	0.0362
465.606	0.0359
465.916	0.0357
466.225	0.0354
466.535	0.0355
466.844	0.0349
467.154	0.0345
467.463	0.0345
467.772	0.0352
468.081	0.0339
468.39	0.0342
468.699	0.0336
469.008	0.0341
469.317	0.0343
469.626	0.0338
469.935	0.0332
470.243	0.0335
470.552	0.034
470.86	0.0331
471.169	0.0326
471.477	0.0324
471.785	0.0324
472.093	0.0331
472.402	0.0316
472.71	0.0323
473.018	0.0314
473.326	0.0307
473.633	0.0316
473.941	0.0315
474.249	0.0298
474.556	0.0308
474.864	0.03
475.171	0.0293
475.479	0.0303
475.786	0.0299
476.094	0.0294
476.401	0.0293
476.708	0.0294
477.015	0.0291
477.322	0.0292
477.629	0.0291
477.936	0.0282
478.242	0.0287
478.549	0.0276
478.856	0.0278
479.162	0.0272
479.469	0.0279
479.775	0.0277
480.081	0.0267
480.388	0.0272
480.694	0.026
481	0.0257
481.306	0.0264
481.612	0.026
481.918	0.0252
482.224	0.0257
482.53	0.0253
482.835	0.0248
483.141	0.0236
483.446	0.0248
483.752	0.0246
484.057	0.0235
484.363	0.023
484.668	0.0226
484.973	0.0226
485.278	0.0224
485.583	0.022
485.888	0.022
486.193	0.0217
486.498	0.0218
486.803	0.0221
487.107	0.0223
487.412	0.0211
487.717	0.0209
488.021	0.0215
488.325	0.0209
488.63	0.0204
488.934	0.0207
489.238	0.0211
489.542	0.0203
489.846	0.0189
490.15	0.021
490.454	0.0193
490.758	0.0197
491.062	0.0198
491.366	0.019
491.669	0.0192
491.973	0.0187
492.276	0.0188
492.58	0.0175
492.883	0.0178
493.186	0.0186
493.489	0.0182
493.792	0.0185
494.096	0.0185
494.399	0.0181
494.701	0.0178
495.004	0.0175
495.307	0.0171
495.61	0.0169
495.912	0.0158
496.215	0.0157
496.517	0.0164
496.82	0.0154
497.122	0.0158
497.424	0.0152
497.727	0.0154
498.029	0.0156
498.331	0.0162
498.633	0.0152
498.935	0.0147
499.237	0.0149
499.538	0.0144
499.84	0.0147
500.142	0.0144
500.443	0.0141
500.745	0.0142
501.046	0.0151
501.348	0.0133
501.649	0.0135
501.95	0.0133
502.251	0.0134
502.552	0.0121
502.853	0.0123
503.154	0.0124
503.455	0.0121
503.756	0.0116
504.057	0.0126
504.357	0.0119
504.658	0.0122
504.958	0.0119
505.259	0.0126
505.559	0.0128
505.859	0.0115
506.16	0.0113
506.46	0.0114
506.76	0.0119
507.06	0.0114
507.36	0.012
507.66	0.0114
507.96	0.0117
508.259	0.0103
508.559	0.0095
508.859	0.0111
509.158	0.0093
509.457	0.0107
509.757	0.011
510.056	0.0101
510.355	0.0091
510.655	0.0089
510.954	0.0093
511.253	0.0094
511.552	0.0096
511.851	0.0088
512.149	0.009
512.448	0.0085
512.747	0.0094
513.045	0.0083
513.344	0.0099
513.642	0.0092
513.941	0.0092
514.239	0.0086
514.537	0.0083
514.836	0.0078
515.134	0.0084
515.432	0.0089
515.73	0.0088
516.028	0.0071
516.326	0.0082
516.623	0.0074
516.921	0.0076
517.219	0.0081
517.516	0.008
517.814	0.0075
518.111	0.0082
518.409	0.0093
518.706	0.0079
519.003	0.0075
519.3	0.0073
519.597	0.0072
519.894	0.0071
520.191	0.0083
520.488	0.0075
520.785	0.0059
521.082	0.0067
521.378	0.0069
521.675	0.0044
521.971	0.0059
522.268	0.0061
522.564	0.0071
522.861	0.0062
523.157	0.0051
523.453	0.006
523.749	0.0064
524.045	0.0062
524.341	0.0064
524.637	0.0049
524.933	0.0058
525.229	0.0051
525.524	0.005
525.82	0.0063
526.115	0.0057
526.411	0.005
526.706	0.0051
527.002	0.0059
527.297	0.0042
527.592	0.0072
527.887	0.0062
528.182	0.0058
528.477	0.0072
528.772	0.0045
529.067	0.0063
529.362	0.0053
529.657	0.0059
529.951	0.0054
530.246	0.0036
530.54	0.0031
530.835	0.0035
531.129	0.0037
531.423	0.0042
531.718	0.0035
532.012	0.0049
532.306	0.0035
532.6	0.0038
532.894	0.0043
533.188	0.0049
533.482	0.0034
533.775	0.0041
534.069	0.0041
534.363	0.0032
534.656	0.0031
534.95	0.0027
535.243	0.0033
535.536	0.004
535.83	0.0044
536.123	0.0023
536.416	0.0034
536.709	0.0036
537.002	0.004
537.295	0.0038
537.588	0.0042
537.881	0.003
538.173	0.0028
538.466	0.003
538.759	0.0035
539.051	0.0019
539.344	0.0036
539.636	0.0027
539.928	0.0033
540.22	0.0039
540.513	0.0044
540.805	0.0035
541.097	0.0037
541.389	0.0033
541.681	0.0028
541.972	0.0041
542.264	0.002
542.556	0.004
542.847	0.0033
543.139	0.0045
543.431	0.0048
543.722	0.0035
544.013	0.0056
544.305	0.0052
544.596	0.0046
544.887	0.0033
545.178	0.0032
545.469	0.0036
545.76	0.0039
546.051	0.0047
546.342	0.0045
546.632	0.0028
546.923	0.0034
547.214	0.0032
547.504	0.0033
547.795	0.003
548.085	0.0039
548.375	0.0025
548.666	0.0033
548.956	0.003
549.246	0.0031
549.536	0.0026
549.826	0.0039
550.116	0.0036
550.406	0.0024
550.695	0.0043
550.985	0.0036
551.275	0.0042
551.564	0.0025
551.854	0.0044
552.143	0.0039
552.433	0.0039
552.722	0.0037
553.011	0.0037
553.3	0.0044
553.589	0.0035
553.879	0.0032
554.167	0.004
554.456	0.0032
554.745	0.0029
555.034	0.0026
555.323	0.0031
555.611	0.0016
555.9	0.0037
556.188	0.0028
556.477	0.0033
556.765	0.0026
557.053	0.0025
557.342	0.0028
557.63	0.0033
557.918	0.0035
558.206	0.0028
558.494	0.0049
558.782	0.0028
559.069	0.0022
559.357	0.003
559.645	0.0024
559.932	0.003
560.22	0.0042
560.507	0.0037
560.795	0.004
561.082	0.0029
561.37	0.0033
561.657	0.0035
561.944	0.0039
562.231	0.0022
562.518	0.0015
562.805	0.0031
563.092	0.003
563.379	0.0032
563.665	0.0037
563.952	0.0032
564.239	0.0032
564.525	0.0044
564.811	0.0045
565.098	0.0037
565.384	0.0046
565.67	0.0036
565.957	0.0032
566.243	0.0034
566.529	0.0043
566.815	0.0048
567.101	0.0031
567.387	0.0022
567.672	0.0036
567.958	0.0027
568.244	0.0042
568.529	0.0029
568.815	0.0025
569.1	0.0038
569.386	0.0028
569.671	0.0027
569.956	0.0029
570.242	0.003
570.527	0.004
570.812	0.0036
571.097	0.0034
571.382	0.0042
571.666	0.0034
571.951	0.0031
572.236	0.004
572.521	0.0029
572.805	0.0038
573.09	0.0027
573.374	0.0033
573.659	0.003
573.943	0.0029
574.227	0.0023
574.511	0.0034
574.795	0.0035
575.079	0.0032
575.363	0.003
575.647	0.0038
575.931	0.003
576.215	0.0035
576.499	0.0027
576.782	0.003
577.066	0.0021
577.349	0.0031
577.633	0.0039
577.916	0.0035
578.2	0.0043
578.483	0.0034
578.766	0.0033
579.049	0.0036
579.332	0.0033
579.615	0.0034
579.898	0.0032
580.181	0.0029
580.464	0.0033
580.746	0.0021
581.029	0.0031
581.312	0.0025
581.594	0.003
581.877	0.0038
582.159	0.0037
582.441	0.0035
582.724	0.0026
583.006	0.0028
583.288	0.002
583.57	0.0021
583.852	0.0018
584.134	0.0025
584.416	0.0031
584.697	0.0023
584.979	0.0029
585.261	0.0029
585.542	0.0032
585.824	0.0027
586.105	0.0033
586.387	0.0023
586.668	0.0027
586.949	0.0033
587.231	0.0025
587.512	0.0033
587.793	0.0024
588.074	0.0026
588.355	0.0041
588.636	0.0038
588.916	0.0033
589.197	0.0031
589.478	0.0036
589.758	0.0024
590.039	0.0034
590.319	0.0035
590.6	0.003
590.88	0.0028
591.16	0.0031
591.441	0.003
591.721	0.0034
592.001	0.003
592.281	0.0026
592.561	0.0027
592.841	0.004
593.12	0.003
593.4	0.0025
593.68	0.0034
593.959	0.0029
594.239	0.0037
594.518	0.0032
594.798	0.0031
595.077	0.0034
595.356	0.0025
595.636	0.003
595.915	0.0038
596.194	0.0033
596.473	0.0035
596.752	0.0027
597.031	0.0023
597.31	0.0017
597.588	0.0021
597.867	0.0022
598.146	0.0026
598.424	0.0025
598.703	0.0017
598.981	0.0026
599.259	0.0031
599.538	0.0031
599.816	0.0033
600.094	0.0027
600.372	0.0032
600.65	0.0038
600.928	0.0029
601.206	0.0041
601.484	0.0029
601.762	0.0035
602.04	0.0026
602.317	0.0029
602.595	0.0024
602.872	0.0034
603.15	0.0017
603.427	0.0031
603.704	0.002
603.982	0.0024
604.259	0.0013
604.536	0.0021
604.813	0.0027
605.09	0.002
605.367	0.0027
605.644	0.0022
605.921	0.0025
606.197	0.0024
606.474	0.0026
606.751	0.002
607.027	0.0028
607.304	0.0016
607.58	0.0025
607.856	0.0019
608.133	0.0029
608.409	0.0028
608.685	0.0025
608.961	0.0026
609.237	0.0026
609.513	0.0019
609.789	0.0022
610.065	0.0017
610.341	0.0023
610.616	0.0024
610.892	0.0032
611.167	0.0036
611.443	0.003
611.718	0.0029
611.994	0.0029
612.269	0.002
612.544	0.0024
612.819	0.0015
613.095	0.0028
613.37	0.0025
613.645	0.0025
613.919	0.002
614.194	0.003
614.469	0.0013
614.744	0.0007
615.019	0.0018
615.293	0.0003
615.568	0.001
615.842	0.0007
616.116	0.0008
616.391	0.0003
616.665	0.002
616.939	0.0017
617.213	0.0015
617.488	0.0009
617.762	0.0013
618.035	0.0015
618.309	0.0009
618.583	0.0018
618.857	0.0023
619.131	0.0021
619.404	0.001
619.678	0.0013
619.951	0.001
620.225	0.0012
620.498	0.0011
620.771	0.0009
621.045	0.0028
621.318	0.0013
621.591	0.0012
621.864	0.0006
622.137	0.0004
622.41	0.0013
622.683	0.0013
622.956	0.0015
623.228	0.0021
623.501	0.0022
623.774	0.0027
624.046	0.0019
624.319	0.0017
624.591	0.0014
624.863	0.0019
625.136	0.0009
625.408	0.0021
625.68	0.001
625.952	0.0023
626.224	0.0017
626.496	0.0019
626.768	0.0005
627.04	0.0013
627.311	0.0015
627.583	0.0023
627.855	0.0018
628.126	0.0013
628.398	0.0023
628.669	0.0017
628.941	0.0004
629.212	0.0009
629.483	0.0011
629.755	0.0007
630.026	0.0001
630.297	0.0002
630.568	-0.0001
630.839	0.0004
631.11	-0.0008
631.38	-0.0003
631.651	-0.0004
631.922	-0.0006
632.192	-0.001
632.463	-0.0007
632.733	-0.0006
633.004	0.0004
633.274	-0.0009
633.545	0.0013
633.815	0.002
634.085	0.0017
634.355	0.0007
634.625	0.0027
634.895	0.0008
635.165	0.0003
635.435	0.0012
635.705	0.001
635.974	-0.0002
636.244	0.0007
636.514	0.0011
636.783	0.0012
637.053	0.0012
637.322	0.0006
637.591	0.0009
637.861	0.0014
638.13	0.0016
638.399	0.0009
638.668	0.0014
638.937	0.0004
639.206	-0
639.475	0.0011
639.744	0.0012
640.013	0.0017
640.281	0.0024
640.55	0.0027
640.819	0.0024
641.087	0.0022
641.356	0.001
641.624	0.0012
641.892	0.001
642.161	0.0012
642.429	0.0021
642.697	0.0013
642.965	0.0017
643.233	0.0021
643.501	0.0008
643.769	0.0005
644.037	0.0006
644.305	-0.0006
644.572	-0.001
644.84	-0.0007
645.108	-0.0009
645.375	-0.0015
645.643	-0.0005
645.91	0.0007
646.177	0.002
646.445	0.0035
646.712	0.0028
646.979	0.0034
647.246	0.0025
647.513	0.0033
647.78	0.0032
648.047	0.0026
648.314	0.0027
648.58	0.0023
648.847	0.0011
649.114	-0.0003
649.38	-0.0001
649.647	-0.0005
649.913	0.0004
650.18	0.0001
650.446	0.0016
650.712	0.0008
650.978	0.0017
651.245	0.0019
651.511	0.002
651.777	0.001
652.043	0.0025
652.309	0.0024
652.574	0.0023
652.84	0.0017
653.106	0.0006
653.371	-0
653.637	0.0014
653.903	0.0014
654.168	0.0019
654.433	0.002
654.699	0.0024
654.964	0.0021
655.229	0.002
655.494	0.0019
655.759	0.0003
656.024	0.001
656.289	-0
656.554	-0.0007
656.819	-0.0003
657.084	0.0007
657.349	0.0024
657.613	0.0023
657.878	0.0017
658.142	0.0022
658.407	0.0021
658.671	0.001
658.936	0.0015
659.2	0.0008
659.464	0.0005
659.728	0.0002
659.992	0.0006
660.256	0.0001
660.52	-0.0006
660.784	-0.0001
661.048	-0.0005
661.312	-0.0013
661.575	-0.0005
661.839	-0.0035
662.103	-0.003
662.366	-0.0022
662.63	-0.0014
662.893	-0.0017
663.156	-0.0014
663.42	-0.0014
663.683	-0.0009
663.946	0.0002
664.209	0.0013
664.472	0.0017
664.735	0.0008
664.998	0.0008
665.261	-0
665.524	0.0006
665.786	0.0003
666.049	0.0003
666.312	0.0007
666.574	0.0008
666.837	-0.0004
667.099	-0.0011
667.361	-0.0011
667.624	-0.0009
667.886	-0.0005
668.148	-0.0002
668.41	0.0017
668.672	-0.0006
668.934	0.0006
669.196	-0.0003
669.458	0.0011
669.72	0.0013
669.982	0.0011
670.243	0.0014
670.505	0.0015
670.766	0.0015
671.028	0.0006
671.289	0.0011
671.551	0.0002
671.812	-0.001
672.073	0.0009
672.334	-0.0004
672.596	0.0007
672.857	-0.0006
673.118	-0.001
673.379	-0.0007
673.639	-0.0011
673.9	-0.0013
674.161	-0.0033
674.422	-0.0032
674.682	-0.0031
674.943	-0.003
675.203	-0.0015
675.464	-0.001
675.724	-0.0003
675.985	0.0004
676.245	0.0003
676.505	0.0015
676.765	0.0014
677.025	0.0013
677.285	0.0013
677.545	0.0021
677.805	0.0023
678.065	0.0028
678.325	0.0021
678.585	0.0017
678.844	0.0018
679.104	0.001
679.363	0.0023
679.623	0.0028
679.882	0.003
680.142	0.0033
680.401	0.0031
680.66	0.0037
680.919	0.0031
681.178	0.004
681.437	0.0038
681.696	0.0031
681.955	0.0036
682.214	0.0043
682.473	0.004
682.732	0.0032
682.99	0.0017
683.249	0.0022
683.508	0.0027
683.766	0.0025
684.024	0.0033
684.283	0.0031
684.541	0.0027
684.799	0.0031
685.058	0.0017
685.316	0.0017
685.574	0.0026
685.832	0.0028
686.09	0.0032
686.348	0.0036
686.606	0.0031
686.863	0.0037
687.121	0.0036
687.379	0.003
687.636	0.0031
687.894	0.0038
688.151	0.0043
688.409	0.0034
688.666	0.003
688.923	0.0031
689.181	0.0026
689.438	0.0016
689.695	0.0014
689.952	-0.0004
690.209	0.0009
690.466	0.0012
690.723	0.0025
690.979	0.0012
691.236	0.0024
691.493	0.0017
691.75	0.0029
692.006	0.0027
692.263	0.0023
692.519	0.0019
692.775	0.0016
693.032	0.0006
693.288	0.0013
693.544	0.0016
693.8	0.0017
694.056	0.0012
694.313	0.0019
694.568	0.0012
694.824	0.0016
695.08	0.0025
695.336	0.0025
695.592	0.002
695.847	0.002
696.103	0.0013
696.359	0.0016
696.614	0.0009
696.869	0.0007
697.125	0.0002
697.38	-0
697.635	-0.0006
697.891	-0.0001
698.146	-0.0002
698.401	0.0008
698.656	-0.0002
698.911	0.001
699.166	-0.0002
699.42	-0
699.675	0
699.93	-0.0005
700.185	0.0004
700.439	0.0012
700.694	0.0004
700.948	0.0017
701.203	0.002
701.457	0.0005
701.711	0.0001
701.965	-0.0013
702.22	-0.0012
702.474	-0.0009
702.728	-0.001
702.982	-0.0003
703.236	-0.0009
703.49	-0.0007
703.743	0
703.997	-0.0002
704.251	0.0003
704.504	0.0009
704.758	0
705.012	-0.0004
705.265	-0.0002
705.518	-0.0002
705.772	-0.0009
706.025	-0.0009
706.278	-0.0009
706.531	-0.0004
706.785	-0.0015
707.038	-0.0002
707.291	-0.0013
707.543	0
707.796	-0.0007
708.049	-0.0013
708.302	-0.0013
708.555	-0.0011
708.807	-0.0006
709.06	-0.0005
709.312	-0.0023
709.565	-0.0022
709.817	-0.003
710.069	-0.0017
710.322	-0.0015
710.574	-0.0014
710.826	-0.0009
711.078	-0.0009
711.33	-0.0008
711.582	-0.0009
711.834	-0.0005
712.086	0.0009
712.338	0.0012
712.59	0.0012
712.841	0.0017
713.093	0.0014
713.344	0.0008
713.596	0.0022
713.847	0.0021
714.099	0.0014
714.35	0.0017
714.601	0.002
714.853	0.0033
715.104	0.0029
715.355	0.0019
715.606	0.0012
715.857	0.002
716.108	0.0023
716.359	0.0018
716.609	0.0012
716.86	0.0003
717.111	0.0002
717.361	-0.0015
717.612	-0.0003
717.863	-0.0005
718.113	-0.0009
718.363	-0.0006
718.614	-0.0006
718.864	-0.0004
719.114	0.0002
719.364	-0.0003
719.614	-0.0009
719.865	-0.0021
720.114	-0.0012
720.364	-0.0004
720.614	-0
720.864	0.001
721.114	0.001
721.364	0.0014
721.613	0.0026
721.863	0.0025
722.112	0.0024
722.362	0.003
722.611	0.002
722.86	0.0012
723.11	0.0008
723.359	0.0008
723.608	0.0015
723.857	0.0025
724.106	0.0037
724.355	0.0037
724.604	0.0049
724.853	0.0034
725.102	0.0024
725.351	0.0015
725.599	0.0014
725.848	0.0019
726.097	0.0014
726.345	0.0018
726.594	0.0001
726.842	0.0006
727.09	0.0006
727.339	0.0006
727.587	0.0001
727.835	-0.0008
728.083	-0.0008
728.331	-0.0021
728.579	-0.0017
728.827	-0.0014
729.075	-0.0009
729.323	0.0009
729.571	0.0006
729.818	0.0011
730.066	0.0013
730.314	0.0013
730.561	-0.0002
730.809	-0.0004
731.056	-0.0006
731.303	-0.0006
731.551	0.0003
731.798	-0.0005
732.045	-0.0003
732.292	-0.0007
732.539	-0.0002
732.786	0.0003
733.033	0.0014
733.28	0.0006
733.527	0.0026
733.774	0.0016
734.021	0.0026
734.267	0.003
734.514	0.0026
734.76	0.0024
735.007	0.0038
735.253	0.0048
735.5	0.0045
735.746	0.0045
735.992	0.0043
736.238	0.0035
736.485	0.0046
736.731	0.0042
736.977	0.004
737.223	0.0033
737.469	0.0047
737.715	0.004
737.96	0.0055
738.206	0.0053
738.452	0.0073
738.697	0.0069
738.943	0.006
739.189	0.0044
739.434	0.0024
739.679	0.0023
739.925	0.0019
740.17	0.0005
740.415	0.0012
740.66	0.0022
740.906	0.0021
741.151	0.0025
741.396	0.0027
741.641	0.0046
741.886	0.0045
742.13	0.0049
742.375	0.005
742.62	0.0058
742.865	0.0045
743.109	0.0041
743.354	0.0043
743.598	0.0037
743.843	0.0036
744.087	0.0032
744.331	0.004
744.576	0.0033
744.82	0.0033
745.064	0.003
745.308	0.002
745.552	0.0029
745.796	0.0029
746.04	0.0022
746.284	0.0017
746.528	-0.0006
746.771	0.0005
747.015	0.0002
747.259	0.0005
747.502	0.0001
747.746	0.0018
747.989	0.0018
748.233	0.0021
748.476	0.0021
748.719	0.0035
748.963	0.0045
749.206	0.0038
749.449	0.0045
749.692	0.0032
749.935	0.0045
750.178	0.0034
750.421	0.0033
750.664	0.0034
750.906	0.0032
751.149	0.0019
751.392	0.0011
751.635	0.0004
751.877	-0.0011
752.12	-0.0014
752.362	-0.0001
752.604	-0.0007
752.847	-0
753.089	0.0008
753.331	0.0004
753.573	0.0013
753.816	0.0028
754.058	0.0026
754.3	0.0027
754.542	0.0034
754.783	0.0022
755.025	0.0021
755.267	0.0007
755.509	0.0006
755.75	0.0005
755.992	0.0017
756.234	0.0005
756.475	0
756.716	0.0001
756.958	-0
757.199	-0.0001
757.44	0.0012
757.682	0.0006
757.923	0.0003
758.164	-0.0009
758.405	-0.0002
758.646	-0.0005
758.887	-0.0005
759.128	-0.0006
759.369	-0.0006
759.609	-0.001
759.85	-0.0007
760.091	-0.0001
760.331	-0.0006
760.572	-0.0007
760.812	-0.0012
761.053	-0.0017
761.293	-0.0006
761.533	-0.0004
761.774	-0.0001
762.014	-0.0009
762.254	-0.0001
762.494	-0.0004
762.734	-0.0004
762.974	-0.0009
763.214	-0.0019
763.454	-0.0018
763.694	-0.0014
763.933	-0.0018
764.173	-0.0007
764.413	-0.0009
764.652	-0.0007
764.892	0.0006
765.131	0.0007
765.371	0.0009
765.61	0.0008
765.849	0.0002
766.089	0.0012
766.328	0.0017
766.567	0.0019
766.806	0.0017
767.045	0.0021
767.284	0.0023
767.523	0.0027
767.762	0.0026
768.001	0.0028
768.239	0.0022
768.478	0.0017
768.717	0.002
768.955	0.002
769.194	0.0009
769.432	0.0015
769.671	0.0023
769.909	0.0009
770.148	0.0015
770.386	0.0013
770.624	0.0013
770.862	0.0021
771.1	0.001
771.338	0.0012
771.576	0.0021
771.814	0.0018
772.052	0.0018
772.29	0.0024
772.528	0.0025
772.765	0.0022
773.003	0.003
773.24	0.0027
773.478	0.0017
773.716	0.0025
773.953	0.0029
774.19	0.0033
774.428	0.0031
774.665	0.0034
774.902	0.0032
775.139	0.0021
775.376	0.0023
775.613	0.0011
775.85	0.0024
776.087	0.002
776.324	0.0023
776.561	0.0024
776.798	0.0034
777.034	0.0055
777.271	0.0065
777.508	0.0063
777.744	0.0057
777.981	0.0054
778.217	0.005
778.454	0.004
778.69	0.004
778.926	0.004
779.162	0.0033
779.399	0.0028
779.635	0.0033
779.871	0.0018
780.107	0.0029
780.343	0.003
780.579	0.0035
780.814	0.0035
781.05	0.0032
781.286	0.0036
781.522	0.0035
781.757	0.0053
781.993	0.0048
782.228	0.0055
782.464	0.0043
782.699	0.0037
782.934	0.0035
783.17	0.0034
783.405	0.0027
783.64	0.0022
783.875	0.0031
784.11	0.0028
784.345	0.0039
784.58	0.0024
784.815	0.0025
785.05	0.0027
785.285	0.0013
785.52	0.0018
785.754	0.0015
785.989	0.001
786.223	0.0001
786.458	0.0005
786.692	0.0012
786.927	-0.0001
787.161	0.0003
787.396	-0.0009
787.63	-0.0005
787.864	-0.0012
788.098	-0.0005
788.332	-0.0002
788.566	-0.0006
788.8	-0.0008
789.034	-0.0002
789.268	0.0002
789.502	0.0009
789.736	0.0015
789.969	0.0023
790.203	0.0016
790.437	0.0018
790.67	0.001
790.904	0.0012
791.137	0.0001
791.37	-0.0008
791.604	-0.0011
791.837	-0.0009
792.07	-0.0012
792.303	0.0005
792.537	-0.0004
792.77	-0.0005
793.003	-0.0012
793.236	-0.002
793.469	-0.0021
793.701	-0.0012
793.934	-0.0013
794.167	-0.0011
794.4	0.0001
794.632	0.0001
794.865	-0.001
795.097	-0.0011
795.33	0.0004
795.562	-0.0003
795.795	-0.0001
796.027	-0.0001
796.259	0.0004
796.491	-0.0007
796.724	-0.0016
796.956	0.0001
797.188	0.0009
797.42	-0.0001
797.652	0.0004
797.883	0
798.115	-0.0005
798.347	-0.0008
798.579	-0.0012
798.81	-0.0023
799.042	-0.0026
799.274	-0.0033
799.505	-0.0027
799.737	-0.0028
799.968	-0.0023
800.199	-0.0016
800.431	-0.0023
800.662	-0.0006
800.893	-0.0008
801.124	-0.0007
801.355	-0
801.586	0.0002
801.817	-0.0006
802.048	-0.0005
802.279	-0.0003
802.51	0.0002
802.741	-0.0018
802.971	-0.0017
803.202	-0.0022
803.433	-0.0022
803.663	-0.0023
803.894	-0.0014
804.124	-0.0006
804.354	-0.001
804.585	-0.0017
804.815	-0.0007
805.045	-0.0016
805.275	-0.0026
805.506	-0.0513
805.736	0.0519
805.966	-0.0071
806.196	0.1061
