Data from 03 0.2 mM BQDS 0.4 mM K2Cr2O7 1 M H2SO4 5 min_Absorbance_12-12-42-622.txt Node
Date: Wed Dec 08 12:12:42 EST 2021
User: kwabilab-user
Spectrometer: HDX00518
Trigger mode: 0
Integration Time (sec): 5.000000E-2
Scans to average: 50
Nonlinearity correction enabled: false
Boxcar width: 0
Storing dark spectrum: false
XAxis mode: Wavelengths
Number of Pixels in Spectrum: 2068
>>>>>Begin Spectral Data<<<<<
195.27	0.1382
195.642	0.0821
196.014	0.1011
196.386	0.0696
196.758	0.0307
197.129	0.0355
197.501	0.0678
197.872	0.0983
198.244	0.1276
198.615	0.1227
198.986	0.1333
199.357	0.1201
199.728	0.1299
200.099	0.1132
200.47	0.1144
200.841	0.1295
201.212	0.1225
201.582	0.12
201.953	0.1276
202.323	0.1167
202.694	0.1218
203.064	0.1428
203.434	0.1224
203.804	0.1314
204.174	0.1243
204.544	0.1122
204.914	0.117
205.284	0.1317
205.653	0.1401
206.023	0.1115
206.393	0.1336
206.762	0.131
207.131	0.1325
207.501	0.1417
207.87	0.1399
208.239	0.1588
208.608	0.1283
208.977	0.1479
209.346	0.1605
209.715	0.125
210.083	0.153
210.452	0.1448
210.82	0.1506
211.189	0.1661
211.557	0.1608
211.925	0.1672
212.294	0.1792
212.662	0.172
213.03	0.1905
213.398	0.1863
213.766	0.2049
214.133	0.2026
214.501	0.213
214.869	0.1962
215.236	0.2505
215.604	0.2273
215.971	0.2625
216.338	0.2757
216.705	0.2966
217.072	0.3306
217.439	0.3286
217.806	0.3832
218.173	0.392
218.54	0.4037
218.907	0.4471
219.273	0.4861
219.64	0.5211
220.006	0.5705
220.373	0.5899
220.739	0.6328
221.105	0.6682
221.471	0.7041
221.837	0.7346
222.203	0.7798
222.569	0.8112
222.935	0.8331
223.3	0.8444
223.666	0.9003
224.031	0.9148
224.397	0.934
224.762	0.9461
225.127	0.9692
225.493	0.9784
225.858	0.9964
226.223	0.9933
226.588	1.0119
226.952	1.0141
227.317	1.0266
227.682	1.0172
228.046	1.007
228.411	1.0108
228.775	1.0069
229.14	1.0017
229.504	0.9889
229.868	0.9951
230.232	0.9847
230.596	0.9784
230.96	0.9771
231.324	0.9643
231.688	0.9529
232.052	0.9471
232.415	0.9372
232.779	0.9288
233.142	0.918
233.505	0.9092
233.869	0.9046
234.232	0.8928
234.595	0.8801
234.958	0.8759
235.321	0.8631
235.684	0.8528
236.047	0.8414
236.409	0.8328
236.772	0.8251
237.134	0.8164
237.497	0.8065
237.859	0.7984
238.222	0.7928
238.584	0.7821
238.946	0.7709
239.308	0.7654
239.67	0.7558
240.032	0.751
240.393	0.7434
240.755	0.7341
241.117	0.7303
241.478	0.7211
241.84	0.7156
242.201	0.7082
242.562	0.7008
242.924	0.6966
243.285	0.6885
243.646	0.6856
244.007	0.68
244.368	0.6715
244.728	0.669
245.089	0.666
245.45	0.6586
245.81	0.6554
246.171	0.6502
246.531	0.6445
246.891	0.6425
247.252	0.6363
247.612	0.6333
247.972	0.6311
248.332	0.6277
248.692	0.6212
249.051	0.6214
249.411	0.6178
249.771	0.6117
250.13	0.6102
250.49	0.6088
250.849	0.6076
251.208	0.6038
251.568	0.6017
251.927	0.5989
252.286	0.5986
252.645	0.5961
253.004	0.5936
253.363	0.5901
253.721	0.5901
254.08	0.5878
254.439	0.5854
254.797	0.5838
255.155	0.5817
255.514	0.5806
255.872	0.5767
256.23	0.5766
256.588	0.5741
256.946	0.5719
257.304	0.572
257.662	0.5703
258.02	0.5695
258.377	0.566
258.735	0.5623
259.093	0.5635
259.45	0.5614
259.807	0.5608
260.165	0.5581
260.522	0.556
260.879	0.5546
261.236	0.5531
261.593	0.552
261.95	0.5499
262.306	0.5477
262.663	0.545
263.02	0.545
263.376	0.5426
263.733	0.5389
264.089	0.539
264.445	0.5357
264.802	0.5338
265.158	0.5333
265.514	0.5306
265.87	0.5286
266.226	0.5269
266.581	0.524
266.937	0.5213
267.293	0.5218
267.648	0.5174
268.004	0.5146
268.359	0.5123
268.714	0.5095
269.07	0.5065
269.425	0.5027
269.78	0.5023
270.135	0.5005
270.49	0.4975
270.844	0.4951
271.199	0.4928
271.554	0.4897
271.908	0.4874
272.263	0.4841
272.617	0.4819
272.972	0.4799
273.326	0.477
273.68	0.4749
274.034	0.471
274.388	0.4672
274.742	0.4634
275.096	0.461
275.45	0.4573
275.803	0.4555
276.157	0.451
276.51	0.4486
276.864	0.446
277.217	0.4423
277.571	0.4374
277.924	0.4353
278.277	0.4314
278.63	0.4275
278.983	0.4247
279.336	0.4208
279.688	0.4181
280.041	0.4133
280.394	0.4098
280.746	0.4064
281.099	0.4029
281.451	0.3997
281.803	0.3957
282.156	0.3933
282.508	0.3896
282.86	0.3845
283.212	0.3817
283.564	0.377
283.916	0.3731
284.267	0.37
284.619	0.3661
284.971	0.3621
285.322	0.3588
285.673	0.3548
286.025	0.3521
286.376	0.348
286.727	0.3431
287.078	0.3403
287.429	0.3368
287.78	0.3324
288.131	0.3288
288.482	0.3244
288.833	0.3208
289.183	0.3171
289.534	0.3135
289.884	0.3094
290.235	0.3055
290.585	0.3011
290.935	0.2986
291.285	0.2947
291.635	0.2909
291.985	0.2874
292.335	0.2834
292.685	0.2811
293.035	0.2771
293.384	0.2726
293.734	0.269
294.083	0.2649
294.433	0.2611
294.782	0.2581
295.131	0.2554
295.48	0.2506
295.829	0.2482
296.179	0.2441
296.527	0.2411
296.876	0.2377
297.225	0.2359
297.574	0.2316
297.922	0.2284
298.271	0.2255
298.619	0.2216
298.968	0.2196
299.316	0.2165
299.664	0.2136
300.012	0.2112
300.36	0.2071
300.708	0.2051
301.056	0.2028
301.404	0.2003
301.752	0.1981
302.099	0.1951
302.447	0.1931
302.794	0.1904
303.142	0.1882
303.489	0.1866
303.836	0.1838
304.183	0.1824
304.531	0.1807
304.878	0.1783
305.224	0.1769
305.571	0.1754
305.918	0.1734
306.265	0.1717
306.611	0.1708
306.958	0.1691
307.304	0.1674
307.651	0.1663
307.997	0.1655
308.343	0.1638
308.689	0.1635
309.035	0.1622
309.381	0.1618
309.727	0.16
310.073	0.1599
310.419	0.1584
310.764	0.158
311.11	0.1581
311.455	0.1571
311.801	0.156
312.146	0.1556
312.491	0.1559
312.837	0.1547
313.182	0.1553
313.527	0.1543
313.872	0.1538
314.216	0.154
314.561	0.1541
314.906	0.1538
315.251	0.1539
315.595	0.1538
315.94	0.1535
316.284	0.1541
316.628	0.1536
316.972	0.1537
317.317	0.154
317.661	0.1547
318.005	0.155
318.348	0.1546
318.692	0.1559
319.036	0.1557
319.38	0.1566
319.723	0.1569
320.067	0.1569
320.41	0.1579
320.754	0.1584
321.097	0.1588
321.44	0.16
321.783	0.16
322.126	0.1613
322.469	0.1625
322.812	0.163
323.155	0.1639
323.498	0.1651
323.84	0.1658
324.183	0.167
324.525	0.1675
324.868	0.1683
325.21	0.1696
325.552	0.1712
325.894	0.1715
326.236	0.1722
326.578	0.1735
326.92	0.1747
327.262	0.1753
327.604	0.178
327.946	0.1782
328.287	0.1796
328.629	0.1801
328.97	0.1815
329.312	0.1827
329.653	0.1837
329.994	0.1851
330.335	0.1864
330.676	0.187
331.017	0.1882
331.358	0.1898
331.699	0.1909
332.04	0.1921
332.38	0.1931
332.721	0.1951
333.061	0.1961
333.402	0.1973
333.742	0.1987
334.083	0.1999
334.423	0.2009
334.763	0.2011
335.103	0.2032
335.443	0.2038
335.783	0.2048
336.123	0.2053
336.462	0.2064
336.802	0.2077
337.141	0.2086
337.481	0.2092
337.82	0.2098
338.16	0.2113
338.499	0.2118
338.838	0.2127
339.177	0.2143
339.516	0.215
339.855	0.2163
340.194	0.217
340.533	0.2183
340.872	0.2187
341.21	0.2205
341.549	0.2204
341.887	0.2211
342.226	0.2221
342.564	0.2212
342.902	0.222
343.24	0.2222
343.578	0.223
343.916	0.2229
344.254	0.2235
344.592	0.2229
344.93	0.224
345.268	0.224
345.605	0.2234
345.943	0.224
346.28	0.2238
346.618	0.2239
346.955	0.224
347.292	0.2244
347.629	0.2256
347.966	0.2252
348.303	0.225
348.64	0.2247
348.977	0.2248
349.314	0.225
349.65	0.2246
349.987	0.2248
350.324	0.2239
350.66	0.2239
350.996	0.2241
351.333	0.2228
351.669	0.2216
352.005	0.2219
352.341	0.2206
352.677	0.2194
353.013	0.2188
353.349	0.2183
353.685	0.2173
354.02	0.2168
354.356	0.2156
354.691	0.2145
355.027	0.2143
355.362	0.2125
355.697	0.2123
356.033	0.211
356.368	0.2095
356.703	0.2091
357.038	0.209
357.373	0.2075
357.707	0.2071
358.042	0.2054
358.377	0.2052
358.711	0.2042
359.046	0.2028
359.38	0.2016
359.715	0.2012
360.049	0.1998
360.383	0.1989
360.717	0.1975
361.051	0.1954
361.385	0.1955
361.719	0.1925
362.053	0.192
362.387	0.1897
362.72	0.1893
363.054	0.1868
363.387	0.1846
363.721	0.1831
364.054	0.1819
364.387	0.18
364.721	0.179
365.054	0.1769
365.387	0.1751
365.72	0.174
366.053	0.1725
366.385	0.171
366.718	0.1699
367.051	0.1678
367.383	0.1663
367.716	0.1657
368.048	0.1646
368.381	0.1628
368.713	0.1617
369.045	0.1604
369.377	0.1594
369.709	0.1582
370.041	0.1565
370.373	0.1555
370.705	0.154
371.037	0.1518
371.368	0.1506
371.7	0.1494
372.031	0.1482
372.363	0.1464
372.694	0.1441
373.025	0.1428
373.356	0.1411
373.688	0.1387
374.019	0.1369
374.35	0.1348
374.68	0.133
375.011	0.1313
375.342	0.1294
375.673	0.1275
376.003	0.1256
376.334	0.1248
376.664	0.1229
376.995	0.121
377.325	0.1195
377.655	0.1193
377.985	0.1171
378.315	0.1161
378.645	0.1142
378.975	0.1132
379.305	0.1117
379.635	0.1111
379.964	0.1099
380.294	0.1093
380.623	0.1079
380.953	0.1067
381.282	0.1047
381.611	0.1031
381.941	0.1022
382.27	0.1013
382.599	0.0998
382.928	0.0982
383.257	0.0969
383.585	0.0961
383.914	0.0946
384.243	0.0933
384.571	0.0914
384.9	0.0895
385.228	0.0882
385.557	0.087
385.885	0.0855
386.213	0.0838
386.541	0.0828
386.869	0.081
387.197	0.0793
387.525	0.0782
387.853	0.0766
388.181	0.0761
388.508	0.0746
388.836	0.074
389.164	0.0725
389.491	0.0717
389.818	0.0705
390.146	0.0692
390.473	0.0672
390.8	0.0679
391.127	0.0656
391.454	0.0655
391.781	0.0643
392.108	0.0635
392.435	0.0616
392.761	0.061
393.088	0.0607
393.415	0.0597
393.741	0.0597
394.067	0.0582
394.394	0.0582
394.72	0.0571
395.046	0.0567
395.372	0.0555
395.698	0.0544
396.024	0.0544
396.35	0.0533
396.676	0.0526
397.001	0.0518
397.327	0.0511
397.653	0.0498
397.978	0.0487
398.303	0.0485
398.629	0.0477
398.954	0.047
399.279	0.0467
399.604	0.0462
399.929	0.0451
400.254	0.0452
400.579	0.0449
400.904	0.0435
401.229	0.0429
401.553	0.0419
401.878	0.0416
402.202	0.0416
402.527	0.0416
402.851	0.0412
403.175	0.0404
403.5	0.0403
403.824	0.0398
404.148	0.0399
404.472	0.0397
404.796	0.0386
405.119	0.0382
405.443	0.0377
405.767	0.0372
406.09	0.0379
406.414	0.0377
406.737	0.0372
407.061	0.0372
407.384	0.0373
407.707	0.037
408.03	0.0375
408.353	0.037
408.676	0.037
408.999	0.0362
409.322	0.036
409.645	0.0369
409.968	0.0357
410.29	0.0362
410.613	0.0361
410.935	0.0365
411.258	0.036
411.58	0.0359
411.902	0.0356
412.224	0.036
412.546	0.0358
412.868	0.0351
413.19	0.0356
413.512	0.0355
413.834	0.0357
414.156	0.0361
414.477	0.0354
414.799	0.0355
415.121	0.0357
415.442	0.0357
415.763	0.0364
416.085	0.0358
416.406	0.0364
416.727	0.0363
417.048	0.0357
417.369	0.0355
417.69	0.0359
418.011	0.0358
418.331	0.0362
418.652	0.0366
418.973	0.0366
419.293	0.0364
419.614	0.0367
419.934	0.0358
420.254	0.036
420.574	0.0358
420.895	0.0364
421.215	0.0356
421.535	0.0361
421.855	0.036
422.174	0.0355
422.494	0.0361
422.814	0.0365
423.134	0.0362
423.453	0.0363
423.773	0.0361
424.092	0.0365
424.411	0.0354
424.731	0.0364
425.05	0.0369
425.369	0.0366
425.688	0.0368
426.007	0.0376
426.326	0.0371
426.644	0.0381
426.963	0.038
427.282	0.0377
427.6	0.0376
427.919	0.0379
428.237	0.0379
428.556	0.0377
428.874	0.0377
429.192	0.0369
429.51	0.0374
429.828	0.0378
430.146	0.0379
430.464	0.0375
430.782	0.0376
431.1	0.0378
431.418	0.0374
431.735	0.0374
432.053	0.0381
432.37	0.0378
432.688	0.0381
433.005	0.0382
433.322	0.0383
433.639	0.0383
433.957	0.0383
434.274	0.0387
434.591	0.0388
434.907	0.039
435.224	0.0387
435.541	0.0382
435.858	0.0391
436.174	0.0389
436.491	0.039
436.807	0.0384
437.124	0.0378
437.44	0.0378
437.756	0.0385
438.072	0.0376
438.388	0.0385
438.704	0.0385
439.02	0.0387
439.336	0.0383
439.652	0.0377
439.968	0.0387
440.283	0.038
440.599	0.0383
440.914	0.0383
441.23	0.0383
441.545	0.038
441.86	0.0378
442.175	0.0379
442.491	0.038
442.806	0.0377
443.121	0.0383
443.435	0.0378
443.75	0.038
444.065	0.0378
444.38	0.0378
444.694	0.0384
445.009	0.0384
445.323	0.0384
445.638	0.038
445.952	0.0378
446.266	0.0378
446.58	0.0384
446.894	0.0379
447.208	0.0387
447.522	0.0379
447.836	0.0364
448.15	0.0372
448.464	0.037
448.777	0.0367
449.091	0.0364
449.404	0.0377
449.718	0.0372
450.031	0.0376
450.345	0.0367
450.658	0.0363
450.971	0.0368
451.284	0.0362
451.597	0.0371
451.91	0.037
452.223	0.0361
452.535	0.0367
452.848	0.0365
453.161	0.0364
453.473	0.0366
453.786	0.0366
454.098	0.0361
454.411	0.0365
454.723	0.0357
455.035	0.0356
455.347	0.0363
455.659	0.0362
455.971	0.0356
456.283	0.0358
456.595	0.0348
456.907	0.0359
457.218	0.0357
457.53	0.0351
457.841	0.0343
458.153	0.0344
458.464	0.0345
458.776	0.033
459.087	0.0335
459.398	0.0343
459.709	0.034
460.02	0.0337
460.331	0.0336
460.642	0.0332
460.953	0.0329
461.263	0.0335
461.574	0.0333
461.885	0.0325
462.195	0.0333
462.506	0.0327
462.816	0.0328
463.126	0.0319
463.437	0.0331
463.747	0.0313
464.057	0.0321
464.367	0.0316
464.677	0.0309
464.987	0.0314
465.296	0.0314
465.606	0.0304
465.916	0.0303
466.225	0.0301
466.535	0.0306
466.844	0.0299
467.154	0.0301
467.463	0.0295
467.772	0.0297
468.081	0.029
468.39	0.0293
468.699	0.0292
469.008	0.0294
469.317	0.0293
469.626	0.0289
469.935	0.0292
470.243	0.0287
470.552	0.0289
470.86	0.029
471.169	0.0278
471.477	0.0284
471.785	0.0279
472.093	0.0287
472.402	0.0282
472.71	0.0272
473.018	0.0269
473.326	0.0258
473.633	0.027
473.941	0.0265
474.249	0.0261
474.556	0.026
474.864	0.0256
475.171	0.0243
475.479	0.0258
475.786	0.0264
476.094	0.0256
476.401	0.0256
476.708	0.0254
477.015	0.0248
477.322	0.0244
477.629	0.0251
477.936	0.0235
478.242	0.024
478.549	0.0237
478.856	0.0232
479.162	0.024
479.469	0.0241
479.775	0.0235
480.081	0.0228
480.388	0.0231
480.694	0.0224
481	0.0221
481.306	0.0225
481.612	0.0219
481.918	0.0217
482.224	0.0219
482.53	0.022
482.835	0.021
483.141	0.0204
483.446	0.0206
483.752	0.0211
484.057	0.0194
484.363	0.0194
484.668	0.0187
484.973	0.0192
485.278	0.019
485.583	0.0193
485.888	0.0189
486.193	0.0188
486.498	0.018
486.803	0.0192
487.107	0.0192
487.412	0.0179
487.717	0.0174
488.021	0.018
488.325	0.0173
488.63	0.0166
488.934	0.0177
489.238	0.0177
489.542	0.0176
489.846	0.0165
490.15	0.0179
490.454	0.0173
490.758	0.0171
491.062	0.0169
491.366	0.016
491.669	0.0161
491.973	0.0159
492.276	0.0165
492.58	0.0152
492.883	0.0159
493.186	0.0157
493.489	0.016
493.792	0.0157
494.096	0.0154
494.399	0.015
494.701	0.0149
495.004	0.0154
495.307	0.0142
495.61	0.014
495.912	0.0136
496.215	0.0132
496.517	0.0136
496.82	0.0127
497.122	0.0132
497.424	0.012
497.727	0.0131
498.029	0.0136
498.331	0.0133
498.633	0.0138
498.935	0.012
499.237	0.0126
499.538	0.0128
499.84	0.0123
500.142	0.013
500.443	0.0121
500.745	0.0117
501.046	0.0111
501.348	0.0108
501.649	0.012
501.95	0.0109
502.251	0.011
502.552	0.0104
502.853	0.0109
503.154	0.0103
503.455	0.0097
503.756	0.0106
504.057	0.0106
504.357	0.0102
504.658	0.0097
504.958	0.0102
505.259	0.0111
505.559	0.0103
505.859	0.0099
506.16	0.0101
506.46	0.0099
506.76	0.0097
507.06	0.009
507.36	0.0089
507.66	0.0098
507.96	0.0095
508.259	0.0094
508.559	0.0076
508.859	0.0089
509.158	0.008
509.457	0.0085
509.757	0.0091
510.056	0.0076
510.355	0.008
510.655	0.0074
510.954	0.0081
511.253	0.0076
511.552	0.0074
511.851	0.0069
512.149	0.0069
512.448	0.0077
512.747	0.0078
513.045	0.0075
513.344	0.0074
513.642	0.0079
513.941	0.0073
514.239	0.0076
514.537	0.0071
514.836	0.0078
515.134	0.0063
515.432	0.0064
515.73	0.0076
516.028	0.0064
516.326	0.0072
516.623	0.0062
516.921	0.0061
517.219	0.0073
517.516	0.0063
517.814	0.0062
518.111	0.0066
518.409	0.0083
518.706	0.0076
519.003	0.0064
519.3	0.0055
519.597	0.0061
519.894	0.0059
520.191	0.0065
520.488	0.0068
520.785	0.0053
521.082	0.0058
521.378	0.0054
521.675	0.0042
521.971	0.0058
522.268	0.0052
522.564	0.0059
522.861	0.0056
523.157	0.0045
523.453	0.005
523.749	0.0061
524.045	0.0061
524.341	0.0054
524.637	0.0049
524.933	0.0051
525.229	0.0052
525.524	0.0043
525.82	0.0058
526.115	0.0046
526.411	0.0043
526.706	0.0047
527.002	0.0049
527.297	0.0045
527.592	0.0065
527.887	0.0057
528.182	0.0052
528.477	0.0061
528.772	0.0044
529.067	0.0055
529.362	0.0054
529.657	0.0054
529.951	0.0042
530.246	0.0047
530.54	0.0029
530.835	0.0035
531.129	0.0032
531.423	0.0045
531.718	0.0034
532.012	0.0043
532.306	0.0033
532.6	0.0034
532.894	0.0037
533.188	0.0043
533.482	0.0028
533.775	0.0038
534.069	0.003
534.363	0.003
534.656	0.0029
534.95	0.0019
535.243	0.0037
535.536	0.0037
535.83	0.0036
536.123	0.0024
536.416	0.0035
536.709	0.003
537.002	0.0044
537.295	0.0029
537.588	0.0044
537.881	0.0027
538.173	0.0034
538.466	0.0027
538.759	0.0032
539.051	0.0022
539.344	0.0028
539.636	0.0032
539.928	0.0021
540.22	0.0027
540.513	0.003
540.805	0.0039
541.097	0.0041
541.389	0.0031
541.681	0.0032
541.972	0.0033
542.264	0.0024
542.556	0.0032
542.847	0.0038
543.139	0.0036
543.431	0.0045
543.722	0.0038
544.013	0.0035
544.305	0.0041
544.596	0.0052
544.887	0.0034
545.178	0.0037
545.469	0.0029
545.76	0.0029
546.051	0.0037
546.342	0.0052
546.632	0.0024
546.923	0.0036
547.214	0.0033
547.504	0.0029
547.795	0.003
548.085	0.0034
548.375	0.0019
548.666	0.0037
548.956	0.0017
549.246	0.0034
549.536	0.0023
549.826	0.0037
550.116	0.0038
550.406	0.0035
550.695	0.0041
550.985	0.0036
551.275	0.0047
551.564	0.0038
551.854	0.0049
552.143	0.0039
552.433	0.0044
552.722	0.004
553.011	0.0036
553.3	0.0044
553.589	0.0034
553.879	0.0032
554.167	0.0044
554.456	0.0026
554.745	0.0038
555.034	0.0039
555.323	0.0021
555.611	0.0025
555.9	0.0033
556.188	0.0026
556.477	0.0033
556.765	0.0026
557.053	0.0027
557.342	0.0029
557.63	0.0041
557.918	0.0036
558.206	0.0039
558.494	0.0034
558.782	0.0032
559.069	0.0039
559.357	0.004
559.645	0.0037
559.932	0.0035
560.22	0.0041
560.507	0.0033
560.795	0.0031
561.082	0.003
561.37	0.0029
561.657	0.0034
561.944	0.004
562.231	0.0034
562.518	0.0028
562.805	0.0035
563.092	0.0042
563.379	0.0033
563.665	0.0034
563.952	0.0039
564.239	0.0039
564.525	0.0039
564.811	0.005
565.098	0.0043
565.384	0.0039
565.67	0.0034
565.957	0.0032
566.243	0.0036
566.529	0.0036
566.815	0.0048
567.101	0.0029
567.387	0.0025
567.672	0.0028
567.958	0.0029
568.244	0.0036
568.529	0.0042
568.815	0.0029
569.1	0.0035
569.386	0.0034
569.671	0.0034
569.956	0.0034
570.242	0.0033
570.527	0.004
570.812	0.0039
571.097	0.0038
571.382	0.0036
571.666	0.0029
571.951	0.0027
572.236	0.0035
572.521	0.0025
572.805	0.0025
573.09	0.0034
573.374	0.0033
573.659	0.0027
573.943	0.0032
574.227	0.0031
574.511	0.0028
574.795	0.0029
575.079	0.0025
575.363	0.0028
575.647	0.0036
575.931	0.0032
576.215	0.0037
576.499	0.0031
576.782	0.0033
577.066	0.0027
577.349	0.0025
577.633	0.004
577.916	0.0034
578.2	0.0032
578.483	0.0033
578.766	0.0026
579.049	0.0044
579.332	0.003
579.615	0.0028
579.898	0.0038
580.181	0.0026
580.464	0.003
580.746	0.0022
581.029	0.0029
581.312	0.0021
581.594	0.003
581.877	0.0028
582.159	0.003
582.441	0.0035
582.724	0.003
583.006	0.003
583.288	0.0018
583.57	0.0019
583.852	0.0024
584.134	0.0024
584.416	0.0031
584.697	0.003
584.979	0.0025
585.261	0.0025
585.542	0.002
585.824	0.0028
586.105	0.0031
586.387	0.0021
586.668	0.0025
586.949	0.0031
587.231	0.0019
587.512	0.002
587.793	0.003
588.074	0.0027
588.355	0.0027
588.636	0.0037
588.916	0.0033
589.197	0.0033
589.478	0.0039
589.758	0.0031
590.039	0.0037
590.319	0.0031
590.6	0.0025
590.88	0.0026
591.16	0.0024
591.441	0.0034
591.721	0.004
592.001	0.0032
592.281	0.0028
592.561	0.0034
592.841	0.0033
593.12	0.0028
593.4	0.0024
593.68	0.0023
593.959	0.0025
594.239	0.0034
594.518	0.0021
594.798	0.0037
595.077	0.0041
595.356	0.0031
595.636	0.0031
595.915	0.0029
596.194	0.0036
596.473	0.0032
596.752	0.0033
597.031	0.0027
597.31	0.0018
597.588	0.0025
597.867	0.0023
598.146	0.0024
598.424	0.0026
598.703	0.003
598.981	0.0027
599.259	0.0033
599.538	0.003
599.816	0.0031
600.094	0.003
600.372	0.0029
600.65	0.0029
600.928	0.0033
601.206	0.0031
601.484	0.0033
601.762	0.0034
602.04	0.0026
602.317	0.0035
602.595	0.0033
602.872	0.0036
603.15	0.0029
603.427	0.0021
603.704	0.0025
603.982	0.0021
604.259	0.0018
604.536	0.0023
604.813	0.0019
605.09	0.0023
605.367	0.0025
605.644	0.002
605.921	0.0022
606.197	0.0031
606.474	0.0015
606.751	0.0023
607.027	0.0026
607.304	0.002
607.58	0.0023
607.856	0.0018
608.133	0.0032
608.409	0.0032
608.685	0.0021
608.961	0.0033
609.237	0.0032
609.513	0.0025
609.789	0.0031
610.065	0.0022
610.341	0.0025
610.616	0.0023
610.892	0.003
611.167	0.0033
611.443	0.0039
611.718	0.0027
611.994	0.0027
612.269	0.0031
612.544	0.0036
612.819	0.0032
613.095	0.0035
613.37	0.0024
613.645	0.0017
613.919	0.0021
614.194	0.0023
614.469	0.0017
614.744	0.0013
615.019	0.0012
615.293	0.0008
615.568	0.0013
615.842	0.0019
616.116	0.0008
616.391	0.0007
616.665	0.0031
616.939	0.001
617.213	0.0023
617.488	0.0021
617.762	0.0024
618.035	0.0019
618.309	0.0014
618.583	0.002
618.857	0.0028
619.131	0.0031
619.404	0.0019
619.678	0.0014
619.951	0.0008
620.225	0.0016
620.498	0.0024
620.771	0.0023
621.045	0.0026
621.318	0.0029
621.591	0.0026
621.864	0.0018
622.137	0.0017
622.41	0.0017
622.683	0.0013
622.956	0.0027
623.228	0.0032
623.501	0.0029
623.774	0.0032
624.046	0.0025
624.319	0.0025
624.591	0.0004
624.863	0.0023
625.136	0.0015
625.408	0.0022
625.68	0.0019
625.952	0.0023
626.224	0.0031
626.496	0.0025
626.768	0.0013
627.04	0.0013
627.311	0.0017
627.583	0.0025
627.855	0.0021
628.126	0.002
628.398	0.003
628.669	0.0036
628.941	0.0014
629.212	0.0007
629.483	0.0018
629.755	0.0014
630.026	0.0015
630.297	0.0002
630.568	0
630.839	0.0001
631.11	0.0001
631.38	0.0005
631.651	0.0013
631.922	0.0005
632.192	0
632.463	0.0005
632.733	0.0012
633.004	0.0014
633.274	0.0005
633.545	0.0027
633.815	0.004
634.085	0.0032
634.355	0.0029
634.625	0.0038
634.895	0.0017
635.165	0.0021
635.435	0.003
635.705	0.002
635.974	0.0009
636.244	0.0024
636.514	0.0024
636.783	0.0016
637.053	0.003
637.322	0.0017
637.591	0.002
637.861	0.002
638.13	0.0026
638.399	0.0024
638.668	0.0034
638.937	0.0012
639.206	0.0027
639.475	0.0023
639.744	0.0025
640.013	0.0028
640.281	0.0044
640.55	0.0036
640.819	0.0037
641.087	0.0031
641.356	0.0024
641.624	0.0033
641.892	0.0031
642.161	0.0028
642.429	0.0039
642.697	0.0035
642.965	0.004
643.233	0.0038
643.501	0.0022
643.769	0.0019
644.037	0.002
644.305	0.0024
644.572	0.0006
644.84	0.0013
645.108	0.0006
645.375	0
645.643	0.0015
645.91	0.001
646.177	0.0034
646.445	0.0042
646.712	0.0052
646.979	0.0047
647.246	0.0044
647.513	0.0046
647.78	0.0054
648.047	0.005
648.314	0.0039
648.58	0.003
648.847	0.0023
649.114	0.0007
649.38	0.0015
649.647	0.0021
649.913	0.0011
650.18	0.0014
650.446	0.0024
650.712	0.0025
650.978	0.0027
651.245	0.0035
651.511	0.0026
651.777	0.0031
652.043	0.0029
652.309	0.0034
652.574	0.0039
652.84	0.0032
653.106	0.0018
653.371	0.0013
653.637	0.003
653.903	0.0033
654.168	0.0034
654.433	0.0041
654.699	0.004
654.964	0.0042
655.229	0.004
655.494	0.0032
655.759	0.0019
656.024	0.0007
656.289	-0
656.554	-0.0024
656.819	-0.0005
657.084	0.0025
657.349	0.0043
657.613	0.0038
657.878	0.004
658.142	0.004
658.407	0.0041
658.671	0.0036
658.936	0.0031
659.2	0.002
659.464	0.0023
659.728	0.0018
659.992	0.0035
660.256	0.002
660.52	0.0015
660.784	0.0008
661.048	0.0008
661.312	0.0006
661.575	0.0005
661.839	-0.0002
662.103	-0.0012
662.366	-0.0008
662.63	-0.0002
662.893	0.0008
663.156	0.0007
663.42	-0.0001
663.683	0.0009
663.946	0.0029
664.209	0.0042
664.472	0.0039
664.735	0.0037
664.998	0.0021
665.261	0.0021
665.524	0.0017
665.786	0.0016
666.049	0.002
666.312	0.0021
666.574	0.0024
666.837	0.0017
667.099	0.0001
667.361	0.0011
667.624	0.0005
667.886	0.0003
668.148	0.0022
668.41	0.0024
668.672	0.0014
668.934	0.0015
669.196	0.0013
669.458	0.0022
669.72	0.0029
669.982	0.0032
670.243	0.0039
670.505	0.0035
670.766	0.0027
671.028	0.0035
671.289	0.0031
671.551	0.0021
671.812	0.0004
672.073	0.0008
672.334	0.0012
672.596	0.0012
672.857	0.0008
673.118	0.0011
673.379	0.0005
673.639	-0.0003
673.9	0.0002
674.161	-0.0014
674.422	-0.002
674.682	-0.0012
674.943	-0.0021
675.203	-0.0005
675.464	-0.0001
675.724	0.0013
675.985	0.0012
676.245	0.0017
676.505	0.0027
676.765	0.002
677.025	0.0015
677.285	0.0017
677.545	0.004
677.805	0.0033
678.065	0.0029
678.325	0.0028
678.585	0.0024
678.844	0.0024
679.104	0.0019
679.363	0.0027
679.623	0.0035
679.882	0.0037
680.142	0.0032
680.401	0.0038
680.66	0.004
680.919	0.0042
681.178	0.0052
681.437	0.0042
681.696	0.0036
681.955	0.004
682.214	0.005
682.473	0.0049
682.732	0.0048
682.99	0.0023
683.249	0.0035
683.508	0.0026
683.766	0.0042
684.024	0.0037
684.283	0.0045
684.541	0.0042
684.799	0.0043
685.058	0.0028
685.316	0.0031
685.574	0.0037
685.832	0.0044
686.09	0.0031
686.348	0.0044
686.606	0.0042
686.863	0.0045
687.121	0.0048
687.379	0.0046
687.636	0.0043
687.894	0.0042
688.151	0.0048
688.409	0.0049
688.666	0.0044
688.923	0.0044
689.181	0.0042
689.438	0.0024
689.695	0.0023
689.952	0.0007
690.209	0.0022
690.466	0.0025
690.723	0.0039
690.979	0.0027
691.236	0.0027
691.493	0.0028
691.75	0.0033
692.006	0.0036
692.263	0.0037
692.519	0.0031
692.775	0.0028
693.032	0.0011
693.288	0.0026
693.544	0.0029
693.8	0.0024
694.056	0.0019
694.313	0.0031
694.568	0.0024
694.824	0.0034
695.08	0.0039
695.336	0.0035
695.592	0.0028
695.847	0.0026
696.103	0.0036
696.359	0.0035
696.614	0.003
696.869	0.0027
697.125	0.0011
697.38	0
697.635	0.0003
697.891	0.0004
698.146	0.0005
698.401	0.0022
698.656	0.0026
698.911	0.0033
699.166	0.0025
699.42	0.0024
699.675	0.0027
699.93	0.0012
700.185	0.0026
700.439	0.0037
700.694	0.0018
700.948	0.0038
701.203	0.0036
701.457	0.0029
701.711	0.0027
701.965	0.0014
702.22	0.0007
702.474	0.0013
702.728	-0.0009
702.982	-0.0007
703.236	-0.0001
703.49	0.0001
703.743	0.0007
703.997	0.0005
704.251	0.0011
704.504	0.0021
704.758	0.0008
705.012	0.0011
705.265	0.0014
705.518	0.0011
705.772	0.0005
706.025	0.0011
706.278	0.0003
706.531	-0.0006
706.785	-0.0009
707.038	-0
707.291	-0.0001
707.543	0.0002
707.796	0.0001
708.049	0.0002
708.302	-0.0005
708.555	0.0004
708.807	0.0012
709.06	0.0003
709.312	-0.0014
709.565	-0.0007
709.817	-0.0014
710.069	-0.0004
710.322	0.0001
710.574	0.0004
710.826	0.0007
711.078	0.0013
711.33	0.001
711.582	0.001
711.834	0.0021
712.086	0.0019
712.338	0.0028
712.59	0.0036
712.841	0.0027
713.093	0.0019
713.344	0.0024
713.596	0.0031
713.847	0.0029
714.099	0.0028
714.35	0.0031
714.601	0.0035
714.853	0.0042
715.104	0.0042
715.355	0.0026
715.606	0.0024
715.857	0.0032
716.108	0.0035
716.359	0.0027
716.609	0.0045
716.86	0.0021
717.111	0.0017
717.361	0.001
717.612	0.0011
717.863	0.0011
718.113	0.0017
718.363	0.0016
718.614	0.0013
718.864	0.0021
719.114	0.0015
719.364	0.0009
719.614	0.0003
719.865	-0.001
720.114	0.0003
720.364	0.0008
720.614	0.002
720.864	0.0034
721.114	0.0033
721.364	0.0032
721.613	0.0039
721.863	0.0036
722.112	0.004
722.362	0.004
722.611	0.0037
722.86	0.0029
723.11	0.0014
723.359	0.0017
723.608	0.0027
723.857	0.0036
724.106	0.0048
724.355	0.0054
724.604	0.0057
724.853	0.0046
725.102	0.0042
725.351	0.0027
725.599	0.0027
725.848	0.0028
726.097	0.0026
726.345	0.0021
726.594	0.002
726.842	0.0022
727.09	0.0017
727.339	0.0018
727.587	0.0014
727.835	0.0007
728.083	0.0002
728.331	0.0001
728.579	-0.0003
728.827	0.0005
729.075	0.0007
729.323	0.0018
729.571	0.0024
729.818	0.0024
730.066	0.0026
730.314	0.0028
730.561	0.0013
730.809	0.0013
731.056	0.0003
731.303	-0.0009
731.551	0.0011
731.798	0.0008
732.045	0.0011
732.292	0.0015
732.539	0.0011
732.786	0.002
733.033	0.0025
733.28	0.0025
733.527	0.004
733.774	0.0033
734.021	0.0042
734.267	0.0041
734.514	0.0039
734.76	0.0038
735.007	0.0049
735.253	0.0061
735.5	0.0053
735.746	0.0055
735.992	0.0053
736.238	0.0056
736.485	0.0057
736.731	0.006
736.977	0.0057
737.223	0.005
737.469	0.0052
737.715	0.0059
737.96	0.0075
738.206	0.0057
738.452	0.0085
738.697	0.0092
738.943	0.0076
739.189	0.0061
739.434	0.0036
739.679	0.0031
739.925	0.0028
740.17	0.0025
740.415	0.0027
740.66	0.0035
740.906	0.0042
741.151	0.0033
741.396	0.0041
741.641	0.0057
741.886	0.006
742.13	0.0065
742.375	0.0068
742.62	0.008
742.865	0.0063
743.109	0.0055
743.354	0.0052
743.598	0.0055
743.843	0.0057
744.087	0.0052
744.331	0.0063
744.576	0.0054
744.82	0.0054
745.064	0.0047
745.308	0.0042
745.552	0.0039
745.796	0.0044
746.04	0.0044
746.284	0.0023
746.528	0.0007
746.771	0.0017
747.015	0.0011
747.259	0.0023
747.502	0.0012
747.746	0.0027
747.989	0.0026
748.233	0.0041
748.476	0.0047
748.719	0.0056
748.963	0.0058
749.206	0.0052
749.449	0.0057
749.692	0.0042
749.935	0.006
750.178	0.0051
750.421	0.0043
750.664	0.0042
750.906	0.0046
751.149	0.0036
751.392	0.0035
751.635	0.0015
751.877	0.0004
752.12	0.0005
752.362	0.0011
752.604	0.0007
752.847	0.0018
753.089	0.0022
753.331	0.0023
753.573	0.003
753.816	0.0038
754.058	0.0034
754.3	0.004
754.542	0.0047
754.783	0.0047
755.025	0.0041
755.267	0.0018
755.509	0.002
755.75	0.0016
755.992	0.0025
756.234	0.0019
756.475	0.0002
756.716	0.0009
756.958	0.0004
757.199	0.0004
757.44	0.0021
757.682	0.0018
757.923	0.0006
758.164	0.0003
758.405	-0.0003
758.646	0.0004
758.887	0.0011
759.128	0.0016
759.369	0.0011
759.609	0.0003
759.85	0.0003
760.091	0.0013
760.331	0.0009
760.572	-0.0002
760.812	-0
761.053	0.0002
761.293	0.0011
761.533	0.0014
761.774	0.0013
762.014	0.0021
762.254	0.0018
762.494	0.0015
762.734	0.0014
762.974	0.0012
763.214	0.0007
763.454	0.0009
763.694	0.0003
763.933	-0.0007
764.173	0.0014
764.413	0.0012
764.652	0.001
764.892	0.0016
765.131	0.0013
765.371	0.0014
765.61	0.0022
765.849	0.0019
766.089	0.002
766.328	0.0037
766.567	0.0029
766.806	0.0038
767.045	0.0044
767.284	0.0046
767.523	0.0047
767.762	0.0054
768.001	0.0041
768.239	0.0033
768.478	0.0025
768.717	0.0026
768.955	0.0037
769.194	0.0023
769.432	0.0031
769.671	0.004
769.909	0.0032
770.148	0.0035
770.386	0.0043
770.624	0.0031
770.862	0.0039
771.1	0.0031
771.338	0.0029
771.576	0.0032
771.814	0.0028
772.052	0.0027
772.29	0.0038
772.528	0.0047
772.765	0.004
773.003	0.0049
773.24	0.004
773.478	0.0039
773.716	0.0044
773.953	0.0041
774.19	0.0041
774.428	0.0041
774.665	0.004
774.902	0.0047
775.139	0.0033
775.376	0.0039
775.613	0.0031
775.85	0.0034
776.087	0.0038
776.324	0.0036
776.561	0.0048
776.798	0.0055
777.034	0.0064
777.271	0.0077
777.508	0.0076
777.744	0.0078
777.981	0.0072
778.217	0.0068
778.454	0.0065
778.69	0.0052
778.926	0.0053
779.162	0.0055
779.399	0.0049
779.635	0.0045
779.871	0.004
780.107	0.0048
780.343	0.0059
780.579	0.0061
780.814	0.0055
781.05	0.0057
781.286	0.0053
781.522	0.0047
781.757	0.006
781.993	0.0065
782.228	0.0063
782.464	0.006
782.699	0.0061
782.934	0.0055
783.17	0.0051
783.405	0.0051
783.64	0.004
783.875	0.0038
784.11	0.0043
784.345	0.0044
784.58	0.0046
784.815	0.0053
785.05	0.0049
785.285	0.0037
785.52	0.0028
785.754	0.0036
785.989	0.0031
786.223	0.002
786.458	0.0026
786.692	0.0025
786.927	0.0021
787.161	0.0024
787.396	0.0025
787.63	0.0021
787.864	0.0006
788.098	0.0015
788.332	0.0021
788.566	0.0008
788.8	0.0018
789.034	0.0018
789.268	0.002
789.502	0.0017
789.736	0.0029
789.969	0.0027
790.203	0.0024
790.437	0.003
790.67	0.0023
790.904	0.0026
791.137	0.0014
791.37	0.0016
791.604	0.0003
791.837	0.0006
792.07	0.0008
792.303	0.0017
792.537	0.001
792.77	0.0005
793.003	0.0011
793.236	0.0001
793.469	0.0004
793.701	0.0009
793.934	0.0016
794.167	0.0012
794.4	0.0007
794.632	0.0008
794.865	0.0006
795.097	0.0009
795.33	0.0017
795.562	0.0012
795.795	0.0016
796.027	0.0022
796.259	0.0028
796.491	0.0014
796.724	0.0011
796.956	0.002
797.188	0.0025
797.42	0.0011
797.652	0.0018
797.883	0.0014
798.115	0.0007
798.347	0.0002
798.579	-0.0005
798.81	-0.0016
799.042	-0.0015
799.274	-0.0024
799.505	-0.002
799.737	-0.0014
799.968	-0.0012
800.199	-0.0007
800.431	-0.0009
800.662	0.0009
800.893	0.0004
801.124	0.0006
801.355	0.0003
801.586	0.0015
801.817	0.0009
802.048	0.0003
802.279	0.0003
802.51	0.0009
802.741	-0.0005
802.971	0.0009
803.202	-0.001
803.433	-0.0001
803.663	-0.0003
803.894	-0
804.124	0.0009
804.354	-0.0003
804.585	0.0001
804.815	-0.0002
805.045	0.0002
805.275	-0.001
805.506	-0.0111
805.736	0.0817
805.966	-0.0014
806.196	0.1275
