Data from 03 0.2 mM BQDS 0.4 mM K2Cr2O7 1 M H2SO4 5 min_Absorbance_19-07-42-944.txt Node
Date: Wed Dec 08 19:07:42 EST 2021
User: kwabilab-user
Spectrometer: HDX00518
Trigger mode: 0
Integration Time (sec): 5.000000E-2
Scans to average: 50
Nonlinearity correction enabled: false
Boxcar width: 0
Storing dark spectrum: false
XAxis mode: Wavelengths
Number of Pixels in Spectrum: 2068
>>>>>Begin Spectral Data<<<<<
195.27	-0.1679
195.642	-0.0403
196.014	-0.0439
196.386	-0.106
196.758	-0.0394
197.129	-0.0229
197.501	0.0107
197.872	0.0487
198.244	0.0795
198.615	0.0882
198.986	0.0772
199.357	0.073
199.728	0.0841
200.099	0.0635
200.47	0.0679
200.841	0.0679
201.212	0.0796
201.582	0.0683
201.953	0.0747
202.323	0.0657
202.694	0.0632
203.064	0.0769
203.434	0.074
203.804	0.091
204.174	0.0807
204.544	0.0754
204.914	0.0635
205.284	0.0731
205.653	0.0756
206.023	0.091
206.393	0.0701
206.762	0.0803
207.131	0.0856
207.501	0.08
207.87	0.0858
208.239	0.0748
208.608	0.0829
208.977	0.08
209.346	0.0927
209.715	0.0931
210.083	0.1051
210.452	0.0873
210.82	0.0906
211.189	0.1122
211.557	0.1019
211.925	0.1127
212.294	0.117
212.662	0.1239
213.03	0.1299
213.398	0.1109
213.766	0.135
214.133	0.1399
214.501	0.1589
214.869	0.1614
215.236	0.1958
215.604	0.1752
215.971	0.2043
216.338	0.2141
216.705	0.2323
217.072	0.2615
217.439	0.2717
217.806	0.2993
218.173	0.3254
218.54	0.364
218.907	0.3863
219.273	0.4316
219.64	0.457
220.006	0.5107
220.373	0.5262
220.739	0.5754
221.105	0.6138
221.471	0.6456
221.837	0.6874
222.203	0.731
222.569	0.7554
222.935	0.7848
223.3	0.815
223.666	0.8438
224.031	0.8849
224.397	0.891
224.762	0.9243
225.127	0.9376
225.493	0.9533
225.858	0.9717
226.223	0.9777
226.588	0.9826
226.952	0.9922
227.317	1.0058
227.682	1.0054
228.046	0.9948
228.411	1.0002
228.775	1.0004
229.14	0.9974
229.504	0.9941
229.868	0.9907
230.232	0.9875
230.596	0.9793
230.96	0.9753
231.324	0.9637
231.688	0.9575
232.052	0.9555
232.415	0.9422
232.779	0.9354
233.142	0.9323
233.505	0.915
233.869	0.9134
234.232	0.901
234.595	0.8904
234.958	0.8875
235.321	0.877
235.684	0.8665
236.047	0.8543
236.409	0.8463
236.772	0.8387
237.134	0.8296
237.497	0.822
237.859	0.8093
238.222	0.8032
238.584	0.7973
238.946	0.7846
239.308	0.7793
239.67	0.7693
240.032	0.7603
240.393	0.7544
240.755	0.7496
241.117	0.7414
241.478	0.7344
241.84	0.7299
242.201	0.7188
242.562	0.7124
242.924	0.7066
243.285	0.6991
243.646	0.6945
244.007	0.6894
244.368	0.6817
244.728	0.6787
245.089	0.6709
245.45	0.6675
245.81	0.6632
246.171	0.6581
246.531	0.6524
246.891	0.6503
247.252	0.6458
247.612	0.6402
247.972	0.6368
248.332	0.6322
248.692	0.6288
249.051	0.6276
249.411	0.6229
249.771	0.6162
250.13	0.6136
250.49	0.6144
250.849	0.6092
251.208	0.607
251.568	0.6013
251.927	0.6003
252.286	0.5983
252.645	0.5943
253.004	0.5934
253.363	0.5894
253.721	0.5894
254.08	0.5869
254.439	0.5838
254.797	0.5819
255.155	0.5774
255.514	0.5761
255.872	0.575
256.23	0.5729
256.588	0.5704
256.946	0.5685
257.304	0.5666
257.662	0.5641
258.02	0.5645
258.377	0.5605
258.735	0.5585
259.093	0.5589
259.45	0.5548
259.807	0.5529
260.165	0.5524
260.522	0.5478
260.879	0.5457
261.236	0.5463
261.593	0.5435
261.95	0.5418
262.306	0.5403
262.663	0.5352
263.02	0.5365
263.376	0.5331
263.733	0.5316
264.089	0.5309
264.445	0.5283
264.802	0.5253
265.158	0.523
265.514	0.5221
265.87	0.5194
266.226	0.5159
266.581	0.5146
266.937	0.5118
267.293	0.5104
267.648	0.5082
268.004	0.5052
268.359	0.5039
268.714	0.4989
269.07	0.4978
269.425	0.4947
269.78	0.4937
270.135	0.4913
270.49	0.489
270.844	0.4876
271.199	0.4844
271.554	0.4827
271.908	0.4794
272.263	0.4765
272.617	0.4741
272.972	0.4705
273.326	0.4696
273.68	0.4666
274.034	0.4642
274.388	0.4611
274.742	0.4572
275.096	0.455
275.45	0.4531
275.803	0.4494
276.157	0.4459
276.51	0.4426
276.864	0.4407
277.217	0.4374
277.571	0.4333
277.924	0.432
278.277	0.4282
278.63	0.4244
278.983	0.4217
279.336	0.4195
279.688	0.4152
280.041	0.4119
280.394	0.4076
280.746	0.4059
281.099	0.4012
281.451	0.3969
281.803	0.3939
282.156	0.3919
282.508	0.3877
282.86	0.3839
283.212	0.3797
283.564	0.3759
283.916	0.3732
284.267	0.3696
284.619	0.3664
284.971	0.3622
285.322	0.3593
285.673	0.355
286.025	0.3529
286.376	0.3476
286.727	0.3436
287.078	0.3415
287.429	0.3379
287.78	0.3334
288.131	0.3291
288.482	0.325
288.833	0.323
289.183	0.3187
289.534	0.3151
289.884	0.3113
290.235	0.3075
290.585	0.3043
290.935	0.3001
291.285	0.2954
291.635	0.2937
291.985	0.2889
292.335	0.2857
292.685	0.2816
293.035	0.2784
293.384	0.2742
293.734	0.2709
294.083	0.2669
294.433	0.2633
294.782	0.2594
295.131	0.2564
295.48	0.2535
295.829	0.2503
296.179	0.2461
296.527	0.2425
296.876	0.2396
297.225	0.2375
297.574	0.2329
297.922	0.2304
298.271	0.2268
298.619	0.2234
298.968	0.2213
299.316	0.2177
299.664	0.215
300.012	0.2123
300.36	0.2092
300.708	0.2061
301.056	0.2046
301.404	0.2015
301.752	0.1984
302.099	0.1965
302.447	0.1945
302.794	0.1919
303.142	0.1891
303.489	0.1869
303.836	0.1851
304.183	0.1832
304.531	0.1817
304.878	0.1797
305.224	0.1773
305.571	0.1766
305.918	0.1745
306.265	0.1728
306.611	0.1713
306.958	0.17
307.304	0.1682
307.651	0.1668
307.997	0.1659
308.343	0.1646
308.689	0.1635
309.035	0.1622
309.381	0.1611
309.727	0.1599
310.073	0.1599
310.419	0.1588
310.764	0.158
311.11	0.1573
311.455	0.157
311.801	0.1557
312.146	0.1553
312.491	0.1554
312.837	0.1549
313.182	0.1547
313.527	0.1545
313.872	0.1534
314.216	0.1532
314.561	0.1532
314.906	0.1531
315.251	0.1534
315.595	0.153
315.94	0.1527
316.284	0.1528
316.628	0.1525
316.972	0.1523
317.317	0.1528
317.661	0.1537
318.005	0.1541
318.348	0.1538
318.692	0.1545
319.036	0.1545
319.38	0.1547
319.723	0.1555
320.067	0.1555
320.41	0.1562
320.754	0.1571
321.097	0.1574
321.44	0.1579
321.783	0.1585
322.126	0.1597
322.469	0.1607
322.812	0.1613
323.155	0.1616
323.498	0.1624
323.84	0.1635
324.183	0.1644
324.525	0.165
324.868	0.1661
325.21	0.167
325.552	0.168
325.894	0.1688
326.236	0.1695
326.578	0.1711
326.92	0.1721
327.262	0.1728
327.604	0.1742
327.946	0.1751
328.287	0.1765
328.629	0.1771
328.97	0.178
329.312	0.179
329.653	0.1804
329.994	0.1811
330.335	0.1827
330.676	0.1837
331.017	0.1845
331.358	0.1858
331.699	0.1868
332.04	0.1887
332.38	0.1895
332.721	0.1914
333.061	0.1911
333.402	0.1925
333.742	0.1946
334.083	0.1958
334.423	0.1957
334.763	0.1972
335.103	0.1984
335.443	0.1985
335.783	0.2001
336.123	0.2001
336.462	0.2015
336.802	0.2025
337.141	0.2031
337.481	0.2046
337.82	0.2046
338.16	0.2053
338.499	0.207
338.838	0.2073
339.177	0.2089
339.516	0.2094
339.855	0.2104
340.194	0.2109
340.533	0.212
340.872	0.2128
341.21	0.2145
341.549	0.2145
341.887	0.2153
342.226	0.2157
342.564	0.2152
342.902	0.2157
343.24	0.2156
343.578	0.2155
343.916	0.2164
344.254	0.2162
344.592	0.2166
344.93	0.2172
345.268	0.2173
345.605	0.2167
345.943	0.2178
346.28	0.2172
346.618	0.2175
346.955	0.2178
347.292	0.2177
347.629	0.2179
347.966	0.2183
348.303	0.2183
348.64	0.2184
348.977	0.2175
349.314	0.2182
349.65	0.2184
349.987	0.218
350.324	0.2167
350.66	0.2171
350.996	0.2168
351.333	0.2154
351.669	0.2145
352.005	0.2153
352.341	0.2139
352.677	0.2133
353.013	0.212
353.349	0.2114
353.685	0.2105
354.02	0.2092
354.356	0.2089
354.691	0.2076
355.027	0.2069
355.362	0.2051
355.697	0.2051
356.033	0.2047
356.368	0.2032
356.703	0.202
357.038	0.2013
357.373	0.201
357.707	0.2008
358.042	0.1994
358.377	0.1983
358.711	0.1964
359.046	0.1963
359.38	0.1953
359.715	0.1944
360.049	0.1933
360.383	0.1924
360.717	0.1913
361.051	0.1888
361.385	0.188
361.719	0.1866
362.053	0.1851
362.387	0.1831
362.72	0.1813
363.054	0.1797
363.387	0.1787
363.721	0.1773
364.054	0.1749
364.387	0.1735
364.721	0.1729
365.054	0.1701
365.387	0.1687
365.72	0.1673
366.053	0.166
366.385	0.1642
366.718	0.1637
367.051	0.1614
367.383	0.1607
367.716	0.159
368.048	0.1581
368.381	0.1567
368.713	0.1557
369.045	0.1548
369.377	0.1525
369.709	0.1519
370.041	0.1503
370.373	0.1494
370.705	0.1479
371.037	0.146
371.368	0.1445
371.7	0.1439
372.031	0.1426
372.363	0.1399
372.694	0.1389
373.025	0.1366
373.356	0.1348
373.688	0.1329
374.019	0.1312
374.35	0.1293
374.68	0.1276
375.011	0.1254
375.342	0.1239
375.673	0.1225
376.003	0.1209
376.334	0.1194
376.664	0.1175
376.995	0.1162
377.325	0.1154
377.655	0.1139
377.985	0.1124
378.315	0.1116
378.645	0.1099
378.975	0.1081
379.305	0.1071
379.635	0.1068
379.964	0.1051
380.294	0.1039
380.623	0.1024
380.953	0.1017
381.282	0.1007
381.611	0.099
381.941	0.0985
382.27	0.0967
382.599	0.0954
382.928	0.0941
383.257	0.0934
383.585	0.0923
383.914	0.0901
384.243	0.0888
384.571	0.0871
384.9	0.0856
385.228	0.0842
385.557	0.083
385.885	0.082
386.213	0.0805
386.541	0.0787
386.869	0.0776
387.197	0.0755
387.525	0.0741
387.853	0.0732
388.181	0.0723
388.508	0.0711
388.836	0.0705
389.164	0.0687
389.491	0.0681
389.818	0.0668
390.146	0.0659
390.473	0.0645
390.8	0.0641
391.127	0.0623
391.454	0.062
391.781	0.0612
392.108	0.06
392.435	0.0589
392.761	0.0574
393.088	0.057
393.415	0.057
393.741	0.0566
394.067	0.0557
394.394	0.0553
394.72	0.0541
395.046	0.0535
395.372	0.0523
395.698	0.0511
396.024	0.0511
396.35	0.0499
396.676	0.0502
397.001	0.0493
397.327	0.0479
397.653	0.0469
397.978	0.0466
398.303	0.0452
398.629	0.0446
398.954	0.0445
399.279	0.0441
399.604	0.0435
399.929	0.0427
400.254	0.0425
400.579	0.0415
400.904	0.041
401.229	0.041
401.553	0.0396
401.878	0.0392
402.202	0.0394
402.527	0.0386
402.851	0.0382
403.175	0.0381
403.5	0.0376
403.824	0.038
404.148	0.0373
404.472	0.0371
404.796	0.0366
405.119	0.0363
405.443	0.0367
405.767	0.035
406.09	0.0353
406.414	0.0361
406.737	0.0352
407.061	0.0352
407.384	0.0353
407.707	0.0342
408.03	0.0348
408.353	0.0347
408.676	0.0346
408.999	0.0341
409.322	0.0346
409.645	0.035
409.968	0.0341
410.29	0.0346
410.613	0.0338
410.935	0.0343
411.258	0.0345
411.58	0.0342
411.902	0.0342
412.224	0.0343
412.546	0.0336
412.868	0.0335
413.19	0.0343
413.512	0.0341
413.834	0.0342
414.156	0.0344
414.477	0.0342
414.799	0.0338
415.121	0.0343
415.442	0.0343
415.763	0.0347
416.085	0.0339
416.406	0.0348
416.727	0.0347
417.048	0.0346
417.369	0.0341
417.69	0.0338
418.011	0.0349
418.331	0.0345
418.652	0.0347
418.973	0.0347
419.293	0.0343
419.614	0.0346
419.934	0.0343
420.254	0.0346
420.574	0.0342
420.895	0.0347
421.215	0.0339
421.535	0.0339
421.855	0.0344
422.174	0.0343
422.494	0.0342
422.814	0.0349
423.134	0.0347
423.453	0.0351
423.773	0.0353
424.092	0.0347
424.411	0.0348
424.731	0.0351
425.05	0.0351
425.369	0.0352
425.688	0.0352
426.007	0.0356
426.326	0.0355
426.644	0.0362
426.963	0.036
427.282	0.0361
427.6	0.0354
427.919	0.036
428.237	0.0357
428.556	0.0361
428.874	0.0357
429.192	0.0358
429.51	0.036
429.828	0.0357
430.146	0.0366
430.464	0.0361
430.782	0.0362
431.1	0.0366
431.418	0.0361
431.735	0.0362
432.053	0.0369
432.37	0.0365
432.688	0.0366
433.005	0.0366
433.322	0.037
433.639	0.037
433.957	0.0368
434.274	0.0369
434.591	0.0366
434.907	0.0372
435.224	0.0367
435.541	0.0376
435.858	0.0383
436.174	0.0375
436.491	0.0368
436.807	0.0369
437.124	0.0365
437.44	0.0368
437.756	0.0364
438.072	0.036
438.388	0.0369
438.704	0.0367
439.02	0.0365
439.336	0.0366
439.652	0.0361
439.968	0.0368
440.283	0.0362
440.599	0.0368
440.914	0.0364
441.23	0.0365
441.545	0.0366
441.86	0.0366
442.175	0.0373
442.491	0.0359
442.806	0.0364
443.121	0.037
443.435	0.0359
443.75	0.0362
444.065	0.036
444.38	0.0363
444.694	0.0358
445.009	0.0357
445.323	0.0365
445.638	0.0361
445.952	0.0364
446.266	0.036
446.58	0.0366
446.894	0.0361
447.208	0.037
447.522	0.0362
447.836	0.035
448.15	0.0351
448.464	0.0356
448.777	0.0357
449.091	0.035
449.404	0.0356
449.718	0.0361
450.031	0.035
450.345	0.0347
450.658	0.0349
450.971	0.0347
451.284	0.0346
451.597	0.0355
451.91	0.0352
452.223	0.0345
452.535	0.0355
452.848	0.0343
453.161	0.0348
453.473	0.0355
453.786	0.0353
454.098	0.0349
454.411	0.0339
454.723	0.0336
455.035	0.0338
455.347	0.0343
455.659	0.0347
455.971	0.0348
456.283	0.0349
456.595	0.0342
456.907	0.0335
457.218	0.0339
457.53	0.034
457.841	0.0326
458.153	0.0326
458.464	0.0324
458.776	0.0318
459.087	0.0325
459.398	0.0322
459.709	0.0318
460.02	0.0315
460.331	0.032
460.642	0.0316
460.953	0.0318
461.263	0.0318
461.574	0.031
461.885	0.0319
462.195	0.0317
462.506	0.0315
462.816	0.0311
463.126	0.0298
463.437	0.0306
463.747	0.0297
464.057	0.0304
464.367	0.0308
464.677	0.0295
464.987	0.0301
465.296	0.029
465.606	0.0295
465.916	0.0291
466.225	0.0285
466.535	0.0287
466.844	0.028
467.154	0.0278
467.463	0.028
467.772	0.0288
468.081	0.0277
468.39	0.0276
468.699	0.0278
469.008	0.0277
469.317	0.0269
469.626	0.0276
469.935	0.0277
470.243	0.0273
470.552	0.0279
470.86	0.0278
471.169	0.0271
471.477	0.0272
471.785	0.0273
472.093	0.0266
472.402	0.0258
472.71	0.0256
473.018	0.0253
473.326	0.0251
473.633	0.025
473.941	0.025
474.249	0.0248
474.556	0.0243
474.864	0.0242
475.171	0.0244
475.479	0.0237
475.786	0.0248
476.094	0.0241
476.401	0.0237
476.708	0.0235
477.015	0.0242
477.322	0.0238
477.629	0.0229
477.936	0.0225
478.242	0.0228
478.549	0.0226
478.856	0.022
479.162	0.0227
479.469	0.0222
479.775	0.0222
480.081	0.0211
480.388	0.0218
480.694	0.0213
481	0.0213
481.306	0.0219
481.612	0.0206
481.918	0.0202
482.224	0.0209
482.53	0.0201
482.835	0.0201
483.141	0.0189
483.446	0.019
483.752	0.0198
484.057	0.018
484.363	0.0186
484.668	0.0182
484.973	0.0187
485.278	0.0179
485.583	0.0176
485.888	0.0168
486.193	0.0169
486.498	0.0183
486.803	0.0188
487.107	0.0173
487.412	0.0167
487.717	0.0162
488.021	0.0171
488.325	0.0165
488.63	0.0155
488.934	0.0163
489.238	0.0162
489.542	0.016
489.846	0.0145
490.15	0.0165
490.454	0.0158
490.758	0.0151
491.062	0.0158
491.366	0.0146
491.669	0.0148
491.973	0.0155
492.276	0.0153
492.58	0.0138
492.883	0.0146
493.186	0.0146
493.489	0.0142
493.792	0.0139
494.096	0.0143
494.399	0.0138
494.701	0.0137
495.004	0.0137
495.307	0.0127
495.61	0.0131
495.912	0.0128
496.215	0.0117
496.517	0.0125
496.82	0.0124
497.122	0.0126
497.424	0.0118
497.727	0.0117
498.029	0.0115
498.331	0.0125
498.633	0.0121
498.935	0.0122
499.237	0.0114
499.538	0.0105
499.84	0.0111
500.142	0.0115
500.443	0.0113
500.745	0.0113
501.046	0.0109
501.348	0.0095
501.649	0.0109
501.95	0.0101
502.251	0.0104
502.552	0.0092
502.853	0.0098
503.154	0.01
503.455	0.009
503.756	0.0093
504.057	0.0089
504.357	0.0087
504.658	0.0086
504.958	0.0084
505.259	0.0094
505.559	0.0088
505.859	0.0084
506.16	0.009
506.46	0.0086
506.76	0.0088
507.06	0.0075
507.36	0.0091
507.66	0.0085
507.96	0.0077
508.259	0.0074
508.559	0.007
508.859	0.0075
509.158	0.0074
509.457	0.0073
509.757	0.0079
510.056	0.0071
510.355	0.0071
510.655	0.0061
510.954	0.007
511.253	0.0077
511.552	0.0074
511.851	0.0065
512.149	0.0057
512.448	0.0058
512.747	0.0064
513.045	0.0047
513.344	0.007
513.642	0.0072
513.941	0.0058
514.239	0.0061
514.537	0.0055
514.836	0.006
515.134	0.0054
515.432	0.0064
515.73	0.0072
516.028	0.0049
516.326	0.0057
516.623	0.0054
516.921	0.0053
517.219	0.0064
517.516	0.0056
517.814	0.0058
518.111	0.0068
518.409	0.0066
518.706	0.0061
519.003	0.0059
519.3	0.0048
519.597	0.0043
519.894	0.0054
520.191	0.0063
520.488	0.0055
520.785	0.0046
521.082	0.0046
521.378	0.0059
521.675	0.0036
521.971	0.0049
522.268	0.0037
522.564	0.0039
522.861	0.0041
523.157	0.0039
523.453	0.0046
523.749	0.0041
524.045	0.0061
524.341	0.0049
524.637	0.0036
524.933	0.0038
525.229	0.0043
525.524	0.0036
525.82	0.0044
526.115	0.0039
526.411	0.0036
526.706	0.0034
527.002	0.0038
527.297	0.0022
527.592	0.0044
527.887	0.004
528.182	0.0034
528.477	0.0048
528.772	0.0038
529.067	0.0039
529.362	0.0044
529.657	0.0041
529.951	0.0038
530.246	0.0036
530.54	0.0015
530.835	0.0024
531.129	0.0018
531.423	0.0046
531.718	0.0026
532.012	0.0033
532.306	0.0034
532.6	0.0036
532.894	0.0022
533.188	0.0043
533.482	0.0021
533.775	0.0028
534.069	0.0029
534.363	0.002
534.656	0.0027
534.95	0.0015
535.243	0.0027
535.536	0.0023
535.83	0.0032
536.123	0.0021
536.416	0.002
536.709	0.0023
537.002	0.0039
537.295	0.0026
537.588	0.0028
537.881	0.0021
538.173	0.0026
538.466	0.0029
538.759	0.0022
539.051	0.0025
539.344	0.0023
539.636	0.0029
539.928	0.0025
540.22	0.0024
540.513	0.0026
540.805	0.0028
541.097	0.0021
541.389	0.0025
541.681	0.0024
541.972	0.0032
542.264	0.0024
542.556	0.0024
542.847	0.0029
543.139	0.0033
543.431	0.0038
543.722	0.0029
544.013	0.0044
544.305	0.0042
544.596	0.005
544.887	0.004
545.178	0.0029
545.469	0.0032
545.76	0.0015
546.051	0.0042
546.342	0.0043
546.632	0.0024
546.923	0.0032
547.214	0.0029
547.504	0.0031
547.795	0.0025
548.085	0.0031
548.375	0.0023
548.666	0.0028
548.956	0.0023
549.246	0.003
549.536	0.0027
549.826	0.0032
550.116	0.0033
550.406	0.0035
550.695	0.0037
550.985	0.0026
551.275	0.0037
551.564	0.0028
551.854	0.0023
552.143	0.0025
552.433	0.0021
552.722	0.0025
553.011	0.002
553.3	0.0032
553.589	0.0025
553.879	0.0022
554.167	0.003
554.456	0.0022
554.745	0.0025
555.034	0.0016
555.323	0.0008
555.611	0.0012
555.9	0.0033
556.188	0.0018
556.477	0.0028
556.765	0.0002
557.053	0.0022
557.342	0.0013
557.63	0.0025
557.918	0.0019
558.206	0.0026
558.494	0.003
558.782	0.0021
559.069	0.0021
559.357	0.0024
559.645	0.0013
559.932	0.0022
560.22	0.0037
560.507	0.0027
560.795	0.002
561.082	0.0023
561.37	0.0022
561.657	0.0023
561.944	0.0029
562.231	0.0028
562.518	0.0014
562.805	0.0031
563.092	0.0031
563.379	0.003
563.665	0.0027
563.952	0.0029
564.239	0.0035
564.525	0.0029
564.811	0.0041
565.098	0.0039
565.384	0.0031
565.67	0.0033
565.957	0.0032
566.243	0.0024
566.529	0.0031
566.815	0.0041
567.101	0.0027
567.387	0.0024
567.672	0.002
567.958	0.0019
568.244	0.003
568.529	0.003
568.815	0.0018
569.1	0.002
569.386	0.0014
569.671	0.0021
569.956	0.0016
570.242	0.0015
570.527	0.003
570.812	0.0032
571.097	0.0015
571.382	0.0011
571.666	0.0018
571.951	0.002
572.236	0.0025
572.521	0.0021
572.805	0.0028
573.09	0.0022
573.374	0.0015
573.659	0.0011
573.943	0.0022
574.227	0.0017
574.511	0.0018
574.795	0.0022
575.079	0.0021
575.363	0.0012
575.647	0.0022
575.931	0.0023
576.215	0.002
576.499	0.0007
576.782	0.0018
577.066	0.0021
577.349	0.0026
577.633	0.0026
577.916	0.0016
578.2	0.0024
578.483	0.0031
578.766	0.0022
579.049	0.0025
579.332	0.0031
579.615	0.002
579.898	0.0017
580.181	0.0029
580.464	0.0021
580.746	0.0019
581.029	0.0023
581.312	0.0016
581.594	0.0002
581.877	0.0021
582.159	0.0035
582.441	0.0027
582.724	0.0026
583.006	0.0029
583.288	0.0015
583.57	0.0026
583.852	0.0022
584.134	0.0016
584.416	0.003
584.697	0.002
584.979	0.0014
585.261	0.0018
585.542	0.0021
585.824	0.0025
586.105	0.0024
586.387	0.0014
586.668	0.0021
586.949	0.0021
587.231	0.0013
587.512	0.0023
587.793	0.0021
588.074	0.0023
588.355	0.0026
588.636	0.0026
588.916	0.0025
589.197	0.004
589.478	0.0028
589.758	0.0014
590.039	0.0018
590.319	0.0028
590.6	0.0028
590.88	0.0025
591.16	0.0029
591.441	0.0021
591.721	0.003
592.001	0.0023
592.281	0.0029
592.561	0.0031
592.841	0.0017
593.12	0.0013
593.4	0.0021
593.68	0.0025
593.959	0.0025
594.239	0.0031
594.518	0.0021
594.798	0.0019
595.077	0.0016
595.356	0.002
595.636	0.0021
595.915	0.0033
596.194	0.0033
596.473	0.0021
596.752	0.0018
597.031	0.0015
597.31	0.0014
597.588	0.0019
597.867	0.0011
598.146	0.0021
598.424	0.0017
598.703	0.0014
598.981	0.0008
599.259	0.0018
599.538	0.0035
599.816	0.003
600.094	0.0018
600.372	0.0021
600.65	0.0031
600.928	0.0032
601.206	0.0034
601.484	0.0035
601.762	0.0032
602.04	0.0016
602.317	0.002
602.595	0.002
602.872	0.002
603.15	0.0023
603.427	0.001
603.704	0.0011
603.982	0.0017
604.259	0.0013
604.536	0.0015
604.813	0.0019
605.09	0.0024
605.367	0.0013
605.644	0.001
605.921	0.0019
606.197	0.0013
606.474	0.0025
606.751	0.0024
607.027	0.0022
607.304	0.0012
607.58	0.0017
607.856	0.0017
608.133	0.0022
608.409	0.0027
608.685	0.0008
608.961	0.003
609.237	0.0026
609.513	0.0026
609.789	0.0024
610.065	0.0014
610.341	0.0018
610.616	0.0028
610.892	0.0041
611.167	0.0032
611.443	0.0028
611.718	0.0016
611.994	0.0019
612.269	0.0025
612.544	0.0021
612.819	0.0013
613.095	0.0021
613.37	0.0016
613.645	0.0014
613.919	0.0019
614.194	0.0025
614.469	0.0019
614.744	0.0007
615.019	0.0015
615.293	0.0014
615.568	0.0015
615.842	0.0015
616.116	0.0018
616.391	0.0013
616.665	0.0022
616.939	0.0017
617.213	0.0016
617.488	0.0016
617.762	0.0024
618.035	0.0017
618.309	0.0019
618.583	0.0015
618.857	0.0026
619.131	0.0026
619.404	0.0018
619.678	0.0023
619.951	0.001
620.225	0.0005
620.498	0.002
620.771	0.0015
621.045	0.0028
621.318	0.0016
621.591	0.0018
621.864	0.0004
622.137	0.0001
622.41	0.0002
622.683	0.0006
622.956	0.0014
623.228	0.0015
623.501	0.0025
623.774	0.0032
624.046	0.0022
624.319	0.0019
624.591	-0
624.863	0.0015
625.136	0.002
625.408	0.0028
625.68	0.0025
625.952	0.0025
626.224	0.0031
626.496	0.0027
626.768	0.0016
627.04	0.0026
627.311	0.0018
627.583	0.0023
627.855	0.0025
628.126	0.0019
628.398	0.0028
628.669	0.0023
628.941	0.0009
629.212	0.0006
629.483	0.0013
629.755	0.0027
630.026	0.0027
630.297	0.002
630.568	0.0009
630.839	0.001
631.11	0
631.38	-0.0002
631.651	0
631.922	-0.0005
632.192	-0.0008
632.463	-0.0009
632.733	-0.0002
633.004	-0.0001
633.274	-0.0008
633.545	-0.0004
633.815	0.0015
634.085	0.0014
634.355	0.0009
634.625	0.0025
634.895	0.0013
635.165	0.0009
635.435	0.0013
635.705	0.0017
635.974	0.0007
636.244	0.0016
636.514	0.0022
636.783	0.0017
637.053	0.0038
637.322	0.0016
637.591	0.0029
637.861	0.0014
638.13	0.0032
638.399	0.0022
638.668	0.0023
638.937	0.0008
639.206	0.0025
639.475	0.0025
639.744	0.0025
640.013	0.0038
640.281	0.0035
640.55	0.0026
640.819	0.0023
641.087	0.0029
641.356	0.0018
641.624	0.0028
641.892	0.0018
642.161	0.0026
642.429	0.0042
642.697	0.0022
642.965	0.0027
643.233	0.003
643.501	0.0016
643.769	0.0014
644.037	0.0014
644.305	0.0014
644.572	-0
644.84	0.0003
645.108	0.0017
645.375	0.0009
645.643	0.0019
645.91	0.0013
646.177	0.0028
646.445	0.0049
646.712	0.0049
646.979	0.0052
647.246	0.0049
647.513	0.0055
647.78	0.0047
648.047	0.0044
648.314	0.0024
648.58	0.0027
648.847	0.0023
649.114	0.001
649.38	0.0008
649.647	-0
649.913	0.0004
650.18	0.0017
650.446	0.002
650.712	0.0025
650.978	0.0037
651.245	0.004
651.511	0.0036
651.777	0.0024
652.043	0.0027
652.309	0.0025
652.574	0.0027
652.84	0.0024
653.106	0.0008
653.371	0.0004
653.637	0.0007
653.903	0.0021
654.168	0.0013
654.433	0.003
654.699	0.0031
654.964	0.0031
655.229	0.0026
655.494	0.0017
655.759	-0.0012
656.024	0.0007
656.289	-0
656.554	0.0038
656.819	0.0023
657.084	0.0023
657.349	0.0025
657.613	0.0035
657.878	0.0023
658.142	0.002
658.407	0.0024
658.671	0.0014
658.936	-0
659.2	-0.0001
659.464	0.0006
659.728	0.0004
659.992	0.0017
660.256	0.0011
660.52	0.0003
660.784	0.0004
661.048	0.0001
661.312	0.0001
661.575	0.0001
661.839	-0.0012
662.103	-0.0006
662.366	-0.0015
662.63	-0.0002
662.893	-0.0001
663.156	-0.0008
663.42	-0.0003
663.683	0.0002
663.946	0.0006
664.209	0.0029
664.472	0.0022
664.735	0.0015
664.998	0.0006
665.261	0.0007
665.524	-0.0001
665.786	0.0002
666.049	0.0012
666.312	0.0007
666.574	0.0005
666.837	0.0006
667.099	-0.0004
667.361	0.0002
667.624	-0.0008
667.886	-0.0006
668.148	0.001
668.41	0.0024
668.672	0.0013
668.934	0.0017
669.196	0.0007
669.458	0.0015
669.72	0.0012
669.982	0.0014
670.243	0.0014
670.505	0.001
670.766	0.0009
671.028	0.001
671.289	0.0016
671.551	0.001
671.812	-0.0005
672.073	0.0013
672.334	0.0006
672.596	0.0003
672.857	-0.0006
673.118	0.0003
673.379	0.0005
673.639	-0.0002
673.9	0.0009
674.161	-0.0007
674.422	-0.0015
674.682	-0.0007
674.943	-0.001
675.203	0.0009
675.464	0.0001
675.724	0.0004
675.985	0.001
676.245	0.0025
676.505	0.0026
676.765	0.0028
677.025	0.0033
677.285	0.0023
677.545	0.0033
677.805	0.0029
678.065	0.0026
678.325	0.0027
678.585	0.0029
678.844	0.0021
679.104	0.0015
679.363	0.001
679.623	0.0015
679.882	0.0021
680.142	0.0028
680.401	0.0027
680.66	0.0035
680.919	0.0028
681.178	0.005
681.437	0.0041
681.696	0.0027
681.955	0.0041
682.214	0.0038
682.473	0.0042
682.732	0.003
682.99	0.0028
683.249	0.0039
683.508	0.0038
683.766	0.0025
684.024	0.0028
684.283	0.0032
684.541	0.0027
684.799	0.0034
685.058	0.0022
685.316	0.0026
685.574	0.0029
685.832	0.004
686.09	0.0038
686.348	0.0048
686.606	0.0045
686.863	0.0043
687.121	0.005
687.379	0.004
687.636	0.0038
687.894	0.0043
688.151	0.0051
688.409	0.0033
688.666	0.002
688.923	0.0037
689.181	0.0019
689.438	0.0021
689.695	0.0016
689.952	0.0012
690.209	0.0015
690.466	0.0009
690.723	0.0019
690.979	0.0012
691.236	0.0007
691.493	0.0006
691.75	0.0026
692.006	0.0034
692.263	0.0033
692.519	0.0035
692.775	0.003
693.032	0.0029
693.288	0.0031
693.544	0.0033
693.8	0.0035
694.056	0.003
694.313	0.003
694.568	0.0031
694.824	0.0033
695.08	0.0031
695.336	0.0031
695.592	0.0022
695.847	0.0037
696.103	0.0033
696.359	0.0026
696.614	0.0018
696.869	0.0011
697.125	-0.0011
697.38	-0.0001
697.635	-0.0003
697.891	0
698.146	-0.0009
698.401	0.0001
698.656	-0.0012
698.911	0.0002
699.166	-0.0013
699.42	0.0003
699.675	-0.0004
699.93	-0.0018
700.185	-0.0008
700.439	0.0008
700.694	0.0004
700.948	0.0008
701.203	0.0014
701.457	0.0007
701.711	0.0002
701.965	-0.001
702.22	-0.0013
702.474	0.0003
702.728	0
702.982	-0.0001
703.236	0.0007
703.49	0.0012
703.743	0.0005
703.997	0.0014
704.251	0.0012
704.504	0.0014
704.758	0.001
705.012	0.0008
705.265	0.0004
705.518	0.0004
705.772	-0.0008
706.025	-0.0001
706.278	-0.0003
706.531	-0.0011
706.785	-0.002
707.038	-0.0006
707.291	-0.0014
707.543	-0.0012
707.796	-0.0007
708.049	-0.0016
708.302	-0.0019
708.555	-0.0012
708.807	0.0005
709.06	-0.0006
709.312	-0.0025
709.565	-0.0018
709.817	-0.0023
710.069	-0.0016
710.322	-0.0013
710.574	-0.0013
710.826	-0.0016
711.078	-0.0011
711.33	-0.0016
711.582	-0.0023
711.834	-0.0006
712.086	-0.0006
712.338	0.0004
712.59	-0.0001
712.841	-0.0004
713.093	0.0002
713.344	-0.0001
713.596	0.0003
713.847	0.0011
714.099	0.0003
714.35	0.001
714.601	0.0007
714.853	0.0021
715.104	0.0018
715.355	-0.0001
715.606	0.0018
715.857	0.0018
716.108	0.0032
716.359	0.0025
716.609	0.0034
716.86	0.002
717.111	0.0005
717.361	-0.0009
717.612	-0
717.863	-0.001
718.113	-0.0009
718.363	-0.0013
718.614	0.0004
718.864	0.0006
719.114	0.0001
719.364	-0.001
719.614	-0.0007
719.865	-0.0008
720.114	-0.0005
720.364	0.0003
720.614	0.0011
720.864	0.0017
721.114	0.0015
721.364	0.0021
721.613	0.0018
721.863	0.0022
722.112	0.0027
722.362	0.0024
722.611	0.0023
722.86	0.0011
723.11	0.0006
723.359	0.0007
723.608	0.0017
723.857	0.0026
724.106	0.0044
724.355	0.0045
724.604	0.0048
724.853	0.0038
725.102	0.0032
725.351	0.0017
725.599	0.0019
725.848	0.0028
726.097	0.0027
726.345	0.0022
726.594	0.0021
726.842	0.0012
727.09	0.0004
727.339	0.0004
727.587	-0.0002
727.835	-0.001
728.083	-0.0009
728.331	-0.0015
728.579	-0.002
728.827	-0.0016
729.075	-0.0016
729.323	-0.0012
729.571	-0.0006
729.818	-0.0001
730.066	0.0002
730.314	-0.0004
730.561	-0.0009
730.809	-0.0017
731.056	-0.0013
731.303	-0.0008
731.551	-0.0008
731.798	-0
732.045	0.0002
732.292	-0.0004
732.539	-0.0005
732.786	0.0005
733.033	0.0007
733.28	0.0009
733.527	0.0033
733.774	0.0014
734.021	0.003
734.267	0.0034
734.514	0.0034
734.76	0.0042
735.007	0.0066
735.253	0.0073
735.5	0.0056
735.746	0.005
735.992	0.0041
736.238	0.004
736.485	0.0045
736.731	0.0042
736.977	0.0034
737.223	0.003
737.469	0.0036
737.715	0.0038
737.96	0.0048
738.206	0.0038
738.452	0.0052
738.697	0.0051
738.943	0.0045
739.189	0.0016
739.434	-0.0003
739.679	0.0001
739.925	-0.0003
740.17	0.0002
740.415	-0.0005
740.66	0.0011
740.906	0.0014
741.151	0.0015
741.396	0.0013
741.641	0.0039
741.886	0.0043
742.13	0.0041
742.375	0.0057
742.62	0.0053
742.865	0.0052
743.109	0.005
743.354	0.0053
743.598	0.0045
743.843	0.0043
744.087	0.0046
744.331	0.0049
744.576	0.0045
744.82	0.0045
745.064	0.0043
745.308	0.0037
745.552	0.0041
745.796	0.0039
746.04	0.0034
746.284	0.0023
746.528	0.0018
746.771	0.0026
747.015	0.0018
747.259	0.0017
747.502	0.0013
747.746	0.0028
747.989	0.0031
748.233	0.0042
748.476	0.0031
748.719	0.0025
748.963	0.0034
749.206	0.0019
749.449	0.0025
749.692	0.0025
749.935	0.0035
750.178	0.0008
750.421	0.0022
750.664	0.0028
750.906	0.0029
751.149	0.0022
751.392	0.0013
751.635	0.0012
751.877	0
752.12	-0.0005
752.362	0.0006
752.604	-0.0004
752.847	0.0012
753.089	0.0016
753.331	0.0011
753.573	0
753.816	0.0009
754.058	0.0014
754.3	0.0023
754.542	0.0018
754.783	0.0019
755.025	0.0019
755.267	0.0005
755.509	0.0004
755.75	0.0003
755.992	0.0024
756.234	0.0012
756.475	0.0001
756.716	0
756.958	-0.0001
757.199	0.0006
757.44	0.0016
757.682	0.0008
757.923	0.0006
758.164	0.0009
758.405	0.0013
758.646	0.0009
758.887	0.0017
759.128	0.0012
759.369	-0.0007
759.609	-0.0001
759.85	-0.0004
760.091	0.0008
760.331	-0.0001
760.572	0
760.812	-0.001
761.053	-0.0011
761.293	-0.001
761.533	-0.0005
761.774	-0.0002
762.014	-0
762.254	-0.0007
762.494	-0.0016
762.734	-0.0013
762.974	-0.0011
763.214	-0.0018
763.454	-0.0014
763.694	-0.0003
763.933	-0.0005
764.173	0.0007
764.413	-0.001
764.652	-0.0005
764.892	0.0001
765.131	0.0002
765.371	0.0006
765.61	0.002
765.849	0.0015
766.089	0.002
766.328	0.0031
766.567	0.0023
766.806	0.0026
767.045	0.0028
767.284	0.0027
767.523	0.0029
767.762	0.0026
768.001	0.0023
768.239	0.0014
768.478	0.0008
768.717	0.0016
768.955	0.0012
769.194	0.0002
769.432	0.0011
769.671	0.0012
769.909	0.0009
770.148	0.0013
770.386	0.0016
770.624	0.0011
770.862	0.0014
771.1	0.0015
771.338	0.0005
771.576	0.0014
771.814	0.0013
772.052	0.0009
772.29	0.0012
772.528	0.0018
772.765	0.0017
773.003	0.0024
773.24	0.0024
773.478	0.0023
773.716	0.0038
773.953	0.0038
774.19	0.0041
774.428	0.0037
774.665	0.0037
774.902	0.0033
775.139	0.0017
775.376	0.0026
775.613	0.0026
775.85	0.0028
776.087	0.0019
776.324	0.0025
776.561	0.0029
776.798	0.0039
777.034	0.0053
777.271	0.0068
777.508	0.0071
777.744	0.0072
777.981	0.0052
778.217	0.0046
778.454	0.0045
778.69	0.0036
778.926	0.0038
779.162	0.0036
779.399	0.0028
779.635	0.0028
779.871	0.0021
780.107	0.0027
780.343	0.0025
780.579	0.003
780.814	0.0028
781.05	0.0021
781.286	0.0024
781.522	0.0026
781.757	0.004
781.993	0.0033
782.228	0.0034
782.464	0.0031
782.699	0.0017
782.934	0.0011
783.17	0.0015
783.405	0.0008
783.64	0.0008
783.875	0.0022
784.11	0.0028
784.345	0.0037
784.58	0.0036
784.815	0.0036
785.05	0.0042
785.285	0.0029
785.52	0.0022
785.754	0.002
785.989	0.0015
786.223	0.0004
786.458	0.0006
786.692	-0.0004
786.927	-0.0007
787.161	-0.0005
787.396	-0.001
787.63	-0.0014
787.864	-0.0014
788.098	-0.0018
788.332	-0.0001
788.566	-0.0005
788.8	-0
789.034	-0.0003
789.268	0.0003
789.502	0.0007
789.736	0.0017
789.969	0.0027
790.203	0.0032
790.437	0.0017
790.67	0.0014
790.904	0.0013
791.137	-0.0005
791.37	-0.0007
791.604	-0.0008
791.837	-0.0006
792.07	-0.0009
792.303	0.0002
792.537	-0.0003
792.77	-0.0003
793.003	-0.0002
793.236	-0.0013
793.469	-0.001
793.701	-0.0001
793.934	-0.0004
794.167	-0.0009
794.4	-0.0003
794.632	0.0002
794.865	0
795.097	0.0011
795.33	0.0017
795.562	0.0012
795.795	0.0011
796.027	0.0012
796.259	0.0019
796.491	0.0011
796.724	0.0007
796.956	0.0014
797.188	0.0018
797.42	0.0009
797.652	0.0012
797.883	0.0002
798.115	0
798.347	-0.0005
798.579	-0.0019
798.81	-0.0025
799.042	-0.0024
799.274	-0.0034
799.505	-0.0025
799.737	-0.0036
799.968	-0.002
800.199	-0.0019
800.431	-0.0013
800.662	-0.001
800.893	-0.0006
801.124	-0.0003
801.355	-0.0005
801.586	0.0003
801.817	-0
802.048	-0
802.279	0.0006
802.51	0.0009
802.741	-0
802.971	0.0003
803.202	-0.0001
803.433	-0.0009
803.663	-0.0006
803.894	0.0002
804.124	-0.0007
804.354	-0.0004
804.585	-0.0008
804.815	-0.0004
805.045	-0.0001
805.275	-0.0003
805.506	0.003
805.736	-0.02
805.966	-0.0853
806.196	0.0048
