Data from 03 0.2 mM BQDS 0.4 mM K2Cr2O7 1 M H2SO4 5 min_Absorbance_10-42-42-322.txt Node
Date: Wed Dec 08 10:42:42 EST 2021
User: kwabilab-user
Spectrometer: HDX00518
Trigger mode: 0
Integration Time (sec): 5.000000E-2
Scans to average: 50
Nonlinearity correction enabled: false
Boxcar width: 0
Storing dark spectrum: false
XAxis mode: Wavelengths
Number of Pixels in Spectrum: 2068
>>>>>Begin Spectral Data<<<<<
195.27	0.0037
195.642	0.0391
196.014	0.0465
196.386	-0.0782
196.758	0.0205
197.129	-0.0132
197.501	0.0226
197.872	0.0871
198.244	0.0947
198.615	0.1027
198.986	0.0826
199.357	0.0801
199.728	0.0987
200.099	0.095
200.47	0.085
200.841	0.0806
201.212	0.1009
201.582	0.0799
201.953	0.0961
202.323	0.0906
202.694	0.0809
203.064	0.091
203.434	0.078
203.804	0.092
204.174	0.0853
204.544	0.0983
204.914	0.0845
205.284	0.0862
205.653	0.0985
206.023	0.09
206.393	0.0959
206.762	0.1148
207.131	0.0908
207.501	0.0965
207.87	0.1065
208.239	0.1005
208.608	0.101
208.977	0.1149
209.346	0.1049
209.715	0.0946
210.083	0.1103
210.452	0.1092
210.82	0.1195
211.189	0.1174
211.557	0.121
211.925	0.1343
212.294	0.1566
212.662	0.1497
213.03	0.1485
213.398	0.1331
213.766	0.1507
214.133	0.1676
214.501	0.1736
214.869	0.1871
215.236	0.2081
215.604	0.2113
215.971	0.2217
216.338	0.229
216.705	0.2604
217.072	0.2741
217.439	0.3003
217.806	0.3295
218.173	0.3531
218.54	0.3806
218.907	0.4179
219.273	0.4581
219.64	0.4975
220.006	0.544
220.373	0.5471
220.739	0.5927
221.105	0.6302
221.471	0.6644
221.837	0.6972
222.203	0.7531
222.569	0.7666
222.935	0.8015
223.3	0.8307
223.666	0.8596
224.031	0.889
224.397	0.8929
224.762	0.9221
225.127	0.9431
225.493	0.9602
225.858	0.9635
226.223	0.9796
226.588	0.9906
226.952	0.9813
227.317	1.0007
227.682	0.9933
228.046	0.9878
228.411	0.9911
228.775	0.9964
229.14	0.9921
229.504	0.9802
229.868	0.9753
230.232	0.9725
230.596	0.9744
230.96	0.9617
231.324	0.9481
231.688	0.9353
232.052	0.9352
232.415	0.9234
232.779	0.9182
233.142	0.9099
233.505	0.8985
233.869	0.8901
234.232	0.8831
234.595	0.8725
234.958	0.8654
235.321	0.8525
235.684	0.8423
236.047	0.8332
236.409	0.8234
236.772	0.8149
237.134	0.8095
237.497	0.7994
237.859	0.7911
238.222	0.7839
238.584	0.7763
238.946	0.7668
239.308	0.7576
239.67	0.7505
240.032	0.7447
240.393	0.7389
240.755	0.728
241.117	0.7226
241.478	0.7178
241.84	0.7096
242.201	0.699
242.562	0.6947
242.924	0.6882
243.285	0.6847
243.646	0.6772
244.007	0.6755
244.368	0.6712
244.728	0.664
245.089	0.6608
245.45	0.6559
245.81	0.6528
246.171	0.6458
246.531	0.6405
246.891	0.6382
247.252	0.6355
247.612	0.6331
247.972	0.6287
248.332	0.625
248.692	0.621
249.051	0.619
249.411	0.6179
249.771	0.612
250.13	0.6085
250.49	0.6073
250.849	0.6062
251.208	0.6024
251.568	0.5985
251.927	0.5969
252.286	0.5964
252.645	0.593
253.004	0.5926
253.363	0.5896
253.721	0.5896
254.08	0.5868
254.439	0.5843
254.797	0.5826
255.155	0.5807
255.514	0.5777
255.872	0.5804
256.23	0.5767
256.588	0.5734
256.946	0.5727
257.304	0.5732
257.662	0.5696
258.02	0.5699
258.377	0.5669
258.735	0.5653
259.093	0.5644
259.45	0.5628
259.807	0.5614
260.165	0.5598
260.522	0.5559
260.879	0.5558
261.236	0.554
261.593	0.5523
261.95	0.5495
262.306	0.5499
262.663	0.5455
263.02	0.5458
263.376	0.5419
263.733	0.5411
264.089	0.5398
264.445	0.537
264.802	0.5359
265.158	0.5324
265.514	0.5313
265.87	0.5304
266.226	0.5275
266.581	0.5252
266.937	0.5224
267.293	0.5226
267.648	0.5183
268.004	0.5152
268.359	0.5136
268.714	0.5108
269.07	0.5098
269.425	0.5058
269.78	0.5048
270.135	0.5016
270.49	0.5001
270.844	0.496
271.199	0.495
271.554	0.4925
271.908	0.4872
272.263	0.4868
272.617	0.4834
272.972	0.481
273.326	0.478
273.68	0.4753
274.034	0.472
274.388	0.4686
274.742	0.4662
275.096	0.4624
275.45	0.4603
275.803	0.4549
276.157	0.4527
276.51	0.4494
276.864	0.4465
277.217	0.4432
277.571	0.4396
277.924	0.4362
278.277	0.4322
278.63	0.4279
278.983	0.4254
279.336	0.4222
279.688	0.4187
280.041	0.4153
280.394	0.4102
280.746	0.4076
281.099	0.4035
281.451	0.3987
281.803	0.3955
282.156	0.3922
282.508	0.389
282.86	0.3847
283.212	0.3813
283.564	0.3771
283.916	0.3738
284.267	0.3696
284.619	0.3658
284.971	0.3623
285.322	0.3592
285.673	0.3563
286.025	0.3523
286.376	0.3482
286.727	0.3433
287.078	0.3399
287.429	0.3367
287.78	0.332
288.131	0.3285
288.482	0.324
288.833	0.3212
289.183	0.3171
289.534	0.3137
289.884	0.3091
290.235	0.3058
290.585	0.3016
290.935	0.2991
291.285	0.2953
291.635	0.2913
291.985	0.2876
292.335	0.2835
292.685	0.28
293.035	0.2769
293.384	0.2727
293.734	0.2696
294.083	0.2651
294.433	0.2612
294.782	0.2582
295.131	0.2551
295.48	0.2512
295.829	0.2486
296.179	0.2442
296.527	0.2418
296.876	0.2381
297.225	0.2355
297.574	0.232
297.922	0.2288
298.271	0.2263
298.619	0.2222
298.968	0.2201
299.316	0.2169
299.664	0.2146
300.012	0.2114
300.36	0.2079
300.708	0.2059
301.056	0.2032
301.404	0.2013
301.752	0.1976
302.099	0.1954
302.447	0.1939
302.794	0.1912
303.142	0.1886
303.489	0.1861
303.836	0.1844
304.183	0.1825
304.531	0.1806
304.878	0.1795
305.224	0.1772
305.571	0.1757
305.918	0.174
306.265	0.1722
306.611	0.1711
306.958	0.1699
307.304	0.1687
307.651	0.1669
307.997	0.1654
308.343	0.1644
308.689	0.1636
309.035	0.1624
309.381	0.1619
309.727	0.1609
310.073	0.1602
310.419	0.1588
310.764	0.1581
311.11	0.1584
311.455	0.1572
311.801	0.1566
312.146	0.1564
312.491	0.1554
312.837	0.1554
313.182	0.1558
313.527	0.1547
313.872	0.1549
314.216	0.1548
314.561	0.1545
314.906	0.1544
315.251	0.1542
315.595	0.1544
315.94	0.1541
316.284	0.1541
316.628	0.1546
316.972	0.1542
317.317	0.155
317.661	0.1555
318.005	0.156
318.348	0.156
318.692	0.1561
319.036	0.1563
319.38	0.1572
319.723	0.1577
320.067	0.1581
320.41	0.1583
320.754	0.1596
321.097	0.16
321.44	0.1604
321.783	0.1614
322.126	0.163
322.469	0.1634
322.812	0.1642
323.155	0.1647
323.498	0.1662
323.84	0.1672
324.183	0.1676
324.525	0.1689
324.868	0.1699
325.21	0.171
325.552	0.1723
325.894	0.1723
326.236	0.174
326.578	0.1749
326.92	0.1759
327.262	0.1768
327.604	0.178
327.946	0.1794
328.287	0.1806
328.629	0.1819
328.97	0.1825
329.312	0.1835
329.653	0.1849
329.994	0.1861
330.335	0.1878
330.676	0.189
331.017	0.1895
331.358	0.1908
331.699	0.1928
332.04	0.1941
332.38	0.1944
332.721	0.1965
333.061	0.1969
333.402	0.1987
333.742	0.2006
334.083	0.2014
334.423	0.2022
334.763	0.2031
335.103	0.2045
335.443	0.2049
335.783	0.2066
336.123	0.2067
336.462	0.2083
336.802	0.2093
337.141	0.2106
337.481	0.2116
337.82	0.2118
338.16	0.2126
338.499	0.2139
338.838	0.2145
339.177	0.2168
339.516	0.2166
339.855	0.2175
340.194	0.2185
340.533	0.2201
340.872	0.2208
341.21	0.2214
341.549	0.2218
341.887	0.2227
342.226	0.223
342.564	0.2229
342.902	0.2234
343.24	0.2241
343.578	0.2236
343.916	0.2251
344.254	0.2249
344.592	0.2247
344.93	0.2248
345.268	0.2256
345.605	0.225
345.943	0.2257
346.28	0.2257
346.618	0.2253
346.955	0.226
347.292	0.2261
347.629	0.2263
347.966	0.2259
348.303	0.2271
348.64	0.2262
348.977	0.2258
349.314	0.2265
349.65	0.2271
349.987	0.2267
350.324	0.2253
350.66	0.2254
350.996	0.2256
351.333	0.2247
351.669	0.2234
352.005	0.224
352.341	0.2229
352.677	0.2225
353.013	0.2208
353.349	0.22
353.685	0.2191
354.02	0.2183
354.356	0.2178
354.691	0.2163
355.027	0.2159
355.362	0.2147
355.697	0.2139
356.033	0.2124
356.368	0.2123
356.703	0.2105
357.038	0.2102
357.373	0.2097
357.707	0.2087
358.042	0.2078
358.377	0.2066
358.711	0.2059
359.046	0.2047
359.38	0.2043
359.715	0.2031
360.049	0.2014
360.383	0.2008
360.717	0.1994
361.051	0.1976
361.385	0.1969
361.719	0.1948
362.053	0.1939
362.387	0.1916
362.72	0.1901
363.054	0.1882
363.387	0.1868
363.721	0.1852
364.054	0.1835
364.387	0.1816
364.721	0.1799
365.054	0.1786
365.387	0.1767
365.72	0.1752
366.053	0.174
366.385	0.1726
366.718	0.1714
367.051	0.1692
367.383	0.1681
367.716	0.1672
368.048	0.1655
368.381	0.1642
368.713	0.1635
369.045	0.1624
369.377	0.161
369.709	0.1594
370.041	0.1584
370.373	0.1571
370.705	0.1548
371.037	0.153
371.368	0.1518
371.7	0.1508
372.031	0.1493
372.363	0.1477
372.694	0.1461
373.025	0.1442
373.356	0.142
373.688	0.1399
374.019	0.1375
374.35	0.1366
374.68	0.1341
375.011	0.1329
375.342	0.1305
375.673	0.1289
376.003	0.1274
376.334	0.1254
376.664	0.1242
376.995	0.1226
377.325	0.1217
377.655	0.1207
377.985	0.1185
378.315	0.1175
378.645	0.1158
378.975	0.1146
379.305	0.113
379.635	0.1127
379.964	0.1112
380.294	0.1097
380.623	0.1084
380.953	0.1076
381.282	0.1066
381.611	0.1049
381.941	0.104
382.27	0.1024
382.599	0.1011
382.928	0.0992
383.257	0.0984
383.585	0.0976
383.914	0.0958
384.243	0.0942
384.571	0.0929
384.9	0.0908
385.228	0.0899
385.557	0.0885
385.885	0.0866
386.213	0.0856
386.541	0.0835
386.869	0.0818
387.197	0.0809
387.525	0.0785
387.853	0.0778
388.181	0.0769
388.508	0.0761
388.836	0.0748
389.164	0.0736
389.491	0.0725
389.818	0.0712
390.146	0.0701
390.473	0.0689
390.8	0.0685
391.127	0.067
391.454	0.066
391.781	0.0654
392.108	0.0639
392.435	0.0624
392.761	0.0617
393.088	0.0617
393.415	0.0604
393.741	0.061
394.067	0.0591
394.394	0.0592
394.72	0.0579
395.046	0.0567
395.372	0.0559
395.698	0.0547
396.024	0.0548
396.35	0.0534
396.676	0.0536
397.001	0.0531
397.327	0.0512
397.653	0.051
397.978	0.05
398.303	0.0484
398.629	0.0481
398.954	0.0483
399.279	0.0473
399.604	0.0472
399.929	0.0458
400.254	0.0456
400.579	0.0451
400.904	0.0443
401.229	0.0434
401.553	0.0429
401.878	0.0423
402.202	0.0424
402.527	0.0417
402.851	0.0419
403.175	0.0408
403.5	0.0405
403.824	0.0406
404.148	0.0404
404.472	0.0401
404.796	0.0396
405.119	0.0389
405.443	0.0391
405.767	0.0383
406.09	0.0382
406.414	0.0386
406.737	0.0379
407.061	0.0379
407.384	0.038
407.707	0.037
408.03	0.0379
408.353	0.0378
408.676	0.0371
408.999	0.0368
409.322	0.0373
409.645	0.0369
409.968	0.0369
410.29	0.037
410.613	0.0363
410.935	0.0366
411.258	0.0369
411.58	0.0359
411.902	0.0365
412.224	0.0362
412.546	0.0364
412.868	0.0363
413.19	0.0365
413.512	0.036
413.834	0.0357
414.156	0.0368
414.477	0.0363
414.799	0.0361
415.121	0.0362
415.442	0.0364
415.763	0.0369
416.085	0.0367
416.406	0.0365
416.727	0.0366
417.048	0.0365
417.369	0.0363
417.69	0.0356
418.011	0.0361
418.331	0.0368
418.652	0.0362
418.973	0.0366
419.293	0.0367
419.614	0.0364
419.934	0.0362
420.254	0.0369
420.574	0.0363
420.895	0.0365
421.215	0.0364
421.535	0.0361
421.855	0.0367
422.174	0.0365
422.494	0.0364
422.814	0.0376
423.134	0.0371
423.453	0.0371
423.773	0.0372
424.092	0.0366
424.411	0.0365
424.731	0.0372
425.05	0.0371
425.369	0.0373
425.688	0.0372
426.007	0.0374
426.326	0.0377
426.644	0.0389
426.963	0.0382
427.282	0.038
427.6	0.0378
427.919	0.0386
428.237	0.0379
428.556	0.0388
428.874	0.0385
429.192	0.038
429.51	0.0384
429.828	0.0382
430.146	0.0384
430.464	0.0382
430.782	0.0384
431.1	0.0382
431.418	0.0379
431.735	0.038
432.053	0.0389
432.37	0.0384
432.688	0.0386
433.005	0.0385
433.322	0.0392
433.639	0.0381
433.957	0.0383
434.274	0.0395
434.591	0.0385
434.907	0.0389
435.224	0.0388
435.541	0.0389
435.858	0.0398
436.174	0.0385
436.491	0.0392
436.807	0.039
437.124	0.038
437.44	0.0383
437.756	0.0383
438.072	0.0382
438.388	0.0392
438.704	0.0394
439.02	0.0393
439.336	0.0389
439.652	0.0393
439.968	0.0385
440.283	0.0385
440.599	0.0392
440.914	0.0385
441.23	0.0383
441.545	0.0386
441.86	0.0383
442.175	0.039
442.491	0.0382
442.806	0.0384
443.121	0.0389
443.435	0.0384
443.75	0.0387
444.065	0.038
444.38	0.0386
444.694	0.0384
445.009	0.0386
445.323	0.0383
445.638	0.038
445.952	0.038
446.266	0.0381
446.58	0.0384
446.894	0.0382
447.208	0.0388
447.522	0.038
447.836	0.0367
448.15	0.0375
448.464	0.0367
448.777	0.0372
449.091	0.037
449.404	0.0378
449.718	0.0378
450.031	0.0375
450.345	0.0368
450.658	0.0367
450.971	0.0365
451.284	0.0364
451.597	0.037
451.91	0.0372
452.223	0.0365
452.535	0.037
452.848	0.037
453.161	0.0365
453.473	0.0369
453.786	0.037
454.098	0.0366
454.411	0.0364
454.723	0.036
455.035	0.0357
455.347	0.0368
455.659	0.0366
455.971	0.0362
456.283	0.0361
456.595	0.0355
456.907	0.0357
457.218	0.0362
457.53	0.0353
457.841	0.0344
458.153	0.0349
458.464	0.0346
458.776	0.0341
459.087	0.0339
459.398	0.0342
459.709	0.034
460.02	0.0334
460.331	0.0342
460.642	0.0338
460.953	0.0333
461.263	0.033
461.574	0.0335
461.885	0.0333
462.195	0.034
462.506	0.0338
462.816	0.0328
463.126	0.0324
463.437	0.0325
463.747	0.0316
464.057	0.0322
464.367	0.0322
464.677	0.0308
464.987	0.032
465.296	0.0312
465.606	0.0312
465.916	0.0312
466.225	0.0304
466.535	0.0302
466.844	0.0301
467.154	0.0296
467.463	0.0296
467.772	0.031
468.081	0.0292
468.39	0.0297
468.699	0.0296
469.008	0.0296
469.317	0.0295
469.626	0.0291
469.935	0.0288
470.243	0.029
470.552	0.029
470.86	0.0287
471.169	0.0278
471.477	0.0288
471.785	0.0285
472.093	0.0282
472.402	0.0281
472.71	0.0279
473.018	0.0268
473.326	0.0265
473.633	0.0271
473.941	0.0262
474.249	0.026
474.556	0.0264
474.864	0.0254
475.171	0.0262
475.479	0.026
475.786	0.0259
476.094	0.0259
476.401	0.026
476.708	0.0246
477.015	0.0257
477.322	0.0252
477.629	0.0249
477.936	0.0245
478.242	0.0244
478.549	0.0242
478.856	0.0235
479.162	0.0231
479.469	0.0239
479.775	0.0238
480.081	0.0225
480.388	0.0233
480.694	0.0222
481	0.0219
481.306	0.0225
481.612	0.0219
481.918	0.0216
482.224	0.0223
482.53	0.0221
482.835	0.0219
483.141	0.0204
483.446	0.0207
483.752	0.0206
484.057	0.0204
484.363	0.0203
484.668	0.0192
484.973	0.0198
485.278	0.0188
485.583	0.0188
485.888	0.0185
486.193	0.0191
486.498	0.019
486.803	0.0192
487.107	0.0184
487.412	0.0181
487.717	0.018
488.021	0.0184
488.325	0.0176
488.63	0.0175
488.934	0.0172
489.238	0.0178
489.542	0.0173
489.846	0.016
490.15	0.0181
490.454	0.016
490.758	0.0171
491.062	0.0167
491.366	0.0157
491.669	0.0167
491.973	0.0162
492.276	0.0158
492.58	0.0147
492.883	0.0158
493.186	0.0156
493.489	0.0152
493.792	0.0151
494.096	0.0154
494.399	0.015
494.701	0.0158
495.004	0.0144
495.307	0.0141
495.61	0.014
495.912	0.0135
496.215	0.0136
496.517	0.0134
496.82	0.0129
497.122	0.0139
497.424	0.0123
497.727	0.0126
498.029	0.014
498.331	0.0133
498.633	0.0133
498.935	0.0127
499.237	0.0128
499.538	0.0122
499.84	0.0119
500.142	0.0131
500.443	0.0115
500.745	0.0121
501.046	0.012
501.348	0.0116
501.649	0.0122
501.95	0.0112
502.251	0.011
502.552	0.0105
502.853	0.01
503.154	0.0104
503.455	0.0095
503.756	0.0102
504.057	0.0102
504.357	0.0095
504.658	0.0098
504.958	0.0095
505.259	0.0109
505.559	0.0102
505.859	0.009
506.16	0.0098
506.46	0.0099
506.76	0.0095
507.06	0.0089
507.36	0.0095
507.66	0.0092
507.96	0.0099
508.259	0.0076
508.559	0.0082
508.859	0.0087
509.158	0.0076
509.457	0.0089
509.757	0.0095
510.056	0.0091
510.355	0.0077
510.655	0.0064
510.954	0.0076
511.253	0.0078
511.552	0.0082
511.851	0.0063
512.149	0.0064
512.448	0.0059
512.747	0.0066
513.045	0.0061
513.344	0.0073
513.642	0.0081
513.941	0.0074
514.239	0.0075
514.537	0.0068
514.836	0.0067
515.134	0.0061
515.432	0.0061
515.73	0.0085
516.028	0.0064
516.326	0.0061
516.623	0.0062
516.921	0.0055
517.219	0.0073
517.516	0.0078
517.814	0.0059
518.111	0.0065
518.409	0.0076
518.706	0.0059
519.003	0.0064
519.3	0.0052
519.597	0.0054
519.894	0.006
520.191	0.0064
520.488	0.0072
520.785	0.0052
521.082	0.0054
521.378	0.0061
521.675	0.004
521.971	0.0046
522.268	0.0047
522.564	0.0053
522.861	0.0056
523.157	0.0037
523.453	0.0052
523.749	0.0055
524.045	0.0062
524.341	0.0048
524.637	0.0042
524.933	0.0045
525.229	0.0049
525.524	0.0043
525.82	0.0046
526.115	0.004
526.411	0.0044
526.706	0.005
527.002	0.0047
527.297	0.0033
527.592	0.0052
527.887	0.0049
528.182	0.005
528.477	0.0055
528.772	0.0048
529.067	0.0054
529.362	0.0044
529.657	0.0042
529.951	0.0042
530.246	0.0034
530.54	0.0021
530.835	0.0023
531.129	0.002
531.423	0.0041
531.718	0.0027
532.012	0.0037
532.306	0.0031
532.6	0.0034
532.894	0.003
533.188	0.004
533.482	0.0028
533.775	0.0038
534.069	0.0025
534.363	0.0025
534.656	0.0024
534.95	0.0018
535.243	0.0029
535.536	0.002
535.83	0.0032
536.123	0.0022
536.416	0.0022
536.709	0.0029
537.002	0.0036
537.295	0.0025
537.588	0.0034
537.881	0.0029
538.173	0.0026
538.466	0.0018
538.759	0.0023
539.051	0.0014
539.344	0.0014
539.636	0.0024
539.928	0.0016
540.22	0.0024
540.513	0.0017
540.805	0.0035
541.097	0.0024
541.389	0.0029
541.681	0.0026
541.972	0.0026
542.264	0.0014
542.556	0.0013
542.847	0.0017
543.139	0.0023
543.431	0.0037
543.722	0.0027
544.013	0.0035
544.305	0.0031
544.596	0.0038
544.887	0.0026
545.178	0.0023
545.469	0.0026
545.76	0.0021
546.051	0.0027
546.342	0.0032
546.632	0.0015
546.923	0.0021
547.214	0.0028
547.504	0.0027
547.795	0.0029
548.085	0.003
548.375	0.0025
548.666	0.0027
548.956	0.0021
549.246	0.0029
549.536	0.002
549.826	0.0029
550.116	0.0031
550.406	0.0027
550.695	0.0037
550.985	0.0031
551.275	0.0037
551.564	0.0026
551.854	0.0031
552.143	0.0035
552.433	0.0034
552.722	0.0033
553.011	0.0028
553.3	0.003
553.589	0.0022
553.879	0.003
554.167	0.0033
554.456	0.0028
554.745	0.0027
555.034	0.0017
555.323	0.001
555.611	0.0022
555.9	0.0025
556.188	0.003
556.477	0.0023
556.765	0.0026
557.053	0.0023
557.342	0.0017
557.63	0.0021
557.918	0.0019
558.206	0.0015
558.494	0.0031
558.782	0.002
559.069	0.0023
559.357	0.0035
559.645	0.0016
559.932	0.0025
560.22	0.0033
560.507	0.0024
560.795	0.0023
561.082	0.002
561.37	0.0022
561.657	0.0026
561.944	0.0037
562.231	0.0029
562.518	0.0016
562.805	0.0028
563.092	0.0036
563.379	0.0032
563.665	0.0023
563.952	0.0042
564.239	0.0028
564.525	0.0029
564.811	0.0039
565.098	0.0036
565.384	0.0033
565.67	0.0036
565.957	0.003
566.243	0.0027
566.529	0.0048
566.815	0.0046
567.101	0.0019
567.387	0.0025
567.672	0.0029
567.958	0.0038
568.244	0.0033
568.529	0.0035
568.815	0.0025
569.1	0.0033
569.386	0.0031
569.671	0.0025
569.956	0.0027
570.242	0.0022
570.527	0.003
570.812	0.0032
571.097	0.0036
571.382	0.0032
571.666	0.0026
571.951	0.0027
572.236	0.0023
572.521	0.0017
572.805	0.0026
573.09	0.0028
573.374	0.0023
573.659	0.002
573.943	0.0027
574.227	0.0017
574.511	0.0031
574.795	0.0022
575.079	0.0024
575.363	0.0024
575.647	0.0031
575.931	0.0029
576.215	0.0027
576.499	0.0018
576.782	0.0019
577.066	0.0026
577.349	0.0023
577.633	0.0037
577.916	0.0029
578.2	0.0037
578.483	0.0027
578.766	0.0022
579.049	0.003
579.332	0.0032
579.615	0.0029
579.898	0.0026
580.181	0.0023
580.464	0.0029
580.746	0.0016
581.029	0.0029
581.312	0.0018
581.594	0.0022
581.877	0.0027
582.159	0.0033
582.441	0.0023
582.724	0.0022
583.006	0.0024
583.288	0.0017
583.57	0.0013
583.852	0.0007
584.134	0.0018
584.416	0.003
584.697	0.0022
584.979	0.0024
585.261	0.0024
585.542	0.0021
585.824	0.0027
586.105	0.0029
586.387	0.0026
586.668	0.0023
586.949	0.0021
587.231	0.0022
587.512	0.0026
587.793	0.0023
588.074	0.0021
588.355	0.0021
588.636	0.0036
588.916	0.0026
589.197	0.0034
589.478	0.003
589.758	0.003
590.039	0.0032
590.319	0.0028
590.6	0.0025
590.88	0.0023
591.16	0.002
591.441	0.0038
591.721	0.0035
592.001	0.0025
592.281	0.0028
592.561	0.003
592.841	0.0034
593.12	0.0024
593.4	0.0018
593.68	0.0025
593.959	0.003
594.239	0.0034
594.518	0.002
594.798	0.0021
595.077	0.0031
595.356	0.0029
595.636	0.0029
595.915	0.0029
596.194	0.0027
596.473	0.0028
596.752	0.0027
597.031	0.0024
597.31	0.0015
597.588	0.0018
597.867	0.0016
598.146	0.0024
598.424	0.0022
598.703	0.0024
598.981	0.0024
599.259	0.0023
599.538	0.0032
599.816	0.0031
600.094	0.0023
600.372	0.0029
600.65	0.0032
600.928	0.0025
601.206	0.0037
601.484	0.0027
601.762	0.0028
602.04	0.0028
602.317	0.0037
602.595	0.0021
602.872	0.0027
603.15	0.0024
603.427	0.0011
603.704	0.0016
603.982	0.0015
604.259	0.0012
604.536	0.0019
604.813	0.0014
605.09	0.0027
605.367	0.0024
605.644	0.0017
605.921	0.002
606.197	0.002
606.474	0.0018
606.751	0.002
607.027	0.0026
607.304	0.0011
607.58	0.002
607.856	0.0018
608.133	0.0027
608.409	0.0027
608.685	0.002
608.961	0.0025
609.237	0.0031
609.513	0.0022
609.789	0.0024
610.065	0.0008
610.341	0.0011
610.616	0.002
610.892	0.0025
611.167	0.0021
611.443	0.002
611.718	0.0012
611.994	0.0007
612.269	0.0017
612.544	0.0018
612.819	0.0013
613.095	0.002
613.37	0.0018
613.645	0.0021
613.919	0.0016
614.194	0.0019
614.469	0.0011
614.744	0.0011
615.019	0.0013
615.293	0
615.568	0.0004
615.842	0.0012
616.116	0.0009
616.391	0.0006
616.665	0.0027
616.939	0.0011
617.213	0.0018
617.488	0.001
617.762	0.0021
618.035	0.0013
618.309	0.0022
618.583	0.0011
618.857	0.0011
619.131	0.0018
619.404	0.0009
619.678	0.0014
619.951	0.0004
620.225	0.0009
620.498	0.0009
620.771	0.0021
621.045	0.0022
621.318	0.0017
621.591	0.0017
621.864	0.001
622.137	0.0006
622.41	0.0008
622.683	0
622.956	0.0014
623.228	0.0015
623.501	0.0021
623.774	0.0023
624.046	0.0009
624.319	0.0016
624.591	0.0006
624.863	0.0017
625.136	0.0017
625.408	0.0022
625.68	0.0016
625.952	0.0016
626.224	0.0018
626.496	0.0021
626.768	0.0016
627.04	0.0014
627.311	0.0017
627.583	0.001
627.855	0.0013
628.126	0.0019
628.398	0.002
628.669	0.0012
628.941	0.0006
629.212	0.0003
629.483	0.0016
629.755	0.0011
630.026	0.001
630.297	0.0003
630.568	0.0008
630.839	-0.0001
631.11	-0.0001
631.38	-0.0008
631.651	-0.0003
631.922	-0.0002
632.192	-0.0008
632.463	-0.0016
632.733	0.0001
633.004	0.0002
633.274	-0.0004
633.545	0.0015
633.815	0.0026
634.085	0.0019
634.355	0.0014
634.625	0.0019
634.895	0.001
635.165	0.0001
635.435	0.0002
635.705	0.0013
635.974	0.0009
636.244	0.0014
636.514	0.0018
636.783	0.0009
637.053	0.0017
637.322	0.0006
637.591	0.001
637.861	0.0019
638.13	0.0016
638.399	0.0008
638.668	0.0025
638.937	0.0001
639.206	0.002
639.475	0.0015
639.744	0.0013
640.013	0.0023
640.281	0.0034
640.55	0.0028
640.819	0.0028
641.087	0.0024
641.356	0.0015
641.624	0.0018
641.892	0.0023
642.161	0.002
642.429	0.0029
642.697	0.001
642.965	0.0022
643.233	0.0023
643.501	0.0013
643.769	0.001
644.037	0.0011
644.305	0.002
644.572	-0.0002
644.84	0.0003
645.108	0.0011
645.375	-0.0012
645.643	0.0005
645.91	0.0005
646.177	0.0027
646.445	0.0042
646.712	0.0035
646.979	0.0035
647.246	0.0037
647.513	0.0038
647.78	0.0034
648.047	0.0034
648.314	0.0029
648.58	0.0018
648.847	0.0016
649.114	0.0001
649.38	0.0005
649.647	0.0003
649.913	0.0009
650.18	0.0015
650.446	0.0012
650.712	0.0017
650.978	0.0025
651.245	0.0027
651.511	0.0026
651.777	0.0015
652.043	0.0022
652.309	0.0027
652.574	0.003
652.84	0.0022
653.106	0.0005
653.371	0.0001
653.637	0.0006
653.903	0.0019
654.168	0.0016
654.433	0.0026
654.699	0.0033
654.964	0.003
655.229	0.002
655.494	0.0031
655.759	0.0019
656.024	0.0006
656.289	-0
656.554	-0.0006
656.819	-0.0001
657.084	0.0012
657.349	0.0022
657.613	0.0025
657.878	0.0026
658.142	0.0021
658.407	0.003
658.671	0.0023
658.936	0.0009
659.2	0.0002
659.464	0.0006
659.728	0.0013
659.992	0.0019
660.256	0.0012
660.52	0.0012
660.784	0.0004
661.048	0.0007
661.312	-0.0003
661.575	-0
661.839	-0.0009
662.103	-0.0016
662.366	-0.0017
662.63	-0.0002
662.893	0.0003
663.156	0.0001
663.42	-0.0002
663.683	-0.0003
663.946	0.0015
664.209	0.0015
664.472	0.0024
664.735	0.0021
664.998	0.0011
665.261	0.0002
665.524	0.0006
665.786	0.001
666.049	0.0008
666.312	0.0004
666.574	0.0006
666.837	0.0004
667.099	-0.0008
667.361	-0.0005
667.624	-0.0005
667.886	0.0002
668.148	0.0003
668.41	0.0023
668.672	0.0006
668.934	0.0008
669.196	0.0011
669.458	0.0017
669.72	0.0014
669.982	0.0018
670.243	0.0015
670.505	0.0021
670.766	0.0013
671.028	0.0015
671.289	0.0017
671.551	0.0008
671.812	-0.001
672.073	0.0006
672.334	-0.0001
672.596	0.0005
672.857	-0.0003
673.118	-0.0001
673.379	-0.0006
673.639	-0.0013
673.9	-0.0008
674.161	-0.0019
674.422	-0.002
674.682	-0.0014
674.943	-0.0019
675.203	-0.0009
675.464	-0.0013
675.724	0.0012
675.985	0.001
676.245	0.0013
676.505	0.0027
676.765	0.0025
677.025	0.0022
677.285	0.0019
677.545	0.0034
677.805	0.0032
678.065	0.0034
678.325	0.0031
678.585	0.0025
678.844	0.0014
679.104	0.0014
679.363	0.0023
679.623	0.0023
679.882	0.0026
680.142	0.0026
680.401	0.0036
680.66	0.004
680.919	0.004
681.178	0.0049
681.437	0.0047
681.696	0.0041
681.955	0.0035
682.214	0.0042
682.473	0.0038
682.732	0.002
682.99	0.0029
683.249	0.0034
683.508	0.0029
683.766	0.0027
684.024	0.0024
684.283	0.0035
684.541	0.0027
684.799	0.0023
685.058	0.002
685.316	0.002
685.574	0.0027
685.832	0.0031
686.09	0.003
686.348	0.0036
686.606	0.0039
686.863	0.0038
687.121	0.0036
687.379	0.0039
687.636	0.004
687.894	0.0039
688.151	0.0039
688.409	0.0039
688.666	0.0035
688.923	0.0036
689.181	0.0034
689.438	0.0024
689.695	0.0024
689.952	0.0009
690.209	0.0011
690.466	0.001
690.723	0.0026
690.979	0.0021
691.236	0.0016
691.493	0.0011
691.75	0.0027
692.006	0.0031
692.263	0.0035
692.519	0.0032
692.775	0.0025
693.032	0.0019
693.288	0.0027
693.544	0.0021
693.8	0.0019
694.056	0.0028
694.313	0.0017
694.568	0.0016
694.824	0.0029
695.08	0.0036
695.336	0.0035
695.592	0.0021
695.847	0.0029
696.103	0.0027
696.359	0.0029
696.614	0.0017
696.869	0.0014
697.125	0.0005
697.38	-0.0003
697.635	-0.001
697.891	-0.0009
698.146	-0.0003
698.401	0.0018
698.656	0.0001
698.911	0.0014
699.166	-0
699.42	0.0001
699.675	0.0003
699.93	-0.0008
700.185	0.0002
700.439	0.0012
700.694	0.0009
700.948	0.0015
701.203	0.0019
701.457	0.0008
701.711	-0.0001
701.965	-0.0006
702.22	-0.0009
702.474	0.0004
702.728	-0.0005
702.982	-0.0009
703.236	-0.0003
703.49	0.0002
703.743	0.0003
703.997	0.0001
704.251	0.0005
704.504	0.0008
704.758	0
705.012	0.0007
705.265	-0.0001
705.518	-0
705.772	-0.0006
706.025	-0.0004
706.278	0.0001
706.531	-0.0003
706.785	-0.001
707.038	-0.0002
707.291	-0.0006
707.543	-0.0005
707.796	-0.0009
708.049	-0.0013
708.302	-0.0018
708.555	-0.0009
708.807	-0.0001
709.06	-0.0006
709.312	-0.0025
709.565	-0.0016
709.817	-0.0023
710.069	-0.0019
710.322	-0.0024
710.574	-0.001
710.826	-0.0011
711.078	-0.0003
711.33	-0.001
711.582	-0.0015
711.834	0.0002
712.086	0.0009
712.338	0.0011
712.59	0.0008
712.841	0.0007
713.093	0.0008
713.344	0.0007
713.596	0.0012
713.847	0.0018
714.099	0.0016
714.35	0.0017
714.601	0.0015
714.853	0.002
715.104	0.0023
715.355	0.0012
715.606	0.0011
715.857	0.002
716.108	0.0028
716.359	0.0023
716.609	0.0024
716.86	0.0011
717.111	0.0003
717.361	-0.0001
717.612	-0.0007
717.863	-0.0003
718.113	-0.0007
718.363	0.0002
718.614	0.0005
718.864	0.0006
719.114	0.0014
719.364	0.0011
719.614	-0.0007
719.865	-0.0013
720.114	-0.0009
720.364	-0.0005
720.614	0.0004
720.864	0.0017
721.114	0.0014
721.364	0.0018
721.613	0.002
721.863	0.0035
722.112	0.0026
722.362	0.0031
722.611	0.0019
722.86	0.0019
723.11	0.0008
723.359	0.0011
723.608	0.0023
723.857	0.0027
724.106	0.0048
724.355	0.0046
724.604	0.0055
724.853	0.0043
725.102	0.0036
725.351	0.0028
725.599	0.002
725.848	0.0028
726.097	0.0016
726.345	0.0022
726.594	0.002
726.842	0.0016
727.09	0.0017
727.339	0.001
727.587	0.0006
727.835	-0.0007
728.083	-0.0015
728.331	-0.0007
728.579	-0.0018
728.827	-0.0012
729.075	-0.0013
729.323	-0
729.571	0.0006
729.818	0.0007
730.066	0.0008
730.314	0.0014
730.561	-0.0002
730.809	-0.0003
731.056	-0.0008
731.303	-0.0005
731.551	-0.0008
731.798	0.0001
732.045	0.0005
732.292	0.0001
732.539	0.0003
732.786	0.0001
733.033	0.001
733.28	0.0011
733.527	0.0026
733.774	0.0015
734.021	0.0023
734.267	0.0031
734.514	0.0033
734.76	0.0024
735.007	0.0041
735.253	0.0049
735.5	0.0049
735.746	0.0043
735.992	0.0044
736.238	0.0042
736.485	0.0052
736.731	0.0046
736.977	0.0047
737.223	0.0036
737.469	0.0039
737.715	0.0043
737.96	0.0061
738.206	0.0053
738.452	0.0074
738.697	0.0067
738.943	0.006
739.189	0.004
739.434	0.0016
739.679	0.0008
739.925	0.0009
740.17	0
740.415	0.0008
740.66	0.0022
740.906	0.002
741.151	0.0022
741.396	0.0021
741.641	0.005
741.886	0.0054
742.13	0.005
742.375	0.0061
742.62	0.007
742.865	0.0057
743.109	0.0054
743.354	0.0048
743.598	0.0044
743.843	0.0047
744.087	0.0049
744.331	0.0051
744.576	0.0045
744.82	0.0041
745.064	0.003
745.308	0.0029
745.552	0.0033
745.796	0.0034
746.04	0.0038
746.284	0.0018
746.528	-0.0004
746.771	0.0009
747.015	0.0009
747.259	0.0011
747.502	0.0012
747.746	0.0022
747.989	0.0017
748.233	0.0031
748.476	0.0031
748.719	0.0031
748.963	0.0046
749.206	0.0033
749.449	0.0039
749.692	0.0027
749.935	0.0045
750.178	0.0028
750.421	0.0031
750.664	0.0033
750.906	0.0036
751.149	0.0032
751.392	0.0021
751.635	0.0014
751.877	-0.0006
752.12	-0.0006
752.362	0.0001
752.604	0.0006
752.847	0.0017
753.089	0.0018
753.331	0.0012
753.573	0.0014
753.816	0.0022
754.058	0.0028
754.3	0.0029
754.542	0.0039
754.783	0.0026
755.025	0.003
755.267	0.0017
755.509	0.0017
755.75	0.0012
755.992	0.0022
756.234	0.0013
756.475	0.0003
756.716	0
756.958	0.0003
757.199	0.0003
757.44	0.0014
757.682	0.0015
757.923	-0.0005
758.164	-0.0003
758.405	-0.0014
758.646	-0.0003
758.887	-0.0002
759.128	-0.0003
759.369	-0.0006
759.609	-0.0005
759.85	-0.0007
760.091	0.001
760.331	-0.0003
760.572	-0.0008
760.812	-0.0011
761.053	-0.0014
761.293	-0.0016
761.533	-0.0008
761.774	-0
762.014	-0.0003
762.254	0.0001
762.494	-0.0003
762.734	-0.0005
762.974	-0.0008
763.214	-0.0014
763.454	-0.0007
763.694	-0.0002
763.933	-0.0009
764.173	-0.0002
764.413	-0.0007
764.652	0.0001
764.892	0.0007
765.131	0.0008
765.371	0.0008
765.61	0.0019
765.849	0.0021
766.089	0.0021
766.328	0.003
766.567	0.0031
766.806	0.0035
767.045	0.0031
767.284	0.0031
767.523	0.0034
767.762	0.004
768.001	0.0027
768.239	0.003
768.478	0.0016
768.717	0.0025
768.955	0.0022
769.194	0.0013
769.432	0.001
769.671	0.0019
769.909	0.0013
770.148	0.0019
770.386	0.0017
770.624	0.0023
770.862	0.0021
771.1	0.002
771.338	0.0016
771.576	0.0019
771.814	0.0019
772.052	0.0019
772.29	0.0025
772.528	0.0033
772.765	0.0029
773.003	0.0025
773.24	0.0032
773.478	0.0026
773.716	0.0042
773.953	0.004
774.19	0.0042
774.428	0.0046
774.665	0.0037
774.902	0.0048
775.139	0.0034
775.376	0.003
775.613	0.0022
775.85	0.0032
776.087	0.0027
776.324	0.0032
776.561	0.0032
776.798	0.0048
777.034	0.0061
777.271	0.007
777.508	0.0068
777.744	0.0066
777.981	0.0058
778.217	0.0053
778.454	0.004
778.69	0.0039
778.926	0.0042
779.162	0.004
779.399	0.0036
779.635	0.003
779.871	0.0023
780.107	0.0033
780.343	0.0028
780.579	0.0043
780.814	0.0035
781.05	0.0036
781.286	0.004
781.522	0.0031
781.757	0.0049
781.993	0.0046
782.228	0.0045
782.464	0.0046
782.699	0.0033
782.934	0.0028
783.17	0.0029
783.405	0.0023
783.64	0.0027
783.875	0.0025
784.11	0.0029
784.345	0.0032
784.58	0.0029
784.815	0.003
785.05	0.0036
785.285	0.0016
785.52	0.0012
785.754	0.0018
785.989	0.0009
786.223	0.0005
786.458	0.0003
786.692	-0.0002
786.927	-0.0014
787.161	-0.0005
787.396	-0.0008
787.63	-0.0018
787.864	-0.0019
788.098	-0.0015
788.332	-0.0001
788.566	-0.0004
788.8	-0.0005
789.034	-0.0004
789.268	-0.0003
789.502	0.0001
789.736	0.0014
789.969	0.002
790.203	0.0024
790.437	0.0023
790.67	0.0016
790.904	0.002
791.137	-0.0001
791.37	-0.001
791.604	-0.0007
791.837	-0.0006
792.07	-0.0006
792.303	0.0005
792.537	-0.0007
792.77	-0.0009
793.003	-0.0008
793.236	-0.0018
793.469	-0.0022
793.701	-0.0013
793.934	-0.0012
794.167	-0.0012
794.4	-0.0006
794.632	-0.001
794.865	-0.0017
795.097	-0.0004
795.33	0.0009
795.562	-0.0003
795.795	-0.0001
796.027	-0
796.259	-0.0001
796.491	-0.0005
796.724	-0.0005
796.956	0.0004
797.188	0.0014
797.42	-0.0002
797.652	0.0011
797.883	-0.0004
798.115	-0.0006
798.347	-0.0015
798.579	-0.0022
798.81	-0.0026
799.042	-0.0027
799.274	-0.0034
799.505	-0.003
799.737	-0.0037
799.968	-0.0036
800.199	-0.0017
800.431	-0.0026
800.662	-0.0006
800.893	-0.0007
801.124	-0.0003
801.355	0
801.586	0.0002
801.817	0.0008
802.048	0
802.279	-0.0003
802.51	0.0006
802.741	-0.0007
802.971	-0.0007
803.202	-0.0013
803.433	-0.0022
803.663	-0.002
803.894	-0.0009
804.124	-0.0003
804.354	-0.0014
804.585	-0.0011
804.815	-0.0014
805.045	-0.0011
805.275	-0.0021
805.506	0.0042
805.736	-0.0207
805.966	-0.202
806.196	-0.0114
