Data from 03 0.2 mM BQDS 0.4 mM K2Cr2O7 1 M H2SO4 5 min_Absorbance_05-32-42-639.txt Node
Date: Wed Dec 08 05:32:42 EST 2021
User: kwabilab-user
Spectrometer: HDX00518
Trigger mode: 0
Integration Time (sec): 5.000000E-2
Scans to average: 50
Nonlinearity correction enabled: false
Boxcar width: 0
Storing dark spectrum: false
XAxis mode: Wavelengths
Number of Pixels in Spectrum: 2068
>>>>>Begin Spectral Data<<<<<
195.27	0.1935
195.642	0.0984
196.014	0.1132
196.386	0.0311
196.758	0.0307
197.129	0.0196
197.501	0.043
197.872	0.0965
198.244	0.1113
198.615	0.1231
198.986	0.1121
199.357	0.1092
199.728	0.1235
200.099	0.107
200.47	0.1064
200.841	0.1233
201.212	0.1228
201.582	0.1147
201.953	0.1093
202.323	0.1149
202.694	0.1239
203.064	0.1278
203.434	0.1071
203.804	0.1335
204.174	0.1207
204.544	0.1222
204.914	0.1109
205.284	0.1192
205.653	0.1405
206.023	0.1152
206.393	0.1175
206.762	0.1224
207.131	0.1215
207.501	0.1367
207.87	0.142
208.239	0.1417
208.608	0.1339
208.977	0.1336
209.346	0.1389
209.715	0.133
210.083	0.1554
210.452	0.1426
210.82	0.1557
211.189	0.1429
211.557	0.1406
211.925	0.1638
212.294	0.1676
212.662	0.1772
213.03	0.1838
213.398	0.1713
213.766	0.1808
214.133	0.2139
214.501	0.2155
214.869	0.2181
215.236	0.2405
215.604	0.2355
215.971	0.2426
216.338	0.2673
216.705	0.2727
217.072	0.3192
217.439	0.3124
217.806	0.3623
218.173	0.3832
218.54	0.4206
218.907	0.4411
219.273	0.4876
219.64	0.5131
220.006	0.5652
220.373	0.5916
220.739	0.6301
221.105	0.6764
221.471	0.6889
221.837	0.7188
222.203	0.7699
222.569	0.7976
222.935	0.8422
223.3	0.8498
223.666	0.8806
224.031	0.9111
224.397	0.9202
224.762	0.9445
225.127	0.955
225.493	0.97
225.858	0.9792
226.223	0.9923
226.588	1.0046
226.952	1.002
227.317	1.0027
227.682	0.9972
228.046	0.9914
228.411	1.0015
228.775	1.0005
229.14	0.9892
229.504	0.9813
229.868	0.9807
230.232	0.9759
230.596	0.971
230.96	0.9614
231.324	0.9486
231.688	0.9413
232.052	0.9345
232.415	0.9222
232.779	0.9209
233.142	0.9065
233.505	0.8963
233.869	0.8878
234.232	0.8802
234.595	0.8634
234.958	0.8646
235.321	0.8498
235.684	0.8394
236.047	0.8319
236.409	0.818
236.772	0.8112
237.134	0.8044
237.497	0.795
237.859	0.7874
238.222	0.7806
238.584	0.7727
238.946	0.7613
239.308	0.7554
239.67	0.7479
240.032	0.7431
240.393	0.7312
240.755	0.7262
241.117	0.719
241.478	0.7134
241.84	0.7064
242.201	0.6979
242.562	0.6934
242.924	0.6884
243.285	0.6825
243.646	0.6776
244.007	0.6739
244.368	0.6688
244.728	0.6638
245.089	0.6606
245.45	0.6577
245.81	0.6553
246.171	0.6488
246.531	0.6436
246.891	0.6394
247.252	0.638
247.612	0.6332
247.972	0.6291
248.332	0.6286
248.692	0.6251
249.051	0.6224
249.411	0.6196
249.771	0.6169
250.13	0.6161
250.49	0.6137
250.849	0.6113
251.208	0.6103
251.568	0.6063
251.927	0.603
252.286	0.6038
252.645	0.6023
253.004	0.6001
253.363	0.5991
253.721	0.5987
254.08	0.5952
254.439	0.5953
254.797	0.593
255.155	0.5912
255.514	0.592
255.872	0.5914
256.23	0.5876
256.588	0.5851
256.946	0.5849
257.304	0.5846
257.662	0.5838
258.02	0.5817
258.377	0.5808
258.735	0.5784
259.093	0.5787
259.45	0.5781
259.807	0.5741
260.165	0.5744
260.522	0.5719
260.879	0.571
261.236	0.5695
261.593	0.5669
261.95	0.5653
262.306	0.5659
262.663	0.5632
263.02	0.5609
263.376	0.5589
263.733	0.557
264.089	0.5553
264.445	0.5548
264.802	0.5512
265.158	0.5485
265.514	0.5477
265.87	0.5467
266.226	0.5436
266.581	0.5427
266.937	0.5388
267.293	0.5377
267.648	0.5355
268.004	0.5331
268.359	0.5309
268.714	0.5278
269.07	0.5263
269.425	0.5222
269.78	0.5221
270.135	0.5187
270.49	0.5151
270.844	0.5138
271.199	0.5101
271.554	0.5081
271.908	0.5042
272.263	0.5015
272.617	0.4988
272.972	0.4954
273.326	0.4927
273.68	0.4902
274.034	0.4847
274.388	0.4822
274.742	0.479
275.096	0.4766
275.45	0.4716
275.803	0.4712
276.157	0.4646
276.51	0.4614
276.864	0.4582
277.217	0.4557
277.571	0.4499
277.924	0.4467
278.277	0.4432
278.63	0.4395
278.983	0.4369
279.336	0.4318
279.688	0.4282
280.041	0.4249
280.394	0.4209
280.746	0.4177
281.099	0.4119
281.451	0.4086
281.803	0.4039
282.156	0.4012
282.508	0.3963
282.86	0.3927
283.212	0.3892
283.564	0.3851
283.916	0.3806
284.267	0.377
284.619	0.3736
284.971	0.37
285.322	0.3658
285.673	0.362
286.025	0.3582
286.376	0.3542
286.727	0.3496
287.078	0.3461
287.429	0.3428
287.78	0.3375
288.131	0.3341
288.482	0.3292
288.833	0.3272
289.183	0.3222
289.534	0.3183
289.884	0.3145
290.235	0.3116
290.585	0.3063
290.935	0.3025
291.285	0.2998
291.635	0.2962
291.985	0.2918
292.335	0.2884
292.685	0.2846
293.035	0.2801
293.384	0.2765
293.734	0.2736
294.083	0.2696
294.433	0.2649
294.782	0.2625
295.131	0.2593
295.48	0.2556
295.829	0.2532
296.179	0.248
296.527	0.245
296.876	0.2423
297.225	0.239
297.574	0.2354
297.922	0.2327
298.271	0.2301
298.619	0.2254
298.968	0.2238
299.316	0.2206
299.664	0.2175
300.012	0.2153
300.36	0.2109
300.708	0.209
301.056	0.2065
301.404	0.2041
301.752	0.201
302.099	0.1985
302.447	0.1971
302.794	0.1939
303.142	0.1919
303.489	0.1898
303.836	0.1879
304.183	0.1857
304.531	0.1837
304.878	0.1825
305.224	0.18
305.571	0.1784
305.918	0.1771
306.265	0.175
306.611	0.173
306.958	0.172
307.304	0.171
307.651	0.17
307.997	0.1682
308.343	0.1672
308.689	0.1665
309.035	0.1656
309.381	0.1646
309.727	0.1636
310.073	0.1626
310.419	0.1621
310.764	0.1613
311.11	0.1614
311.455	0.1599
311.801	0.1592
312.146	0.1588
312.491	0.1588
312.837	0.1588
313.182	0.1582
313.527	0.1581
313.872	0.1576
314.216	0.1581
314.561	0.1573
314.906	0.1578
315.251	0.1573
315.595	0.1575
315.94	0.1578
316.284	0.1575
316.628	0.1573
316.972	0.1578
317.317	0.1583
317.661	0.1593
318.005	0.1591
318.348	0.1596
318.692	0.1596
319.036	0.1601
319.38	0.1602
319.723	0.1616
320.067	0.1617
320.41	0.1624
320.754	0.1631
321.097	0.1636
321.44	0.1647
321.783	0.1649
322.126	0.1658
322.469	0.1682
322.812	0.1683
323.155	0.1694
323.498	0.1706
323.84	0.1713
324.183	0.1719
324.525	0.1732
324.868	0.174
325.21	0.1754
325.552	0.1764
325.894	0.1777
326.236	0.1789
326.578	0.1799
326.92	0.1813
327.262	0.1817
327.604	0.1834
327.946	0.1849
328.287	0.1859
328.629	0.1863
328.97	0.1882
329.312	0.1892
329.653	0.1905
329.994	0.1921
330.335	0.1932
330.676	0.1942
331.017	0.1949
331.358	0.1969
331.699	0.1985
332.04	0.2001
332.38	0.2005
332.721	0.2032
333.061	0.2032
333.402	0.2053
333.742	0.2064
334.083	0.2081
334.423	0.2087
334.763	0.2095
335.103	0.2111
335.443	0.212
335.783	0.213
336.123	0.2137
336.462	0.2156
336.802	0.2162
337.141	0.2174
337.481	0.2186
337.82	0.2189
338.16	0.2197
338.499	0.2213
338.838	0.2217
339.177	0.2236
339.516	0.2241
339.855	0.2262
340.194	0.2257
340.533	0.2275
340.872	0.228
341.21	0.2286
341.549	0.2295
341.887	0.2297
342.226	0.2305
342.564	0.2304
342.902	0.2315
343.24	0.2318
343.578	0.232
343.916	0.2323
344.254	0.2323
344.592	0.2325
344.93	0.2336
345.268	0.2336
345.605	0.2333
345.943	0.2333
346.28	0.2338
346.618	0.234
346.955	0.2342
347.292	0.2343
347.629	0.2352
347.966	0.235
348.303	0.2348
348.64	0.2346
348.977	0.2345
349.314	0.2345
349.65	0.2352
349.987	0.2352
350.324	0.234
350.66	0.2341
350.996	0.2339
351.333	0.2328
351.669	0.2326
352.005	0.2315
352.341	0.2312
352.677	0.2302
353.013	0.2291
353.349	0.2286
353.685	0.2274
354.02	0.2265
354.356	0.2258
354.691	0.2246
355.027	0.2241
355.362	0.2219
355.697	0.2216
356.033	0.2204
356.368	0.2195
356.703	0.2183
357.038	0.2181
357.373	0.2166
357.707	0.2164
358.042	0.216
358.377	0.2143
358.711	0.2139
359.046	0.213
359.38	0.2112
359.715	0.2105
360.049	0.2092
360.383	0.2086
360.717	0.2073
361.051	0.205
361.385	0.2041
361.719	0.2022
362.053	0.2016
362.387	0.1985
362.72	0.1972
363.054	0.1959
363.387	0.1941
363.721	0.1922
364.054	0.1908
364.387	0.1887
364.721	0.1879
365.054	0.1861
365.387	0.1842
365.72	0.1825
366.053	0.181
366.385	0.1793
366.718	0.1784
367.051	0.1764
367.383	0.175
367.716	0.174
368.048	0.1733
368.381	0.1714
368.713	0.1698
369.045	0.1691
369.377	0.167
369.709	0.1663
370.041	0.1649
370.373	0.1636
370.705	0.1621
371.037	0.1601
371.368	0.1587
371.7	0.1572
372.031	0.156
372.363	0.1535
372.694	0.1523
373.025	0.1503
373.356	0.1483
373.688	0.146
374.019	0.144
374.35	0.1426
374.68	0.1399
375.011	0.1378
375.342	0.1366
375.673	0.1351
376.003	0.1328
376.334	0.1314
376.664	0.1297
376.995	0.1284
377.325	0.1266
377.655	0.1256
377.985	0.1243
378.315	0.1224
378.645	0.1217
378.975	0.12
379.305	0.119
379.635	0.1178
379.964	0.1166
380.294	0.115
380.623	0.1132
380.953	0.1124
381.282	0.1118
381.611	0.1098
381.941	0.1084
382.27	0.1074
382.599	0.1058
382.928	0.1041
383.257	0.103
383.585	0.1017
383.914	0.1007
384.243	0.0992
384.571	0.0971
384.9	0.0956
385.228	0.0941
385.557	0.0927
385.885	0.091
386.213	0.0893
386.541	0.088
386.869	0.0861
387.197	0.0847
387.525	0.0834
387.853	0.0816
388.181	0.0811
388.508	0.0798
388.836	0.0786
389.164	0.0775
389.491	0.0763
389.818	0.0749
390.146	0.0737
390.473	0.0728
390.8	0.0721
391.127	0.0706
391.454	0.0697
391.781	0.0692
392.108	0.0679
392.435	0.0662
392.761	0.0653
393.088	0.0651
393.415	0.0641
393.741	0.0643
394.067	0.0625
394.394	0.062
394.72	0.0611
395.046	0.0603
395.372	0.0594
395.698	0.0579
396.024	0.0578
396.35	0.0571
396.676	0.0566
397.001	0.0557
397.327	0.0548
397.653	0.0539
397.978	0.0523
398.303	0.0518
398.629	0.0512
398.954	0.0509
399.279	0.0505
399.604	0.049
399.929	0.0492
400.254	0.0485
400.579	0.048
400.904	0.047
401.229	0.0461
401.553	0.045
401.878	0.045
402.202	0.0448
402.527	0.0445
402.851	0.0441
403.175	0.043
403.5	0.0436
403.824	0.0429
404.148	0.0423
404.472	0.0427
404.796	0.0417
405.119	0.0416
405.443	0.0415
405.767	0.0403
406.09	0.0404
406.414	0.0408
406.737	0.0402
407.061	0.0401
407.384	0.0401
407.707	0.04
408.03	0.0398
408.353	0.0399
408.676	0.0393
408.999	0.039
409.322	0.0392
409.645	0.0396
409.968	0.0387
410.29	0.0388
410.613	0.0387
410.935	0.0382
411.258	0.0389
411.58	0.0379
411.902	0.038
412.224	0.0384
412.546	0.0384
412.868	0.0383
413.19	0.0384
413.512	0.0379
413.834	0.0384
414.156	0.039
414.477	0.0379
414.799	0.0383
415.121	0.0384
415.442	0.0384
415.763	0.0384
416.085	0.0386
416.406	0.0386
416.727	0.0381
417.048	0.0385
417.369	0.0379
417.69	0.0387
418.011	0.0384
418.331	0.0381
418.652	0.0385
418.973	0.0386
419.293	0.0388
419.614	0.0388
419.934	0.0386
420.254	0.0389
420.574	0.0382
420.895	0.0384
421.215	0.0383
421.535	0.0382
421.855	0.0389
422.174	0.0377
422.494	0.0385
422.814	0.039
423.134	0.039
423.453	0.0391
423.773	0.0388
424.092	0.0385
424.411	0.0388
424.731	0.0388
425.05	0.0389
425.369	0.0394
425.688	0.039
426.007	0.0396
426.326	0.0396
426.644	0.0412
426.963	0.0401
427.282	0.0403
427.6	0.0397
427.919	0.0396
428.237	0.0402
428.556	0.0404
428.874	0.0403
429.192	0.0393
429.51	0.04
429.828	0.0403
430.146	0.04
430.464	0.0403
430.782	0.04
431.1	0.0402
431.418	0.0398
431.735	0.0398
432.053	0.0406
432.37	0.0404
432.688	0.0402
433.005	0.0399
433.322	0.0403
433.639	0.0405
433.957	0.0401
434.274	0.0411
434.591	0.0406
434.907	0.0415
435.224	0.0404
435.541	0.0408
435.858	0.0413
436.174	0.0414
436.491	0.0408
436.807	0.0405
437.124	0.0401
437.44	0.0398
437.756	0.0396
438.072	0.0403
438.388	0.0413
438.704	0.0407
439.02	0.0408
439.336	0.0404
439.652	0.0405
439.968	0.041
440.283	0.0404
440.599	0.0407
440.914	0.0405
441.23	0.0399
441.545	0.0401
441.86	0.0405
442.175	0.0409
442.491	0.0405
442.806	0.0399
443.121	0.0408
443.435	0.04
443.75	0.0403
444.065	0.0397
444.38	0.0408
444.694	0.0403
445.009	0.0395
445.323	0.0396
445.638	0.0402
445.952	0.0402
446.266	0.0399
446.58	0.0405
446.894	0.04
447.208	0.0404
447.522	0.0401
447.836	0.039
448.15	0.039
448.464	0.0385
448.777	0.0395
449.091	0.0388
449.404	0.0398
449.718	0.0404
450.031	0.0389
450.345	0.0385
450.658	0.0385
450.971	0.0388
451.284	0.0387
451.597	0.0385
451.91	0.0393
452.223	0.038
452.535	0.0388
452.848	0.0379
453.161	0.0383
453.473	0.0386
453.786	0.0386
454.098	0.038
454.411	0.0382
454.723	0.0375
455.035	0.038
455.347	0.038
455.659	0.038
455.971	0.0378
456.283	0.0381
456.595	0.0372
456.907	0.0379
457.218	0.0382
457.53	0.0373
457.841	0.0364
458.153	0.036
458.464	0.0358
458.776	0.035
459.087	0.0356
459.398	0.0366
459.709	0.0356
460.02	0.0357
460.331	0.0353
460.642	0.0351
460.953	0.035
461.263	0.0354
461.574	0.035
461.885	0.0347
462.195	0.0348
462.506	0.0344
462.816	0.0348
463.126	0.0334
463.437	0.0335
463.747	0.0332
464.057	0.033
464.367	0.0339
464.677	0.0332
464.987	0.0335
465.296	0.0324
465.606	0.032
465.916	0.0321
466.225	0.0317
466.535	0.032
466.844	0.0322
467.154	0.0314
467.463	0.0314
467.772	0.0315
468.081	0.0314
468.39	0.0306
468.699	0.0309
469.008	0.0313
469.317	0.031
469.626	0.0305
469.935	0.0297
470.243	0.0306
470.552	0.0308
470.86	0.03
471.169	0.0297
471.477	0.0295
471.785	0.0294
472.093	0.0292
472.402	0.0292
472.71	0.0285
473.018	0.0288
473.326	0.028
473.633	0.0281
473.941	0.0281
474.249	0.0277
474.556	0.0278
474.864	0.0271
475.171	0.0266
475.479	0.0268
475.786	0.0273
476.094	0.0271
476.401	0.0272
476.708	0.0259
477.015	0.0267
477.322	0.0263
477.629	0.0262
477.936	0.0255
478.242	0.0254
478.549	0.0257
478.856	0.0245
479.162	0.025
479.469	0.0253
479.775	0.0256
480.081	0.0237
480.388	0.0247
480.694	0.0239
481	0.0234
481.306	0.0233
481.612	0.0237
481.918	0.0232
482.224	0.0229
482.53	0.0229
482.835	0.0225
483.141	0.0219
483.446	0.0223
483.752	0.0221
484.057	0.0213
484.363	0.021
484.668	0.0204
484.973	0.0211
485.278	0.0207
485.583	0.0203
485.888	0.0194
486.193	0.0199
486.498	0.0199
486.803	0.0205
487.107	0.0198
487.412	0.019
487.717	0.019
488.021	0.0191
488.325	0.0189
488.63	0.0183
488.934	0.0185
489.238	0.0198
489.542	0.0188
489.846	0.0176
490.15	0.0192
490.454	0.0178
490.758	0.0186
491.062	0.0173
491.366	0.0168
491.669	0.0176
491.973	0.0169
492.276	0.0167
492.58	0.0153
492.883	0.0171
493.186	0.0159
493.489	0.0162
493.792	0.0167
494.096	0.0163
494.399	0.0163
494.701	0.0164
495.004	0.0157
495.307	0.015
495.61	0.015
495.912	0.0146
496.215	0.0148
496.517	0.0139
496.82	0.0141
497.122	0.0137
497.424	0.0139
497.727	0.0136
498.029	0.0145
498.331	0.0144
498.633	0.0137
498.935	0.0129
499.237	0.0142
499.538	0.0129
499.84	0.0131
500.142	0.0134
500.443	0.0126
500.745	0.0124
501.046	0.0134
501.348	0.0123
501.649	0.0128
501.95	0.011
502.251	0.0124
502.552	0.0107
502.853	0.0111
503.154	0.0109
503.455	0.0105
503.756	0.0114
504.057	0.0112
504.357	0.011
504.658	0.0104
504.958	0.0106
505.259	0.0112
505.559	0.0107
505.859	0.0109
506.16	0.011
506.46	0.0108
506.76	0.0105
507.06	0.0096
507.36	0.0104
507.66	0.0102
507.96	0.0099
508.259	0.0095
508.559	0.0083
508.859	0.0099
509.158	0.0087
509.457	0.0084
509.757	0.0097
510.056	0.0088
510.355	0.009
510.655	0.0081
510.954	0.0088
511.253	0.0084
511.552	0.0087
511.851	0.0077
512.149	0.0073
512.448	0.0073
512.747	0.0088
513.045	0.0069
513.344	0.0084
513.642	0.0082
513.941	0.0075
514.239	0.0082
514.537	0.0072
514.836	0.0076
515.134	0.0065
515.432	0.0073
515.73	0.0073
516.028	0.0065
516.326	0.0082
516.623	0.0073
516.921	0.0068
517.219	0.0074
517.516	0.0073
517.814	0.0073
518.111	0.0069
518.409	0.0081
518.706	0.0074
519.003	0.0071
519.3	0.0064
519.597	0.0064
519.894	0.006
520.191	0.0066
520.488	0.0063
520.785	0.006
521.082	0.0058
521.378	0.0059
521.675	0.0041
521.971	0.0055
522.268	0.005
522.564	0.0061
522.861	0.0057
523.157	0.005
523.453	0.0056
523.749	0.0064
524.045	0.0066
524.341	0.0057
524.637	0.0045
524.933	0.0051
525.229	0.0054
525.524	0.0048
525.82	0.0055
526.115	0.0053
526.411	0.0052
526.706	0.0054
527.002	0.0053
527.297	0.0042
527.592	0.0057
527.887	0.0057
528.182	0.0052
528.477	0.0061
528.772	0.0045
529.067	0.005
529.362	0.0048
529.657	0.0051
529.951	0.0043
530.246	0.0043
530.54	0.003
530.835	0.003
531.129	0.0038
531.423	0.0048
531.718	0.0034
532.012	0.0024
532.306	0.0036
532.6	0.0034
532.894	0.0035
533.188	0.0048
533.482	0.0033
533.775	0.0041
534.069	0.0036
534.363	0.0022
534.656	0.0033
534.95	0.0022
535.243	0.0029
535.536	0.0036
535.83	0.0036
536.123	0.0025
536.416	0.0036
536.709	0.004
537.002	0.0036
537.295	0.0039
537.588	0.0039
537.881	0.003
538.173	0.0025
538.466	0.0032
538.759	0.003
539.051	0.0024
539.344	0.0024
539.636	0.0025
539.928	0.0031
540.22	0.0034
540.513	0.0035
540.805	0.003
541.097	0.0027
541.389	0.003
541.681	0.0028
541.972	0.0038
542.264	0.0029
542.556	0.0028
542.847	0.0027
543.139	0.0031
543.431	0.004
543.722	0.0042
544.013	0.0046
544.305	0.0043
544.596	0.0044
544.887	0.0033
545.178	0.0039
545.469	0.0029
545.76	0.0027
546.051	0.0039
546.342	0.0042
546.632	0.0015
546.923	0.0034
547.214	0.0028
547.504	0.0026
547.795	0.0036
548.085	0.0034
548.375	0.0033
548.666	0.0024
548.956	0.0018
549.246	0.0041
549.536	0.0022
549.826	0.0035
550.116	0.0037
550.406	0.0035
550.695	0.0045
550.985	0.0041
551.275	0.0041
551.564	0.0036
551.854	0.0035
552.143	0.0037
552.433	0.004
552.722	0.003
553.011	0.0033
553.3	0.0032
553.589	0.0024
553.879	0.0027
554.167	0.0045
554.456	0.0036
554.745	0.0031
555.034	0.003
555.323	0.0025
555.611	0.0024
555.9	0.0041
556.188	0.0024
556.477	0.0031
556.765	0.0027
557.053	0.003
557.342	0.0019
557.63	0.0036
557.918	0.0025
558.206	0.0028
558.494	0.0046
558.782	0.0033
559.069	0.0021
559.357	0.0033
559.645	0.0024
559.932	0.0027
560.22	0.0037
560.507	0.0026
560.795	0.0036
561.082	0.0031
561.37	0.003
561.657	0.0034
561.944	0.0035
562.231	0.0035
562.518	0.0018
562.805	0.0041
563.092	0.0034
563.379	0.003
563.665	0.0028
563.952	0.0036
564.239	0.0039
564.525	0.0038
564.811	0.0043
565.098	0.0039
565.384	0.0046
565.67	0.0043
565.957	0.0048
566.243	0.0034
566.529	0.0048
566.815	0.0053
567.101	0.0038
567.387	0.0037
567.672	0.0029
567.958	0.0037
568.244	0.0033
568.529	0.003
568.815	0.0026
569.1	0.003
569.386	0.003
569.671	0.003
569.956	0.0034
570.242	0.0035
570.527	0.004
570.812	0.0041
571.097	0.0041
571.382	0.0034
571.666	0.0032
571.951	0.0032
572.236	0.0038
572.521	0.0028
572.805	0.004
573.09	0.0026
573.374	0.0027
573.659	0.0025
573.943	0.0026
574.227	0.0033
574.511	0.0036
574.795	0.0034
575.079	0.0028
575.363	0.0029
575.647	0.0027
575.931	0.0038
576.215	0.0036
576.499	0.0026
576.782	0.003
577.066	0.0031
577.349	0.0028
577.633	0.0037
577.916	0.0036
578.2	0.0037
578.483	0.0035
578.766	0.0027
579.049	0.0043
579.332	0.0031
579.615	0.0029
579.898	0.003
580.181	0.0033
580.464	0.003
580.746	0.002
581.029	0.0031
581.312	0.0019
581.594	0.0026
581.877	0.0033
582.159	0.0036
582.441	0.0037
582.724	0.0024
583.006	0.0023
583.288	0.0022
583.57	0.0023
583.852	0.002
584.134	0.0022
584.416	0.0027
584.697	0.0028
584.979	0.0029
585.261	0.0027
585.542	0.0026
585.824	0.0034
586.105	0.0032
586.387	0.0015
586.668	0.0027
586.949	0.0027
587.231	0.0018
587.512	0.003
587.793	0.0025
588.074	0.003
588.355	0.0028
588.636	0.0039
588.916	0.0024
589.197	0.0032
589.478	0.0031
589.758	0.0031
590.039	0.0032
590.319	0.0032
590.6	0.0033
590.88	0.0019
591.16	0.0032
591.441	0.003
591.721	0.0031
592.001	0.0023
592.281	0.003
592.561	0.0031
592.841	0.0026
593.12	0.003
593.4	0.0024
593.68	0.0029
593.959	0.003
594.239	0.004
594.518	0.0023
594.798	0.0029
595.077	0.0034
595.356	0.0031
595.636	0.0032
595.915	0.0032
596.194	0.0032
596.473	0.0033
596.752	0.003
597.031	0.0021
597.31	0.0016
597.588	0.0026
597.867	0.0019
598.146	0.0024
598.424	0.0018
598.703	0.0025
598.981	0.0031
599.259	0.0029
599.538	0.0028
599.816	0.0031
600.094	0.0025
600.372	0.003
600.65	0.0034
600.928	0.0034
601.206	0.0034
601.484	0.0035
601.762	0.0034
602.04	0.0033
602.317	0.0039
602.595	0.0023
602.872	0.0026
603.15	0.002
603.427	0.0016
603.704	0.0017
603.982	0.0021
604.259	0.0019
604.536	0.0021
604.813	0.0023
605.09	0.0024
605.367	0.0021
605.644	0.0023
605.921	0.0026
606.197	0.0024
606.474	0.002
606.751	0.0018
607.027	0.003
607.304	0.0018
607.58	0.0024
607.856	0.0021
608.133	0.0028
608.409	0.0029
608.685	0.0025
608.961	0.0026
609.237	0.0028
609.513	0.0027
609.789	0.0029
610.065	0.0017
610.341	0.0023
610.616	0.0032
610.892	0.0034
611.167	0.0038
611.443	0.0028
611.718	0.0034
611.994	0.0032
612.269	0.003
612.544	0.0021
612.819	0.0019
613.095	0.0028
613.37	0.0026
613.645	0.0021
613.919	0.0018
614.194	0.0027
614.469	0.0014
614.744	0.001
615.019	0.0014
615.293	0.001
615.568	0.0006
615.842	0.0013
616.116	0.0008
616.391	0.0004
616.665	0.0021
616.939	0.0016
617.213	0.002
617.488	0.001
617.762	0.0011
618.035	0.0014
618.309	0.0016
618.583	0.0017
618.857	0.0016
619.131	0.0012
619.404	0.0014
619.678	0.001
619.951	0.0005
620.225	0.0011
620.498	0.0023
620.771	0.0018
621.045	0.0028
621.318	0.0016
621.591	0.0018
621.864	0.0015
622.137	0.0007
622.41	0.0017
622.683	0.0012
622.956	0.0017
623.228	0.0027
623.501	0.0029
623.774	0.0028
624.046	0.0022
624.319	0.0017
624.591	0.0006
624.863	0.0018
625.136	0.0015
625.408	0.0019
625.68	0.0021
625.952	0.0017
626.224	0.0021
626.496	0.0014
626.768	0.0016
627.04	0.001
627.311	0.0011
627.583	0.0017
627.855	0.0023
628.126	0.0021
628.398	0.0021
628.669	0.0017
628.941	0.0016
629.212	0.0007
629.483	0.0017
629.755	0.001
630.026	-0.0002
630.297	0.0006
630.568	-0.0003
630.839	-0.0001
631.11	0.0001
631.38	-0.0002
631.651	0.0001
631.922	-0.0007
632.192	-0.0005
632.463	-0.0011
632.733	0.0008
633.004	0.0001
633.274	-0.0008
633.545	0.0019
633.815	0.0031
634.085	0.0027
634.355	0.0017
634.625	0.003
634.895	0.0015
635.165	0.0009
635.435	0.0014
635.705	0.0012
635.974	0.0007
636.244	0.0015
636.514	0.002
636.783	0.0008
637.053	0.0023
637.322	0.0007
637.591	0.0021
637.861	0.0017
638.13	0.0017
638.399	0.0026
638.668	0.0017
638.937	0.0006
639.206	0.002
639.475	0.0014
639.744	0.0015
640.013	0.0021
640.281	0.0031
640.55	0.0024
640.819	0.0026
641.087	0.0025
641.356	0.0021
641.624	0.0021
641.892	0.0019
642.161	0.0023
642.429	0.0033
642.697	0.0019
642.965	0.0032
643.233	0.0017
643.501	0.0014
643.769	0.0013
644.037	0.0013
644.305	0.0002
644.572	-0.0003
644.84	-0.0006
645.108	0.0004
645.375	0.0002
645.643	0.0005
645.91	0.0002
646.177	0.0025
646.445	0.0042
646.712	0.0039
646.979	0.0038
647.246	0.0048
647.513	0.0036
647.78	0.0027
648.047	0.0034
648.314	0.0028
648.58	0.0019
648.847	0.0016
649.114	0.0001
649.38	-0.0002
649.647	0.0009
649.913	0.0005
650.18	0.0014
650.446	0.0014
650.712	0.0013
650.978	0.0025
651.245	0.0018
651.511	0.0022
651.777	0.0014
652.043	0.0025
652.309	0.0024
652.574	0.0028
652.84	0.0023
653.106	0.0011
653.371	0.0002
653.637	0.0018
653.903	0.0029
654.168	0.0022
654.433	0.0037
654.699	0.0023
654.964	0.0029
655.229	0.0027
655.494	0.0027
655.759	0.0006
656.024	0.0005
656.289	-0
656.554	-0.0002
656.819	-0
657.084	0.0017
657.349	0.003
657.613	0.0025
657.878	0.0024
658.142	0.0031
658.407	0.0029
658.671	0.0023
658.936	0.0018
659.2	0.0009
659.464	0.0014
659.728	0.001
659.992	0.002
660.256	0.0012
660.52	0.0002
660.784	0.0009
661.048	0
661.312	-0.0005
661.575	-0.0014
661.839	-0.0026
662.103	-0.0017
662.366	-0.002
662.63	-0.0008
662.893	-0.0005
663.156	-0.0007
663.42	-0.0007
663.683	-0.0003
663.946	0.0013
664.209	0.0024
664.472	0.0018
664.735	0.0024
664.998	0.0019
665.261	0.0008
665.524	0.0008
665.786	0.0005
666.049	0.0019
666.312	0.0014
666.574	0.0018
666.837	0.0015
667.099	-0.0003
667.361	-0.0005
667.624	-0.0007
667.886	-0.0001
668.148	0.0006
668.41	0.0018
668.672	0.0007
668.934	0.0003
669.196	0.0008
669.458	0.0014
669.72	0.0017
669.982	0.0017
670.243	0.0026
670.505	0.0015
670.766	0.0016
671.028	0.001
671.289	0.0011
671.551	0.0007
671.812	-0.0001
672.073	0.0012
672.334	0.0004
672.596	0
672.857	0.0001
673.118	0.0007
673.379	-0.0007
673.639	-0.0011
673.9	-0.0007
674.161	-0.0018
674.422	-0.0034
674.682	-0.0025
674.943	-0.0021
675.203	-0.0014
675.464	-0.0011
675.724	0.0003
675.985	0.0007
676.245	0.0006
676.505	0.0016
676.765	0.001
677.025	0.0007
677.285	0.0013
677.545	0.0027
677.805	0.003
678.065	0.0031
678.325	0.0034
678.585	0.0019
678.844	0.0014
679.104	0.0016
679.363	0.0016
679.623	0.0028
679.882	0.0026
680.142	0.003
680.401	0.0034
680.66	0.0035
680.919	0.0033
681.178	0.0046
681.437	0.0041
681.696	0.0033
681.955	0.0038
682.214	0.0044
682.473	0.0038
682.732	0.0032
682.99	0.0021
683.249	0.0029
683.508	0.0037
683.766	0.003
684.024	0.0032
684.283	0.0038
684.541	0.0032
684.799	0.0034
685.058	0.0027
685.316	0.0024
685.574	0.0027
685.832	0.0036
686.09	0.0028
686.348	0.0044
686.606	0.0034
686.863	0.0039
687.121	0.004
687.379	0.0035
687.636	0.0038
687.894	0.0041
688.151	0.0045
688.409	0.0043
688.666	0.003
688.923	0.0039
689.181	0.0028
689.438	0.0024
689.695	0.0026
689.952	0.0003
690.209	0.0008
690.466	0.0014
690.723	0.0034
690.979	0.0026
691.236	0.0019
691.493	0.0019
691.75	0.0026
692.006	0.0029
692.263	0.0028
692.519	0.0028
692.775	0.0018
693.032	0.0009
693.288	0.0015
693.544	0.0016
693.8	0.0025
694.056	0.0021
694.313	0.0024
694.568	0.0018
694.824	0.0018
695.08	0.0029
695.336	0.0025
695.592	0.002
695.847	0.0026
696.103	0.0027
696.359	0.0018
696.614	0.0019
696.869	0.001
697.125	0.0007
697.38	-0.0001
697.635	-0.0005
697.891	-0.0002
698.146	0.0003
698.401	0.0018
698.656	0.0009
698.911	0.0019
699.166	0.0018
699.42	0.0008
699.675	0.0011
699.93	-0.0003
700.185	0.0004
700.439	0.0023
700.694	0.0015
700.948	0.0019
701.203	0.002
701.457	0.0016
701.711	0.001
701.965	-0.0003
702.22	-0.0005
702.474	0.0002
702.728	-0.0012
702.982	-0.001
703.236	-0.0006
703.49	-0.0003
703.743	-0.0005
703.997	0.0001
704.251	0.0002
704.504	0.0019
704.758	0.0009
705.012	-0.0001
705.265	0.0002
705.518	-0.0002
705.772	-0.0005
706.025	-0.0006
706.278	-0.0009
706.531	-0.0009
706.785	-0.0013
707.038	0.0005
707.291	-0.0005
707.543	0.0004
707.796	-0.0003
708.049	-0.0009
708.302	-0.0009
708.555	-0.0002
708.807	0.0006
709.06	-0.0009
709.312	-0.002
709.565	-0.0017
709.817	-0.0017
710.069	-0.0012
710.322	-0.0009
710.574	-0.001
710.826	-0.0001
711.078	-0.0001
711.33	0
711.582	-0.0004
711.834	0.0011
712.086	0.0018
712.338	0.0027
712.59	0.0023
712.841	0.0017
713.093	0.0021
713.344	0.0018
713.596	0.001
713.847	0.0027
714.099	0.002
714.35	0.0025
714.601	0.0026
714.853	0.0033
715.104	0.003
715.355	0.0017
715.606	0.0021
715.857	0.0021
716.108	0.0024
716.359	0.0025
716.609	0.0028
716.86	0.0018
717.111	0.0009
717.361	0.0002
717.612	0.0004
717.863	0.0003
718.113	0.0003
718.363	0.0005
718.614	-0.0003
718.864	0.0005
719.114	0.0004
719.364	0.0002
719.614	-0.0004
719.865	-0.0018
720.114	-0.0005
720.364	-0.0003
720.614	0.0017
720.864	0.0018
721.114	0.0016
721.364	0.0027
721.613	0.0029
721.863	0.0032
722.112	0.0035
722.362	0.0034
722.611	0.0028
722.86	0.0021
723.11	0.0012
723.359	0.0017
723.608	0.0024
723.857	0.0031
724.106	0.0048
724.355	0.0047
724.604	0.0051
724.853	0.0048
725.102	0.0036
725.351	0.0029
725.599	0.0024
725.848	0.0017
726.097	0.0015
726.345	0.0019
726.594	0.0016
726.842	0.001
727.09	0.0014
727.339	0.0013
727.587	0.0005
727.835	0
728.083	-0.0007
728.331	-0.0011
728.579	-0.0011
728.827	-0.0006
729.075	0
729.323	0.0008
729.571	0.0019
729.818	0.002
730.066	0.0021
730.314	0.002
730.561	0.0005
730.809	-0.0009
731.056	-0.0002
731.303	-0.0003
731.551	0.0003
731.798	0.0008
732.045	0.0004
732.292	0.0009
732.539	0.001
732.786	0.0012
733.033	0.0014
733.28	0.0025
733.527	0.0033
733.774	0.0022
734.021	0.0037
734.267	0.0036
734.514	0.0034
734.76	0.003
735.007	0.0043
735.253	0.0046
735.5	0.0046
735.746	0.0047
735.992	0.0044
736.238	0.0041
736.485	0.0056
736.731	0.005
736.977	0.0044
737.223	0.0032
737.469	0.005
737.715	0.005
737.96	0.006
738.206	0.0056
738.452	0.0074
738.697	0.0078
738.943	0.0063
739.189	0.0055
739.434	0.0033
739.679	0.0024
739.925	0.0026
740.17	0.0019
740.415	0.0015
740.66	0.0034
740.906	0.0032
741.151	0.0031
741.396	0.0028
741.641	0.0053
741.886	0.0058
742.13	0.0057
742.375	0.0061
742.62	0.0066
742.865	0.0056
743.109	0.0045
743.354	0.0043
743.598	0.0054
743.843	0.0048
744.087	0.0045
744.331	0.0049
744.576	0.0048
744.82	0.0047
745.064	0.0037
745.308	0.0034
745.552	0.0036
745.796	0.0033
746.04	0.0035
746.284	0.0022
746.528	0.0002
746.771	0.002
747.015	0.0011
747.259	0.0017
747.502	0.0019
747.746	0.0027
747.989	0.0025
748.233	0.0033
748.476	0.0033
748.719	0.0038
748.963	0.0046
749.206	0.0046
749.449	0.0047
749.692	0.0039
749.935	0.0051
750.178	0.0043
750.421	0.004
750.664	0.004
750.906	0.0035
751.149	0.0028
751.392	0.0018
751.635	0.0004
751.877	0.0003
752.12	-0.0006
752.362	0.0007
752.604	0.0009
752.847	0.0012
753.089	0.0009
753.331	0.0017
753.573	0.0028
753.816	0.0024
754.058	0.0034
754.3	0.0033
754.542	0.0042
754.783	0.0039
755.025	0.0031
755.267	0.0022
755.509	0.002
755.75	0.0019
755.992	0.0029
756.234	0.0011
756.475	-0.0001
756.716	0
756.958	0.0002
757.199	0.0008
757.44	0.0012
757.682	0.001
757.923	0.0004
758.164	0.0003
758.405	0.0001
758.646	0
758.887	-0.0004
759.128	0.0003
759.369	-0.0002
759.609	-0.0006
759.85	-0.0004
760.091	0.0001
760.331	0
760.572	-0.001
760.812	-0.0009
761.053	-0.001
761.293	0.0001
761.533	0.0004
761.774	0.0005
762.014	0.0008
762.254	0.0009
762.494	-0.0004
762.734	0.0002
762.974	-0.0003
763.214	-0.0007
763.454	-0.0011
763.694	-0.001
763.933	-0.0013
764.173	0
764.413	-0.0005
764.652	0.0001
764.892	0.0003
765.131	0.0008
765.371	0.001
765.61	0.0021
765.849	0.0013
766.089	0.0025
766.328	0.0027
766.567	0.0025
766.806	0.0029
767.045	0.0031
767.284	0.0032
767.523	0.0036
767.762	0.004
768.001	0.0032
768.239	0.0028
768.478	0.0021
768.717	0.002
768.955	0.0027
769.194	0.0015
769.432	0.0019
769.671	0.0021
769.909	0.0022
770.148	0.0026
770.386	0.0029
770.624	0.0026
770.862	0.0022
771.1	0.0019
771.338	0.0019
771.576	0.0023
771.814	0.0027
772.052	0.0027
772.29	0.0029
772.528	0.0036
772.765	0.0029
773.003	0.0033
773.24	0.0026
773.478	0.0025
773.716	0.0036
773.953	0.0033
774.19	0.004
774.428	0.0036
774.665	0.0038
774.902	0.0041
775.139	0.0027
775.376	0.0031
775.613	0.003
775.85	0.0036
776.087	0.0029
776.324	0.003
776.561	0.004
776.798	0.0054
777.034	0.0057
777.271	0.0076
777.508	0.0074
777.744	0.0076
777.981	0.006
778.217	0.0059
778.454	0.0058
778.69	0.0046
778.926	0.0046
779.162	0.0044
779.399	0.0035
779.635	0.0031
779.871	0.0025
780.107	0.0037
780.343	0.0037
780.579	0.0045
780.814	0.0042
781.05	0.0043
781.286	0.0041
781.522	0.0039
781.757	0.0059
781.993	0.0056
782.228	0.0054
782.464	0.0055
782.699	0.0048
782.934	0.0034
783.17	0.0045
783.405	0.0038
783.64	0.0036
783.875	0.003
784.11	0.0032
784.345	0.0046
784.58	0.0029
784.815	0.0027
785.05	0.0035
785.285	0.0019
785.52	0.0019
785.754	0.0027
785.989	0.0018
786.223	0.0009
786.458	0.0012
786.692	0.0009
786.927	0.0008
787.161	0.0008
787.396	0.0008
787.63	0
787.864	-0.0009
788.098	-0.0003
788.332	0.0005
788.566	0.0002
788.8	-0.0006
789.034	0.0003
789.268	0.0008
789.502	0.0004
789.736	0.0018
789.969	0.0019
790.203	0.0017
790.437	0.0015
790.67	0.0012
790.904	0.0016
791.137	-0.0002
791.37	-0.0004
791.604	-0.0006
791.837	0.0002
792.07	-0.0004
792.303	0.001
792.537	0.0003
792.77	0.0001
793.003	-0
793.236	-0.0011
793.469	-0.0012
793.701	-0.001
793.934	-0.0004
794.167	-0.0003
794.4	0.0001
794.632	-0.0003
794.865	-0.0009
795.097	-0.0002
795.33	0.0013
795.562	0.0004
795.795	0.0002
796.027	0.0013
796.259	0.0007
796.491	-0.0001
796.724	-0
796.956	0.001
797.188	0.001
797.42	0.0013
797.652	0.0006
797.883	0.0002
798.115	0.0001
798.347	-0.0003
798.579	-0.0018
798.81	-0.0017
799.042	-0.0019
799.274	-0.0023
799.505	-0.0028
799.737	-0.0026
799.968	-0.0018
800.199	-0.0017
800.431	-0.0021
800.662	-0.0009
800.893	-0.0007
801.124	-0.001
801.355	0.0002
801.586	0.0005
801.817	0
802.048	0.0003
802.279	-0.0002
802.51	0.0003
802.741	-0.0009
802.971	-0.0019
803.202	-0.0023
803.433	-0.002
803.663	-0.0012
803.894	-0.0013
804.124	-0.0006
804.354	-0.0009
804.585	-0.0016
804.815	-0.0008
805.045	-0.001
805.275	-0.0022
805.506	-0.0555
805.736	0.0721
805.966	-0.0303
806.196	0.2034
