Data from 03 0.2 mM BQDS 0.4 mM K2Cr2O7 1 M H2SO4 5 min_Absorbance_17-57-43-011.txt Node
Date: Wed Dec 08 17:57:43 EST 2021
User: kwabilab-user
Spectrometer: HDX00518
Trigger mode: 0
Integration Time (sec): 5.000000E-2
Scans to average: 50
Nonlinearity correction enabled: false
Boxcar width: 0
Storing dark spectrum: false
XAxis mode: Wavelengths
Number of Pixels in Spectrum: 2068
>>>>>Begin Spectral Data<<<<<
195.27	0.1298
195.642	0.0431
196.014	0.0742
196.386	-0.0383
196.758	0.0375
197.129	0.048
197.501	0.0257
197.872	0.1083
198.244	0.1287
198.615	0.1128
198.986	0.1148
199.357	0.1161
199.728	0.1113
200.099	0.1039
200.47	0.1243
200.841	0.1118
201.212	0.122
201.582	0.1154
201.953	0.1281
202.323	0.12
202.694	0.1107
203.064	0.1131
203.434	0.1192
203.804	0.1354
204.174	0.1195
204.544	0.1261
204.914	0.119
205.284	0.1137
205.653	0.1315
206.023	0.1267
206.393	0.1222
206.762	0.1207
207.131	0.1327
207.501	0.134
207.87	0.1511
208.239	0.1339
208.608	0.1325
208.977	0.1341
209.346	0.1335
209.715	0.1492
210.083	0.1458
210.452	0.1582
210.82	0.1404
211.189	0.1601
211.557	0.1446
211.925	0.1592
212.294	0.1712
212.662	0.1681
213.03	0.1861
213.398	0.1739
213.766	0.1825
214.133	0.2023
214.501	0.2067
214.869	0.2031
215.236	0.2376
215.604	0.2263
215.971	0.2497
216.338	0.2587
216.705	0.2855
217.072	0.3141
217.439	0.3278
217.806	0.3807
218.173	0.3825
218.54	0.4228
218.907	0.4527
219.273	0.4855
219.64	0.5265
220.006	0.5781
220.373	0.5959
220.739	0.6369
221.105	0.6757
221.471	0.6984
221.837	0.7351
222.203	0.7741
222.569	0.8184
222.935	0.839
223.3	0.8545
223.666	0.8864
224.031	0.9269
224.397	0.9326
224.762	0.9529
225.127	0.9779
225.493	0.9916
225.858	0.9986
226.223	1.0151
226.588	1.0235
226.952	1.0185
227.317	1.0226
227.682	1.0248
228.046	1.016
228.411	1.018
228.775	1.0161
229.14	1.0069
229.504	1.0125
229.868	1.0035
230.232	0.9984
230.596	0.9851
230.96	0.9885
231.324	0.9739
231.688	0.9702
232.052	0.9614
232.415	0.9543
232.779	0.9424
233.142	0.9367
233.505	0.9268
233.869	0.9208
234.232	0.9055
234.595	0.8946
234.958	0.8863
235.321	0.8783
235.684	0.8673
236.047	0.8613
236.409	0.8467
236.772	0.8422
237.134	0.8323
237.497	0.8221
237.859	0.8147
238.222	0.8027
238.584	0.798
238.946	0.7872
239.308	0.7814
239.67	0.7694
240.032	0.7651
240.393	0.753
240.755	0.7488
241.117	0.7402
241.478	0.7355
241.84	0.7273
242.201	0.7179
242.562	0.7112
242.924	0.7065
243.285	0.701
243.646	0.6944
244.007	0.6892
244.368	0.6853
244.728	0.679
245.089	0.673
245.45	0.6688
245.81	0.6665
246.171	0.6581
246.531	0.6541
246.891	0.6508
247.252	0.6469
247.612	0.6408
247.972	0.6368
248.332	0.6356
248.692	0.6293
249.051	0.6273
249.411	0.623
249.771	0.618
250.13	0.6145
250.49	0.6114
250.849	0.6091
251.208	0.6075
251.568	0.6029
251.927	0.6024
252.286	0.6005
252.645	0.5972
253.004	0.5943
253.363	0.5905
253.721	0.589
254.08	0.5874
254.439	0.5863
254.797	0.5818
255.155	0.5803
255.514	0.5793
255.872	0.5773
256.23	0.5738
256.588	0.5722
256.946	0.5718
257.304	0.568
257.662	0.568
258.02	0.5646
258.377	0.562
258.735	0.5617
259.093	0.5598
259.45	0.5585
259.807	0.5565
260.165	0.5532
260.522	0.5516
260.879	0.5479
261.236	0.5462
261.593	0.5453
261.95	0.5419
262.306	0.5413
262.663	0.5394
263.02	0.5383
263.376	0.5357
263.733	0.5332
264.089	0.5315
264.445	0.5293
264.802	0.5259
265.158	0.5265
265.514	0.5237
265.87	0.5214
266.226	0.5187
266.581	0.516
266.937	0.514
267.293	0.5134
267.648	0.5117
268.004	0.5073
268.359	0.5069
268.714	0.5014
269.07	0.5013
269.425	0.4982
269.78	0.4968
270.135	0.4927
270.49	0.4906
270.844	0.4894
271.199	0.4867
271.554	0.4832
271.908	0.4817
272.263	0.4769
272.617	0.4754
272.972	0.4738
273.326	0.4707
273.68	0.4685
274.034	0.4651
274.388	0.4632
274.742	0.4599
275.096	0.4557
275.45	0.4545
275.803	0.4514
276.157	0.4479
276.51	0.4449
276.864	0.4422
277.217	0.4379
277.571	0.4349
277.924	0.4326
278.277	0.4288
278.63	0.426
278.983	0.4215
279.336	0.4197
279.688	0.4167
280.041	0.4125
280.394	0.4086
280.746	0.406
281.099	0.4013
281.451	0.3976
281.803	0.3944
282.156	0.3914
282.508	0.3878
282.86	0.3838
283.212	0.3815
283.564	0.3773
283.916	0.3733
284.267	0.3705
284.619	0.3653
284.971	0.3623
285.322	0.3602
285.673	0.3542
286.025	0.3524
286.376	0.3475
286.727	0.3435
287.078	0.3404
287.429	0.3371
287.78	0.3327
288.131	0.3292
288.482	0.3255
288.833	0.3214
289.183	0.3186
289.534	0.314
289.884	0.3103
290.235	0.3065
290.585	0.3025
290.935	0.2989
291.285	0.2956
291.635	0.2922
291.985	0.2875
292.335	0.2843
292.685	0.2813
293.035	0.2772
293.384	0.2738
293.734	0.2697
294.083	0.2659
294.433	0.2618
294.782	0.2591
295.131	0.2554
295.48	0.2527
295.829	0.2487
296.179	0.2446
296.527	0.2422
296.876	0.2387
297.225	0.2365
297.574	0.2321
297.922	0.2296
298.271	0.2261
298.619	0.2222
298.968	0.2203
299.316	0.2168
299.664	0.2144
300.012	0.2113
300.36	0.208
300.708	0.2054
301.056	0.2025
301.404	0.2001
301.752	0.198
302.099	0.1954
302.447	0.1936
302.794	0.1912
303.142	0.1887
303.489	0.1866
303.836	0.1843
304.183	0.1827
304.531	0.1808
304.878	0.1786
305.224	0.1761
305.571	0.1754
305.918	0.1733
306.265	0.1717
306.611	0.1699
306.958	0.1689
307.304	0.168
307.651	0.166
307.997	0.1646
308.343	0.1635
308.689	0.163
309.035	0.1615
309.381	0.1607
309.727	0.1595
310.073	0.1592
310.419	0.1582
310.764	0.1573
311.11	0.1569
311.455	0.1563
311.801	0.1555
312.146	0.1549
312.491	0.1546
312.837	0.1542
313.182	0.1538
313.527	0.1535
313.872	0.1534
314.216	0.1528
314.561	0.1526
314.906	0.1526
315.251	0.1524
315.595	0.1523
315.94	0.1523
316.284	0.1521
316.628	0.1522
316.972	0.1522
317.317	0.152
317.661	0.1535
318.005	0.153
318.348	0.1533
318.692	0.1533
319.036	0.1535
319.38	0.1542
319.723	0.1552
320.067	0.1556
320.41	0.1561
320.754	0.1563
321.097	0.1572
321.44	0.1574
321.783	0.1577
322.126	0.1589
322.469	0.1603
322.812	0.1611
323.155	0.1613
323.498	0.1623
323.84	0.163
324.183	0.1641
324.525	0.1651
324.868	0.1662
325.21	0.1666
325.552	0.1683
325.894	0.1687
326.236	0.1701
326.578	0.1704
326.92	0.1714
327.262	0.1724
327.604	0.1737
327.946	0.1752
328.287	0.176
328.629	0.1772
328.97	0.1776
329.312	0.1788
329.653	0.1801
329.994	0.182
330.335	0.1825
330.676	0.1842
331.017	0.1848
331.358	0.186
331.699	0.1872
332.04	0.188
332.38	0.1891
332.721	0.1914
333.061	0.1916
333.402	0.1932
333.742	0.1941
334.083	0.1958
334.423	0.1963
334.763	0.1969
335.103	0.1983
335.443	0.1993
335.783	0.2001
336.123	0.1998
336.462	0.2021
336.802	0.2029
337.141	0.2037
337.481	0.2051
337.82	0.2056
338.16	0.2059
338.499	0.2071
338.838	0.2075
339.177	0.2095
339.516	0.2097
339.855	0.2111
340.194	0.212
340.533	0.2129
340.872	0.2132
341.21	0.2146
341.549	0.2151
341.887	0.2154
342.226	0.2154
342.564	0.2158
342.902	0.2168
343.24	0.2162
343.578	0.2168
343.916	0.2176
344.254	0.2169
344.592	0.218
344.93	0.2172
345.268	0.2183
345.605	0.2178
345.943	0.2178
346.28	0.2178
346.618	0.2182
346.955	0.2187
347.292	0.2184
347.629	0.219
347.966	0.2188
348.303	0.2186
348.64	0.2189
348.977	0.2186
349.314	0.2182
349.65	0.2187
349.987	0.2186
350.324	0.2176
350.66	0.2173
350.996	0.2171
351.333	0.2168
351.669	0.2159
352.005	0.2153
352.341	0.2152
352.677	0.2133
353.013	0.2127
353.349	0.2123
353.685	0.2108
354.02	0.2106
354.356	0.2098
354.691	0.2078
355.027	0.2074
355.362	0.2063
355.697	0.2057
356.033	0.2049
356.368	0.2041
356.703	0.2031
357.038	0.2031
357.373	0.2015
357.707	0.2011
358.042	0.199
358.377	0.1991
358.711	0.1979
359.046	0.1968
359.38	0.1956
359.715	0.1954
360.049	0.1943
360.383	0.1934
360.717	0.1921
361.051	0.1903
361.385	0.189
361.719	0.1865
362.053	0.1864
362.387	0.1838
362.72	0.1828
363.054	0.1811
363.387	0.1796
363.721	0.1785
364.054	0.1758
364.387	0.1743
364.721	0.1733
365.054	0.1712
365.387	0.1696
365.72	0.1684
366.053	0.1674
366.385	0.1652
366.718	0.1639
367.051	0.1625
367.383	0.1609
367.716	0.1599
368.048	0.1593
368.381	0.1579
368.713	0.1565
369.045	0.156
369.377	0.1537
369.709	0.1528
370.041	0.1511
370.373	0.1503
370.705	0.1489
371.037	0.1468
371.368	0.1456
371.7	0.1449
372.031	0.1434
372.363	0.1414
372.694	0.1396
373.025	0.1376
373.356	0.1362
373.688	0.1338
374.019	0.1313
374.35	0.1301
374.68	0.1283
375.011	0.1268
375.342	0.1249
375.673	0.1233
376.003	0.1207
376.334	0.1193
376.664	0.1182
376.995	0.1163
377.325	0.1154
377.655	0.1142
377.985	0.1124
378.315	0.1123
378.645	0.11
378.975	0.1089
379.305	0.1076
379.635	0.1066
379.964	0.1057
380.294	0.1045
380.623	0.1029
380.953	0.1025
381.282	0.1006
381.611	0.0991
381.941	0.0981
382.27	0.0971
382.599	0.0956
382.928	0.0945
383.257	0.0936
383.585	0.0921
383.914	0.0903
384.243	0.0894
384.571	0.0879
384.9	0.0863
385.228	0.0841
385.557	0.0831
385.885	0.0819
386.213	0.0807
386.541	0.0791
386.869	0.0778
387.197	0.0758
387.525	0.0744
387.853	0.0729
388.181	0.0723
388.508	0.0717
388.836	0.0705
389.164	0.0692
389.491	0.0684
389.818	0.067
390.146	0.0661
390.473	0.0649
390.8	0.0639
391.127	0.0627
391.454	0.0626
391.781	0.0615
392.108	0.0598
392.435	0.0591
392.761	0.0577
393.088	0.058
393.415	0.0568
393.741	0.0567
394.067	0.0554
394.394	0.0553
394.72	0.0545
395.046	0.0536
395.372	0.0524
395.698	0.0519
396.024	0.0511
396.35	0.0506
396.676	0.0501
397.001	0.05
397.327	0.0483
397.653	0.0473
397.978	0.0466
398.303	0.0456
398.629	0.0445
398.954	0.0448
399.279	0.0441
399.604	0.0437
399.929	0.043
400.254	0.0426
400.579	0.0424
400.904	0.0415
401.229	0.0405
401.553	0.0401
401.878	0.0397
402.202	0.0397
402.527	0.039
402.851	0.0386
403.175	0.0382
403.5	0.038
403.824	0.0381
404.148	0.0375
404.472	0.0373
404.796	0.0363
405.119	0.0364
405.443	0.0359
405.767	0.0358
406.09	0.0352
406.414	0.0357
406.737	0.0352
407.061	0.0355
407.384	0.0349
407.707	0.035
408.03	0.0352
408.353	0.0353
408.676	0.0344
408.999	0.0339
409.322	0.0351
409.645	0.035
409.968	0.0342
410.29	0.0339
410.613	0.0342
410.935	0.0336
411.258	0.0343
411.58	0.0338
411.902	0.0337
412.224	0.0339
412.546	0.0337
412.868	0.0335
413.19	0.0335
413.512	0.0336
413.834	0.0335
414.156	0.0339
414.477	0.0338
414.799	0.0333
415.121	0.0341
415.442	0.0336
415.763	0.0344
416.085	0.0341
416.406	0.0343
416.727	0.0343
417.048	0.034
417.369	0.0338
417.69	0.0335
418.011	0.0343
418.331	0.0345
418.652	0.0343
418.973	0.0348
419.293	0.0345
419.614	0.0346
419.934	0.0343
420.254	0.0345
420.574	0.0342
420.895	0.0341
421.215	0.0336
421.535	0.0333
421.855	0.0341
422.174	0.0337
422.494	0.0345
422.814	0.0351
423.134	0.0343
423.453	0.0348
423.773	0.0344
424.092	0.0343
424.411	0.0347
424.731	0.0353
425.05	0.0348
425.369	0.0352
425.688	0.0351
426.007	0.0353
426.326	0.0355
426.644	0.0365
426.963	0.0356
427.282	0.0361
427.6	0.0357
427.919	0.0358
428.237	0.0359
428.556	0.0364
428.874	0.0358
429.192	0.036
429.51	0.0356
429.828	0.0363
430.146	0.0359
430.464	0.0358
430.782	0.0359
431.1	0.0357
431.418	0.0355
431.735	0.0361
432.053	0.0365
432.37	0.0364
432.688	0.0363
433.005	0.0364
433.322	0.0366
433.639	0.0366
433.957	0.0363
434.274	0.0366
434.591	0.0365
434.907	0.0371
435.224	0.0366
435.541	0.0369
435.858	0.0377
436.174	0.0375
436.491	0.037
436.807	0.0368
437.124	0.0364
437.44	0.0364
437.756	0.0365
438.072	0.0357
438.388	0.0372
438.704	0.0369
439.02	0.0372
439.336	0.0365
439.652	0.0366
439.968	0.0372
440.283	0.0366
440.599	0.0371
440.914	0.0367
441.23	0.0365
441.545	0.0362
441.86	0.0363
442.175	0.0366
442.491	0.0362
442.806	0.036
443.121	0.0359
443.435	0.0361
443.75	0.0363
444.065	0.0357
444.38	0.0364
444.694	0.0364
445.009	0.0365
445.323	0.0367
445.638	0.0361
445.952	0.0363
446.266	0.0362
446.58	0.0363
446.894	0.0363
447.208	0.0365
447.522	0.0363
447.836	0.0349
448.15	0.0352
448.464	0.0356
448.777	0.0349
449.091	0.0347
449.404	0.0357
449.718	0.0358
450.031	0.0357
450.345	0.035
450.658	0.0351
450.971	0.0352
451.284	0.0347
451.597	0.0349
451.91	0.0354
452.223	0.0349
452.535	0.0353
452.848	0.0344
453.161	0.0346
453.473	0.0353
453.786	0.0351
454.098	0.0343
454.411	0.0346
454.723	0.0338
455.035	0.0337
455.347	0.0345
455.659	0.0343
455.971	0.0342
456.283	0.0346
456.595	0.0333
456.907	0.0341
457.218	0.0343
457.53	0.0343
457.841	0.0328
458.153	0.0328
458.464	0.033
458.776	0.0322
459.087	0.0323
459.398	0.0324
459.709	0.0327
460.02	0.0322
460.331	0.0315
460.642	0.0319
460.953	0.0321
461.263	0.0318
461.574	0.0313
461.885	0.0315
462.195	0.0313
462.506	0.0314
462.816	0.0306
463.126	0.0302
463.437	0.0304
463.747	0.0301
464.057	0.0301
464.367	0.0305
464.677	0.03
464.987	0.0302
465.296	0.0294
465.606	0.0287
465.916	0.0286
466.225	0.0286
466.535	0.0286
466.844	0.0282
467.154	0.028
467.463	0.0283
467.772	0.0285
468.081	0.0273
468.39	0.0285
468.699	0.0279
469.008	0.0279
469.317	0.0281
469.626	0.0273
469.935	0.0275
470.243	0.0275
470.552	0.0285
470.86	0.0279
471.169	0.0266
471.477	0.0272
471.785	0.0267
472.093	0.027
472.402	0.0267
472.71	0.0257
473.018	0.0256
473.326	0.0254
473.633	0.0249
473.941	0.0251
474.249	0.0248
474.556	0.0253
474.864	0.0243
475.171	0.0241
475.479	0.0247
475.786	0.0248
476.094	0.0247
476.401	0.0236
476.708	0.0233
477.015	0.0246
477.322	0.0234
477.629	0.0236
477.936	0.023
478.242	0.0227
478.549	0.0228
478.856	0.0221
479.162	0.0225
479.469	0.0226
479.775	0.0226
480.081	0.0222
480.388	0.0226
480.694	0.0213
481	0.0207
481.306	0.0217
481.612	0.0203
481.918	0.0207
482.224	0.0208
482.53	0.0205
482.835	0.0201
483.141	0.0194
483.446	0.0193
483.752	0.0195
484.057	0.0187
484.363	0.018
484.668	0.018
484.973	0.0182
485.278	0.0176
485.583	0.0177
485.888	0.0168
486.193	0.017
486.498	0.0176
486.803	0.0182
487.107	0.0177
487.412	0.0167
487.717	0.0167
488.021	0.0178
488.325	0.0169
488.63	0.0168
488.934	0.0164
489.238	0.0165
489.542	0.016
489.846	0.0152
490.15	0.0157
490.454	0.0156
490.758	0.0156
491.062	0.0156
491.366	0.015
491.669	0.015
491.973	0.0147
492.276	0.0149
492.58	0.0137
492.883	0.0142
493.186	0.0148
493.489	0.0144
493.792	0.014
494.096	0.0145
494.399	0.0141
494.701	0.0141
495.004	0.0134
495.307	0.0136
495.61	0.0127
495.912	0.0127
496.215	0.0122
496.517	0.0119
496.82	0.0119
497.122	0.0124
497.424	0.0108
497.727	0.0119
498.029	0.0121
498.331	0.0117
498.633	0.0123
498.935	0.0112
499.237	0.0119
499.538	0.0121
499.84	0.0112
500.142	0.0121
500.443	0.011
500.745	0.0109
501.046	0.0116
501.348	0.0101
501.649	0.0109
501.95	0.0099
502.251	0.0103
502.552	0.0094
502.853	0.0091
503.154	0.0101
503.455	0.0087
503.756	0.0095
504.057	0.0095
504.357	0.0098
504.658	0.0089
504.958	0.0091
505.259	0.01
505.559	0.0093
505.859	0.0087
506.16	0.0094
506.46	0.0087
506.76	0.0097
507.06	0.0085
507.36	0.0085
507.66	0.0091
507.96	0.0092
508.259	0.008
508.559	0.0069
508.859	0.0085
509.158	0.0076
509.457	0.0074
509.757	0.0087
510.056	0.0079
510.355	0.007
510.655	0.0064
510.954	0.0072
511.253	0.007
511.552	0.0074
511.851	0.006
512.149	0.006
512.448	0.0066
512.747	0.007
513.045	0.0063
513.344	0.0075
513.642	0.0072
513.941	0.0076
514.239	0.0069
514.537	0.0067
514.836	0.0075
515.134	0.0055
515.432	0.0067
515.73	0.0081
516.028	0.0052
516.326	0.0069
516.623	0.0059
516.921	0.0057
517.219	0.0073
517.516	0.0061
517.814	0.0062
518.111	0.0063
518.409	0.0072
518.706	0.0061
519.003	0.0051
519.3	0.0053
519.597	0.0047
519.894	0.006
520.191	0.0066
520.488	0.0061
520.785	0.0039
521.082	0.0045
521.378	0.0056
521.675	0.0046
521.971	0.0044
522.268	0.0051
522.564	0.0047
522.861	0.0058
523.157	0.004
523.453	0.0045
523.749	0.0042
524.045	0.0053
524.341	0.0052
524.637	0.0041
524.933	0.0041
525.229	0.0047
525.524	0.0045
525.82	0.0047
526.115	0.0043
526.411	0.0042
526.706	0.0049
527.002	0.0049
527.297	0.003
527.592	0.0058
527.887	0.0053
528.182	0.0045
528.477	0.0058
528.772	0.004
529.067	0.0043
529.362	0.0054
529.657	0.0049
529.951	0.0051
530.246	0.0026
530.54	0.0023
530.835	0.0026
531.129	0.0022
531.423	0.004
531.718	0.003
532.012	0.0034
532.306	0.0027
532.6	0.0036
532.894	0.003
533.188	0.0042
533.482	0.0029
533.775	0.0037
534.069	0.0023
534.363	0.0025
534.656	0.0027
534.95	0.0019
535.243	0.0024
535.536	0.0022
535.83	0.0034
536.123	0.0019
536.416	0.0033
536.709	0.0037
537.002	0.0041
537.295	0.0028
537.588	0.0035
537.881	0.003
538.173	0.0022
538.466	0.0029
538.759	0.0019
539.051	0.0021
539.344	0.0025
539.636	0.0029
539.928	0.0021
540.22	0.0017
540.513	0.0034
540.805	0.0031
541.097	0.0037
541.389	0.0019
541.681	0.0021
541.972	0.0034
542.264	0.0025
542.556	0.0032
542.847	0.0026
543.139	0.003
543.431	0.0042
543.722	0.0027
544.013	0.004
544.305	0.0045
544.596	0.0044
544.887	0.003
545.178	0.0033
545.469	0.0025
545.76	0.0027
546.051	0.0039
546.342	0.0039
546.632	0.0019
546.923	0.0039
547.214	0.003
547.504	0.0025
547.795	0.0029
548.085	0.0031
548.375	0.0021
548.666	0.003
548.956	0.0015
549.246	0.0026
549.536	0.0021
549.826	0.0038
550.116	0.0035
550.406	0.0029
550.695	0.0044
550.985	0.0042
551.275	0.0039
551.564	0.003
551.854	0.0039
552.143	0.0045
552.433	0.0032
552.722	0.0032
553.011	0.0031
553.3	0.004
553.589	0.0028
553.879	0.0036
554.167	0.0049
554.456	0.0033
554.745	0.0023
555.034	0.0028
555.323	0.0018
555.611	0.0023
555.9	0.0041
556.188	0.0027
556.477	0.0029
556.765	0.0024
557.053	0.0034
557.342	0.0023
557.63	0.0037
557.918	0.002
558.206	0.0036
558.494	0.0032
558.782	0.0027
559.069	0.0033
559.357	0.0033
559.645	0.0019
559.932	0.0022
560.22	0.0038
560.507	0.0035
560.795	0.0029
561.082	0.0028
561.37	0.0026
561.657	0.003
561.944	0.0036
562.231	0.0028
562.518	0.0029
562.805	0.0032
563.092	0.0037
563.379	0.0039
563.665	0.0025
563.952	0.0032
564.239	0.0038
564.525	0.0041
564.811	0.0041
565.098	0.0036
565.384	0.0037
565.67	0.0036
565.957	0.0052
566.243	0.0038
566.529	0.004
566.815	0.0052
567.101	0.0024
567.387	0.003
567.672	0.0038
567.958	0.0028
568.244	0.0032
568.529	0.0028
568.815	0.0023
569.1	0.0041
569.386	0.0023
569.671	0.0033
569.956	0.0024
570.242	0.0027
570.527	0.0038
570.812	0.0039
571.097	0.0036
571.382	0.0033
571.666	0.0023
571.951	0.0028
572.236	0.0027
572.521	0.0027
572.805	0.0027
573.09	0.0028
573.374	0.0015
573.659	0.0016
573.943	0.003
574.227	0.0024
574.511	0.003
574.795	0.0024
575.079	0.0026
575.363	0.002
575.647	0.0034
575.931	0.0037
576.215	0.0031
576.499	0.0018
576.782	0.0021
577.066	0.0022
577.349	0.003
577.633	0.003
577.916	0.0024
578.2	0.0035
578.483	0.0029
578.766	0.0027
579.049	0.0033
579.332	0.0028
579.615	0.0024
579.898	0.0029
580.181	0.003
580.464	0.0026
580.746	0.002
581.029	0.0023
581.312	0.001
581.594	0.0011
581.877	0.0026
582.159	0.003
582.441	0.0026
582.724	0.0028
583.006	0.002
583.288	0.0022
583.57	0.0012
583.852	0.0023
584.134	0.0017
584.416	0.0024
584.697	0.0019
584.979	0.0019
585.261	0.0019
585.542	0.0023
585.824	0.0028
586.105	0.003
586.387	0.0023
586.668	0.0029
586.949	0.0027
587.231	0.0017
587.512	0.0028
587.793	0.0022
588.074	0.0032
588.355	0.0031
588.636	0.0029
588.916	0.0028
589.197	0.0036
589.478	0.003
589.758	0.0027
590.039	0.0028
590.319	0.0028
590.6	0.0028
590.88	0.0031
591.16	0.0025
591.441	0.0032
591.721	0.0026
592.001	0.0015
592.281	0.0029
592.561	0.0033
592.841	0.0023
593.12	0.0023
593.4	0.0015
593.68	0.0024
593.959	0.0023
594.239	0.0036
594.518	0.0032
594.798	0.003
595.077	0.0023
595.356	0.003
595.636	0.0033
595.915	0.003
596.194	0.0027
596.473	0.0027
596.752	0.0022
597.031	0.0017
597.31	0.0013
597.588	0.0024
597.867	0.0019
598.146	0.0027
598.424	0.0019
598.703	0.0022
598.981	0.0021
599.259	0.0025
599.538	0.0033
599.816	0.0027
600.094	0.0018
600.372	0.0026
600.65	0.0035
600.928	0.0035
601.206	0.0033
601.484	0.0035
601.762	0.0042
602.04	0.0031
602.317	0.0034
602.595	0.0029
602.872	0.0034
603.15	0.0024
603.427	0.0012
603.704	0.0012
603.982	0.0026
604.259	0.0013
604.536	0.0022
604.813	0.0022
605.09	0.0016
605.367	0.0022
605.644	0.0019
605.921	0.0025
606.197	0.0019
606.474	0.0024
606.751	0.0025
607.027	0.0021
607.304	0.001
607.58	0.002
607.856	0.0013
608.133	0.0024
608.409	0.0022
608.685	0.0017
608.961	0.0032
609.237	0.0029
609.513	0.0027
609.789	0.0029
610.065	0.0019
610.341	0.0021
610.616	0.0033
610.892	0.0038
611.167	0.0032
611.443	0.0033
611.718	0.0028
611.994	0.0023
612.269	0.0029
612.544	0.0022
612.819	0.0026
613.095	0.0031
613.37	0.0026
613.645	0.0024
613.919	0.002
614.194	0.0019
614.469	0.0014
614.744	0.0006
615.019	0.0012
615.293	0.0003
615.568	0.0007
615.842	0.0011
616.116	0.001
616.391	0.0015
616.665	0.0027
616.939	0.0018
617.213	0.0026
617.488	0.0019
617.762	0.0019
618.035	0.002
618.309	0.0017
618.583	0.0015
618.857	0.0026
619.131	0.0029
619.404	0.0021
619.678	0.0017
619.951	0.0012
620.225	0.001
620.498	0.002
620.771	0.0026
621.045	0.0038
621.318	0.0026
621.591	0.003
621.864	0.0009
622.137	0.0007
622.41	0.002
622.683	0.0014
622.956	0.0022
623.228	0.0025
623.501	0.0027
623.774	0.0028
624.046	0.0025
624.319	0.0021
624.591	0.0012
624.863	0.0024
625.136	0.0023
625.408	0.0033
625.68	0.0022
625.952	0.0024
626.224	0.0028
626.496	0.0021
626.768	0.0012
627.04	0.0015
627.311	0.0016
627.583	0.0019
627.855	0.0026
628.126	0.0023
628.398	0.0033
628.669	0.0031
628.941	0.0013
629.212	0.0008
629.483	0.0009
629.755	0.0013
630.026	0.0013
630.297	0.0008
630.568	0.001
630.839	0.0007
631.11	0.0012
631.38	0.0003
631.651	0.0008
631.922	0.0004
632.192	0.001
632.463	0.0014
632.733	0.0019
633.004	0.001
633.274	0.0015
633.545	0.0024
633.815	0.0034
634.085	0.0036
634.355	0.0032
634.625	0.0034
634.895	0.0025
635.165	0.0019
635.435	0.0021
635.705	0.0029
635.974	0.0014
636.244	0.0024
636.514	0.0016
636.783	0.0016
637.053	0.0035
637.322	0.0028
637.591	0.0036
637.861	0.003
638.13	0.004
638.399	0.0028
638.668	0.0033
638.937	0.0018
639.206	0.0023
639.475	0.0019
639.744	0.0032
640.013	0.0034
640.281	0.0039
640.55	0.0039
640.819	0.0036
641.087	0.0042
641.356	0.0032
641.624	0.0026
641.892	0.0027
642.161	0.0036
642.429	0.0039
642.697	0.0033
642.965	0.0042
643.233	0.0041
643.501	0.0022
643.769	0.0022
644.037	0.0021
644.305	0.0023
644.572	0.0002
644.84	0.0005
645.108	0.0015
645.375	0.0007
645.643	0.0018
645.91	0.0013
646.177	0.0037
646.445	0.0046
646.712	0.0054
646.979	0.0058
647.246	0.0043
647.513	0.005
647.78	0.0043
648.047	0.0046
648.314	0.0036
648.58	0.0029
648.847	0.0021
649.114	0.0016
649.38	0.0019
649.647	0.0016
649.913	0.002
650.18	0.0028
650.446	0.0019
650.712	0.0027
650.978	0.0026
651.245	0.0037
651.511	0.0031
651.777	0.003
652.043	0.0038
652.309	0.0034
652.574	0.0042
652.84	0.0031
653.106	0.0021
653.371	0.0021
653.637	0.0031
653.903	0.004
654.168	0.004
654.433	0.0046
654.699	0.0047
654.964	0.0045
655.229	0.0037
655.494	0.0028
655.759	-0.0015
656.024	0.0003
656.289	-0
656.554	0.001
656.819	0.0011
657.084	0.0038
657.349	0.0044
657.613	0.0049
657.878	0.0032
658.142	0.0038
658.407	0.0037
658.671	0.0033
658.936	0.0025
659.2	0.002
659.464	0.0027
659.728	0.002
659.992	0.0029
660.256	0.0021
660.52	0.0009
660.784	0.0017
661.048	0.0004
661.312	-0.0003
661.575	-0.0001
661.839	-0.0009
662.103	-0.0008
662.366	-0.0019
662.63	-0.0001
662.893	0.0005
663.156	0.0001
663.42	0.0002
663.683	0.0011
663.946	0.0019
664.209	0.003
664.472	0.0028
664.735	0.0024
664.998	0.0028
665.261	0.0021
665.524	0.0016
665.786	0.0014
666.049	0.0021
666.312	0.0019
666.574	0.0027
666.837	0.0025
667.099	0.0011
667.361	0.0013
667.624	0.0012
667.886	0.0008
668.148	0.0018
668.41	0.003
668.672	0.0017
668.934	0.002
669.196	0.0024
669.458	0.0026
669.72	0.0028
669.982	0.0031
670.243	0.0037
670.505	0.0028
670.766	0.0029
671.028	0.0032
671.289	0.0028
671.551	0.0016
671.812	-0
672.073	0.0012
672.334	0.0008
672.596	0.001
672.857	0.0005
673.118	0.0011
673.379	0.0014
673.639	0.0004
673.9	0.0008
674.161	-0.0009
674.422	-0.0014
674.682	-0.0016
674.943	-0.0019
675.203	0.0002
675.464	-0.0004
675.724	0.0008
675.985	0.0014
676.245	0.0022
676.505	0.0028
676.765	0.0026
677.025	0.0032
677.285	0.0026
677.545	0.0039
677.805	0.0029
678.065	0.0037
678.325	0.0039
678.585	0.0029
678.844	0.0035
679.104	0.0029
679.363	0.0032
679.623	0.0034
679.882	0.0032
680.142	0.0041
680.401	0.0039
680.66	0.0048
680.919	0.0039
681.178	0.0051
681.437	0.0042
681.696	0.0037
681.955	0.0038
682.214	0.0045
682.473	0.0045
682.732	0.0039
682.99	0.0031
683.249	0.0039
683.508	0.0038
683.766	0.0039
684.024	0.004
684.283	0.0052
684.541	0.0036
684.799	0.0037
685.058	0.0032
685.316	0.003
685.574	0.0033
685.832	0.0032
686.09	0.0041
686.348	0.0044
686.606	0.0042
686.863	0.0053
687.121	0.0049
687.379	0.0035
687.636	0.0044
687.894	0.0048
688.151	0.0055
688.409	0.0055
688.666	0.0048
688.923	0.0057
689.181	0.0044
689.438	0.0036
689.695	0.0027
689.952	0.0019
690.209	0.0017
690.466	0.0022
690.723	0.0037
690.979	0.0034
691.236	0.002
691.493	0.0018
691.75	0.0025
692.006	0.0041
692.263	0.0038
692.519	0.0036
692.775	0.0025
693.032	0.0014
693.288	0.0023
693.544	0.0027
693.8	0.0027
694.056	0.0033
694.313	0.0029
694.568	0.003
694.824	0.0037
695.08	0.0038
695.336	0.0036
695.592	0.0031
695.847	0.0038
696.103	0.0036
696.359	0.0038
696.614	0.0038
696.869	0.0026
697.125	0.0001
697.38	0.0006
697.635	0.0003
697.891	0.0005
698.146	0.0014
698.401	0.0024
698.656	0.0015
698.911	0.0024
699.166	0.0023
699.42	0.002
699.675	0.0022
699.93	0.001
700.185	0.0025
700.439	0.003
700.694	0.0028
700.948	0.0029
701.203	0.0037
701.457	0.0029
701.711	0.0026
701.965	0.0006
702.22	0.0006
702.474	0.0014
702.728	-0.0006
702.982	-0.0005
703.236	0.0002
703.49	0.0005
703.743	0.0005
703.997	0.001
704.251	0.0009
704.504	0.0018
704.758	0.0011
705.012	0.0015
705.265	0.0015
705.518	0.0013
705.772	0.0007
706.025	0.0015
706.278	0.0008
706.531	-0.0004
706.785	-0.0007
707.038	0.0002
707.291	0.0003
707.543	-0
707.796	0.0011
708.049	0.0002
708.302	0
708.555	-0.0003
708.807	0.0013
709.06	0.0003
709.312	-0.0013
709.565	-0.0008
709.817	-0.0012
710.069	-0
710.322	-0.0007
710.574	-0.0001
710.826	0.0001
711.078	0.0011
711.33	0.0012
711.582	0.0009
711.834	0.0019
712.086	0.0022
712.338	0.0032
712.59	0.0032
712.841	0.0017
713.093	0.0022
713.344	0.0024
713.596	0.0026
713.847	0.003
714.099	0.0029
714.35	0.0039
714.601	0.0033
714.853	0.0047
715.104	0.0034
715.355	0.0023
715.606	0.0034
715.857	0.0036
716.108	0.0039
716.359	0.0041
716.609	0.0037
716.86	0.003
717.111	0.002
717.361	0.001
717.612	0.0017
717.863	0.0009
718.113	0.0013
718.363	0.0007
718.614	0.0018
718.864	0.0017
719.114	0.0019
719.364	0.0004
719.614	0.0002
719.865	-0.0007
720.114	0.0007
720.364	0.0013
720.614	0.0018
720.864	0.0031
721.114	0.0031
721.364	0.0041
721.613	0.0042
721.863	0.0043
722.112	0.0039
722.362	0.0041
722.611	0.0038
722.86	0.0029
723.11	0.0016
723.359	0.0019
723.608	0.0029
723.857	0.0037
724.106	0.0055
724.355	0.0049
724.604	0.0062
724.853	0.0042
725.102	0.0039
725.351	0.003
725.599	0.0029
725.848	0.0032
726.097	0.0018
726.345	0.0025
726.594	0.0022
726.842	0.0017
727.09	0.002
727.339	0.002
727.587	0.0013
727.835	0.0007
728.083	0.0001
728.331	-0.0003
728.579	-0.0007
728.827	0.0002
729.075	0.0007
729.323	0.0021
729.571	0.0024
729.818	0.0026
730.066	0.0032
730.314	0.0027
730.561	0.0017
730.809	0.0004
731.056	-0.0004
731.303	-0.0003
731.551	0.0016
731.798	0.001
732.045	0.0015
732.292	0.0022
732.539	0.0016
732.786	0.0019
733.033	0.0023
733.28	0.0027
733.527	0.0042
733.774	0.0027
734.021	0.0035
734.267	0.0044
734.514	0.0032
734.76	0.0038
735.007	0.0058
735.253	0.0063
735.5	0.0055
735.746	0.0055
735.992	0.0052
736.238	0.0058
736.485	0.0066
736.731	0.0065
736.977	0.0053
737.223	0.0049
737.469	0.0059
737.715	0.006
737.96	0.0075
738.206	0.0073
738.452	0.0091
738.697	0.0088
738.943	0.0073
739.189	0.0057
739.434	0.0034
739.679	0.0035
739.925	0.0036
740.17	0.0035
740.415	0.0026
740.66	0.0039
740.906	0.0045
741.151	0.0043
741.396	0.0044
741.641	0.007
741.886	0.0068
742.13	0.0065
742.375	0.0072
742.62	0.0068
742.865	0.0057
743.109	0.0057
743.354	0.006
743.598	0.006
743.843	0.0069
744.087	0.006
744.331	0.007
744.576	0.0069
744.82	0.0059
745.064	0.0059
745.308	0.0055
745.552	0.0045
745.796	0.0051
746.04	0.0043
746.284	0.0029
746.528	0.0017
746.771	0.0025
747.015	0.0021
747.259	0.0023
747.502	0.0024
747.746	0.0034
747.989	0.0034
748.233	0.0042
748.476	0.0049
748.719	0.0059
748.963	0.0054
749.206	0.0055
749.449	0.0052
749.692	0.004
749.935	0.0053
750.178	0.0048
750.421	0.0047
750.664	0.0047
750.906	0.0051
751.149	0.0033
751.392	0.0028
751.635	0.0015
751.877	0.0015
752.12	0.0003
752.362	0.002
752.604	0.0015
752.847	0.0023
753.089	0.0025
753.331	0.0027
753.573	0.0029
753.816	0.0029
754.058	0.0037
754.3	0.0036
754.542	0.0046
754.783	0.0043
755.025	0.0042
755.267	0.0022
755.509	0.002
755.75	0.0015
755.992	0.0032
756.234	0.002
756.475	0.0011
756.716	0.0003
756.958	0.0003
757.199	0.0001
757.44	0.0021
757.682	0.0012
757.923	0.0012
758.164	0.0009
758.405	0.0003
758.646	0.0014
758.887	0.0014
759.128	0.0021
759.369	0.0002
759.609	-0.0002
759.85	0.0003
760.091	0.0007
760.331	0.0008
760.572	-0.0001
760.812	-0.0004
761.053	-0.0003
761.293	0.0006
761.533	0.0017
761.774	0.0022
762.014	0.002
762.254	0.002
762.494	0.0015
762.734	0.0014
762.974	0.0007
763.214	0.001
763.454	-0.0006
763.694	0.0001
763.933	-0.0006
764.173	0.0005
764.413	-0.0003
764.652	0.0002
764.892	0.0013
765.131	0.0007
765.371	0.0017
765.61	0.0023
765.849	0.0014
766.089	0.0025
766.328	0.0043
766.567	0.0043
766.806	0.0048
767.045	0.0046
767.284	0.0047
767.523	0.005
767.762	0.0054
768.001	0.0038
768.239	0.0032
768.478	0.0034
768.717	0.0035
768.955	0.0035
769.194	0.0026
769.432	0.004
769.671	0.0043
769.909	0.0035
770.148	0.0037
770.386	0.0043
770.624	0.0031
770.862	0.0034
771.1	0.0026
771.338	0.003
771.576	0.003
771.814	0.003
772.052	0.0035
772.29	0.0042
772.528	0.0053
772.765	0.0036
773.003	0.0048
773.24	0.0049
773.478	0.0036
773.716	0.0052
773.953	0.0049
774.19	0.0053
774.428	0.0051
774.665	0.0048
774.902	0.0045
775.139	0.0034
775.376	0.0044
775.613	0.0036
775.85	0.0044
776.087	0.0042
776.324	0.0045
776.561	0.0041
776.798	0.0059
777.034	0.0071
777.271	0.0081
777.508	0.0085
777.744	0.0085
777.981	0.0075
778.217	0.0074
778.454	0.0068
778.69	0.0054
778.926	0.0053
779.162	0.0049
779.399	0.0054
779.635	0.0042
779.871	0.0044
780.107	0.0059
780.343	0.0057
780.579	0.0057
780.814	0.0054
781.05	0.0056
781.286	0.0051
781.522	0.0044
781.757	0.007
781.993	0.0063
782.228	0.0073
782.464	0.0067
782.699	0.0055
782.934	0.0049
783.17	0.0053
783.405	0.0047
783.64	0.0045
783.875	0.0042
784.11	0.0045
784.345	0.005
784.58	0.0053
784.815	0.0051
785.05	0.0049
785.285	0.0039
785.52	0.0025
785.754	0.0034
785.989	0.0035
786.223	0.0021
786.458	0.0022
786.692	0.0033
786.927	0.0027
787.161	0.003
787.396	0.0024
787.63	0.0019
787.864	0.0014
788.098	0.0015
788.332	0.0016
788.566	0.0014
788.8	0.0009
789.034	0.0012
789.268	0.0018
789.502	0.0026
789.736	0.0034
789.969	0.0036
790.203	0.0038
790.437	0.0026
790.67	0.0027
790.904	0.0026
791.137	0.0015
791.37	0.0012
791.604	0.0014
791.837	0.001
792.07	0.001
792.303	0.0023
792.537	0.0011
792.77	0.0016
793.003	0.0021
793.236	-0.0003
793.469	0
793.701	0.0009
793.934	0.0012
794.167	0.0003
794.4	0.0008
794.632	0.001
794.865	0.0005
795.097	0.0013
795.33	0.002
795.562	0.0016
795.795	0.002
796.027	0.0023
796.259	0.0027
796.491	0.002
796.724	0.0019
796.956	0.0024
797.188	0.0029
797.42	0.0017
797.652	0.0026
797.883	0.001
798.115	0.0015
798.347	0.0008
798.579	-0.0003
798.81	-0.0005
799.042	-0.0007
799.274	-0.0009
799.505	-0.0005
799.737	-0.0007
799.968	0.0001
800.199	0.0004
800.431	0.0008
800.662	0.002
800.893	0.002
801.124	0.0026
801.355	0.0019
801.586	0.0027
801.817	0.0023
802.048	0.0015
802.279	0.0017
802.51	0.0025
802.741	0.0011
802.971	0.0001
803.202	-0.0003
803.433	-0.0003
803.663	-0.0003
803.894	0.0004
804.124	0.0008
804.354	0.0005
804.585	0.0007
804.815	0.0019
805.045	0.0008
805.275	-0.0002
805.506	-0.0111
805.736	0.0462
805.966	-0.0842
806.196	0.0928
