Data from 03 0.2 mM BQDS 0.4 mM K2Cr2O7 1 M H2SO4 5 min_Absorbance_18-27-42-983.txt Node
Date: Wed Dec 08 18:27:42 EST 2021
User: kwabilab-user
Spectrometer: HDX00518
Trigger mode: 0
Integration Time (sec): 5.000000E-2
Scans to average: 50
Nonlinearity correction enabled: false
Boxcar width: 0
Storing dark spectrum: false
XAxis mode: Wavelengths
Number of Pixels in Spectrum: 2068
>>>>>Begin Spectral Data<<<<<
195.27	0.1153
195.642	0.1015
196.014	0.0619
196.386	0.0662
196.758	0.0687
197.129	0.0373
197.501	0.0641
197.872	0.107
198.244	0.1251
198.615	0.1484
198.986	0.1216
199.357	0.119
199.728	0.1274
200.099	0.0985
200.47	0.125
200.841	0.1215
201.212	0.1235
201.582	0.1171
201.953	0.1218
202.323	0.123
202.694	0.117
203.064	0.1216
203.434	0.1149
203.804	0.1332
204.174	0.1072
204.544	0.1347
204.914	0.132
205.284	0.1306
205.653	0.1271
206.023	0.1423
206.393	0.1334
206.762	0.1156
207.131	0.1442
207.501	0.1542
207.87	0.1531
208.239	0.1418
208.608	0.1303
208.977	0.145
209.346	0.1591
209.715	0.1524
210.083	0.1645
210.452	0.1475
210.82	0.1587
211.189	0.1665
211.557	0.1417
211.925	0.1768
212.294	0.196
212.662	0.1826
213.03	0.1846
213.398	0.1745
213.766	0.2079
214.133	0.2163
214.501	0.2289
214.869	0.2243
215.236	0.2465
215.604	0.2336
215.971	0.2615
216.338	0.3009
216.705	0.311
217.072	0.3164
217.439	0.3369
217.806	0.3863
218.173	0.3966
218.54	0.4265
218.907	0.4768
219.273	0.503
219.64	0.5347
220.006	0.5794
220.373	0.5981
220.739	0.6393
221.105	0.6825
221.471	0.7079
221.837	0.7497
222.203	0.7861
222.569	0.8119
222.935	0.8441
223.3	0.8631
223.666	0.9042
224.031	0.9342
224.397	0.9447
224.762	0.955
225.127	0.9763
225.493	0.9888
225.858	1.002
226.223	1.0043
226.588	1.0202
226.952	1.0185
227.317	1.0311
227.682	1.0247
228.046	1.0216
228.411	1.0302
228.775	1.0228
229.14	1.0206
229.504	1.0115
229.868	1.0091
230.232	1.0016
230.596	0.9984
230.96	0.9904
231.324	0.9754
231.688	0.9667
232.052	0.9611
232.415	0.9561
232.779	0.951
233.142	0.9384
233.505	0.9265
233.869	0.9242
234.232	0.9124
234.595	0.8958
234.958	0.8915
235.321	0.8816
235.684	0.8685
236.047	0.8623
236.409	0.8511
236.772	0.8439
237.134	0.8332
237.497	0.8258
237.859	0.8184
238.222	0.8065
238.584	0.798
238.946	0.7893
239.308	0.7816
239.67	0.7741
240.032	0.7675
240.393	0.759
240.755	0.7499
241.117	0.7419
241.478	0.7362
241.84	0.728
242.201	0.7218
242.562	0.7145
242.924	0.7097
243.285	0.7021
243.646	0.6967
244.007	0.6928
244.368	0.6858
244.728	0.6787
245.089	0.6749
245.45	0.6694
245.81	0.6653
246.171	0.6609
246.531	0.6547
246.891	0.6505
247.252	0.6465
247.612	0.6423
247.972	0.6375
248.332	0.6351
248.692	0.6303
249.051	0.6279
249.411	0.6247
249.771	0.6193
250.13	0.617
250.49	0.6122
250.849	0.6112
251.208	0.6083
251.568	0.6038
251.927	0.6017
252.286	0.6019
252.645	0.5992
253.004	0.593
253.363	0.5902
253.721	0.5912
254.08	0.5878
254.439	0.5837
254.797	0.5813
255.155	0.5785
255.514	0.5776
255.872	0.5785
256.23	0.5732
256.588	0.5717
256.946	0.5708
257.304	0.5697
257.662	0.5681
258.02	0.5652
258.377	0.5637
258.735	0.5606
259.093	0.5599
259.45	0.5577
259.807	0.5552
260.165	0.5531
260.522	0.5507
260.879	0.548
261.236	0.5481
261.593	0.5451
261.95	0.5423
262.306	0.541
262.663	0.5383
263.02	0.5387
263.376	0.5351
263.733	0.533
264.089	0.532
264.445	0.53
264.802	0.527
265.158	0.524
265.514	0.5232
265.87	0.521
266.226	0.5188
266.581	0.5164
266.937	0.5133
267.293	0.512
267.648	0.5099
268.004	0.5059
268.359	0.5058
268.714	0.5024
269.07	0.4993
269.425	0.4967
269.78	0.4964
270.135	0.4941
270.49	0.4904
270.844	0.4894
271.199	0.487
271.554	0.4814
271.908	0.48
272.263	0.4784
272.617	0.4763
272.972	0.4734
273.326	0.4706
273.68	0.4691
274.034	0.4641
274.388	0.4619
274.742	0.4597
275.096	0.4567
275.45	0.4526
275.803	0.4497
276.157	0.4469
276.51	0.4433
276.864	0.4419
277.217	0.4386
277.571	0.4348
277.924	0.4329
278.277	0.4281
278.63	0.4248
278.983	0.4215
279.336	0.4202
279.688	0.4149
280.041	0.4126
280.394	0.4079
280.746	0.4058
281.099	0.4013
281.451	0.397
281.803	0.3934
282.156	0.3914
282.508	0.3879
282.86	0.3842
283.212	0.3809
283.564	0.3768
283.916	0.3739
284.267	0.3707
284.619	0.3658
284.971	0.3624
285.322	0.3583
285.673	0.3551
286.025	0.3527
286.376	0.3485
286.727	0.3431
287.078	0.3407
287.429	0.3377
287.78	0.3324
288.131	0.3288
288.482	0.3249
288.833	0.3219
289.183	0.3194
289.534	0.3144
289.884	0.3103
290.235	0.306
290.585	0.3021
290.935	0.299
291.285	0.295
291.635	0.2917
291.985	0.2884
292.335	0.2837
292.685	0.2811
293.035	0.277
293.384	0.2728
293.734	0.2691
294.083	0.2658
294.433	0.262
294.782	0.259
295.131	0.2554
295.48	0.2521
295.829	0.2495
296.179	0.244
296.527	0.2418
296.876	0.2385
297.225	0.2357
297.574	0.2315
297.922	0.2296
298.271	0.2266
298.619	0.2221
298.968	0.2201
299.316	0.2165
299.664	0.2144
300.012	0.2114
300.36	0.2077
300.708	0.2058
301.056	0.2035
301.404	0.2006
301.752	0.1978
302.099	0.1955
302.447	0.1931
302.794	0.1913
303.142	0.1881
303.489	0.1862
303.836	0.1842
304.183	0.1818
304.531	0.1803
304.878	0.178
305.224	0.1759
305.571	0.1744
305.918	0.1729
306.265	0.1712
306.611	0.1698
306.958	0.1682
307.304	0.1669
307.651	0.1661
307.997	0.1648
308.343	0.1634
308.689	0.1625
309.035	0.1609
309.381	0.1601
309.727	0.159
310.073	0.1587
310.419	0.1577
310.764	0.1571
311.11	0.1564
311.455	0.1558
311.801	0.1549
312.146	0.1544
312.491	0.1538
312.837	0.1535
313.182	0.1539
313.527	0.1531
313.872	0.1524
314.216	0.1523
314.561	0.1519
314.906	0.152
315.251	0.1523
315.595	0.1517
315.94	0.1524
316.284	0.1518
316.628	0.1522
316.972	0.1524
317.317	0.1518
317.661	0.1526
318.005	0.153
318.348	0.1529
318.692	0.1533
319.036	0.1535
319.38	0.1539
319.723	0.1546
320.067	0.1548
320.41	0.1551
320.754	0.1557
321.097	0.1568
321.44	0.157
321.783	0.1582
322.126	0.158
322.469	0.1595
322.812	0.1598
323.155	0.1609
323.498	0.1622
323.84	0.1629
324.183	0.1635
324.525	0.1645
324.868	0.1647
325.21	0.1663
325.552	0.1671
325.894	0.1674
326.236	0.1689
326.578	0.1698
326.92	0.1711
327.262	0.1718
327.604	0.1727
327.946	0.174
328.287	0.1758
328.629	0.1761
328.97	0.1769
329.312	0.1787
329.653	0.1794
329.994	0.1811
330.335	0.1821
330.676	0.1831
331.017	0.1838
331.358	0.1854
331.699	0.1868
332.04	0.1883
332.38	0.1886
332.721	0.1908
333.061	0.1911
333.402	0.1925
333.742	0.1937
334.083	0.1948
334.423	0.1957
334.763	0.1966
335.103	0.1976
335.443	0.1984
335.783	0.1994
336.123	0.1996
336.462	0.2015
336.802	0.2021
337.141	0.2034
337.481	0.2039
337.82	0.2047
338.16	0.2056
338.499	0.2063
338.838	0.2077
339.177	0.2086
339.516	0.2092
339.855	0.2101
340.194	0.2111
340.533	0.2118
340.872	0.2123
341.21	0.2136
341.549	0.2139
341.887	0.2153
342.226	0.2148
342.564	0.2148
342.902	0.2158
343.24	0.2155
343.578	0.2161
343.916	0.2166
344.254	0.2167
344.592	0.2172
344.93	0.2171
345.268	0.2171
345.605	0.2172
345.943	0.2178
346.28	0.2169
346.618	0.2173
346.955	0.2172
347.292	0.2179
347.629	0.2179
347.966	0.2183
348.303	0.2185
348.64	0.2174
348.977	0.2172
349.314	0.2174
349.65	0.2176
349.987	0.2179
350.324	0.2169
350.66	0.2173
350.996	0.2172
351.333	0.2156
351.669	0.2152
352.005	0.2149
352.341	0.214
352.677	0.2139
353.013	0.212
353.349	0.2109
353.685	0.2104
354.02	0.21
354.356	0.2087
354.691	0.2076
355.027	0.2072
355.362	0.2059
355.697	0.2048
356.033	0.2041
356.368	0.2033
356.703	0.2024
357.038	0.2015
357.373	0.2003
357.707	0.2004
358.042	0.199
358.377	0.1989
358.711	0.197
359.046	0.1964
359.38	0.1952
359.715	0.195
360.049	0.1933
360.383	0.192
360.717	0.1909
361.051	0.1887
361.385	0.1885
361.719	0.1863
362.053	0.1855
362.387	0.1829
362.72	0.1823
363.054	0.1801
363.387	0.1785
363.721	0.1767
364.054	0.1753
364.387	0.1734
364.721	0.1729
365.054	0.1707
365.387	0.1692
365.72	0.1675
366.053	0.1666
366.385	0.1641
366.718	0.1639
367.051	0.1616
367.383	0.1603
367.716	0.1595
368.048	0.1593
368.381	0.1568
368.713	0.1559
369.045	0.1548
369.377	0.153
369.709	0.1527
370.041	0.15
370.373	0.1501
370.705	0.1479
371.037	0.1467
371.368	0.1454
371.7	0.1437
372.031	0.1423
372.363	0.1399
372.694	0.139
373.025	0.1365
373.356	0.1358
373.688	0.1334
374.019	0.131
374.35	0.1297
374.68	0.1273
375.011	0.1256
375.342	0.124
375.673	0.1219
376.003	0.1206
376.334	0.1191
376.664	0.1179
376.995	0.1162
377.325	0.115
377.655	0.1138
377.985	0.1119
378.315	0.1107
378.645	0.1095
378.975	0.1077
379.305	0.1072
379.635	0.1067
379.964	0.1048
380.294	0.1036
380.623	0.1021
380.953	0.1015
381.282	0.1005
381.611	0.0986
381.941	0.0978
382.27	0.0964
382.599	0.0946
382.928	0.0941
383.257	0.0932
383.585	0.0913
383.914	0.0895
384.243	0.0885
384.571	0.0869
384.9	0.0855
385.228	0.0839
385.557	0.0827
385.885	0.0814
386.213	0.0797
386.541	0.0786
386.869	0.0768
387.197	0.0753
387.525	0.0739
387.853	0.0722
388.181	0.0716
388.508	0.0709
388.836	0.0698
389.164	0.0684
389.491	0.0675
389.818	0.0665
390.146	0.0658
390.473	0.0643
390.8	0.0631
391.127	0.0623
391.454	0.0617
391.781	0.0609
392.108	0.0596
392.435	0.0582
392.761	0.0577
393.088	0.0565
393.415	0.0565
393.741	0.0558
394.067	0.0548
394.394	0.0546
394.72	0.0533
395.046	0.0531
395.372	0.0521
395.698	0.0512
396.024	0.051
396.35	0.0498
396.676	0.0499
397.001	0.0489
397.327	0.0478
397.653	0.0463
397.978	0.0457
398.303	0.0452
398.629	0.0443
398.954	0.0438
399.279	0.0442
399.604	0.0431
399.929	0.0426
400.254	0.0418
400.579	0.0414
400.904	0.0408
401.229	0.0407
401.553	0.0394
401.878	0.0388
402.202	0.0391
402.527	0.0388
402.851	0.0382
403.175	0.0377
403.5	0.0373
403.824	0.0375
404.148	0.0366
404.472	0.0368
404.796	0.0361
405.119	0.0358
405.443	0.0355
405.767	0.0348
406.09	0.0342
406.414	0.0357
406.737	0.0347
407.061	0.0349
407.384	0.0347
407.707	0.0341
408.03	0.0347
408.353	0.0348
408.676	0.034
408.999	0.0336
409.322	0.0341
409.645	0.0339
409.968	0.0336
410.29	0.034
410.613	0.0332
410.935	0.0335
411.258	0.0338
411.58	0.0336
411.902	0.0336
412.224	0.0334
412.546	0.0334
412.868	0.0331
413.19	0.0333
413.512	0.0335
413.834	0.034
414.156	0.0342
414.477	0.0332
414.799	0.0338
415.121	0.0336
415.442	0.0337
415.763	0.0337
416.085	0.0334
416.406	0.0341
416.727	0.0341
417.048	0.0343
417.369	0.0336
417.69	0.0338
418.011	0.0335
418.331	0.0337
418.652	0.0336
418.973	0.0343
419.293	0.0342
419.614	0.034
419.934	0.0342
420.254	0.0344
420.574	0.0336
420.895	0.0338
421.215	0.033
421.535	0.0335
421.855	0.0332
422.174	0.0331
422.494	0.034
422.814	0.0347
423.134	0.0341
423.453	0.0344
423.773	0.0339
424.092	0.0338
424.411	0.034
424.731	0.0346
425.05	0.0346
425.369	0.0346
425.688	0.0344
426.007	0.0347
426.326	0.0353
426.644	0.0353
426.963	0.0355
427.282	0.0352
427.6	0.0351
427.919	0.036
428.237	0.0354
428.556	0.0355
428.874	0.0357
429.192	0.0349
429.51	0.0349
429.828	0.0355
430.146	0.0349
430.464	0.0354
430.782	0.0349
431.1	0.0358
431.418	0.0351
431.735	0.0355
432.053	0.0358
432.37	0.0359
432.688	0.0356
433.005	0.036
433.322	0.036
433.639	0.0364
433.957	0.036
434.274	0.0363
434.591	0.036
434.907	0.0365
435.224	0.0356
435.541	0.037
435.858	0.0374
436.174	0.0367
436.491	0.0369
436.807	0.0362
437.124	0.0358
437.44	0.0354
437.756	0.036
438.072	0.0352
438.388	0.037
438.704	0.0366
439.02	0.0364
439.336	0.0359
439.652	0.0364
439.968	0.0365
440.283	0.0356
440.599	0.0364
440.914	0.0363
441.23	0.0359
441.545	0.0361
441.86	0.0362
442.175	0.0361
442.491	0.0357
442.806	0.0358
443.121	0.0362
443.435	0.0354
443.75	0.0359
444.065	0.0354
444.38	0.0363
444.694	0.036
445.009	0.0356
445.323	0.0358
445.638	0.0357
445.952	0.0357
446.266	0.0357
446.58	0.0357
446.894	0.036
447.208	0.0362
447.522	0.0362
447.836	0.034
448.15	0.0347
448.464	0.0345
448.777	0.0353
449.091	0.0349
449.404	0.0356
449.718	0.0354
450.031	0.0348
450.345	0.0341
450.658	0.0352
450.971	0.0348
451.284	0.0341
451.597	0.035
451.91	0.0353
452.223	0.0344
452.535	0.035
452.848	0.0342
453.161	0.0341
453.473	0.0346
453.786	0.0344
454.098	0.034
454.411	0.034
454.723	0.0333
455.035	0.0334
455.347	0.0339
455.659	0.034
455.971	0.0337
456.283	0.034
456.595	0.0331
456.907	0.0333
457.218	0.0336
457.53	0.0334
457.841	0.0322
458.153	0.0327
458.464	0.032
458.776	0.0308
459.087	0.0319
459.398	0.0326
459.709	0.0322
460.02	0.0319
460.331	0.0318
460.642	0.0309
460.953	0.0308
461.263	0.0312
461.574	0.0307
461.885	0.0307
462.195	0.0314
462.506	0.0313
462.816	0.0302
463.126	0.0299
463.437	0.0297
463.747	0.0294
464.057	0.0297
464.367	0.0295
464.677	0.0293
464.987	0.0292
465.296	0.0284
465.606	0.0291
465.916	0.0286
466.225	0.028
466.535	0.0286
466.844	0.0282
467.154	0.028
467.463	0.0282
467.772	0.0279
468.081	0.0275
468.39	0.0272
468.699	0.0274
469.008	0.0276
469.317	0.0277
469.626	0.0268
469.935	0.0274
470.243	0.0278
470.552	0.0275
470.86	0.0269
471.169	0.0261
471.477	0.0267
471.785	0.0267
472.093	0.0264
472.402	0.0263
472.71	0.0255
473.018	0.0254
473.326	0.0242
473.633	0.0247
473.941	0.0246
474.249	0.0245
474.556	0.0248
474.864	0.024
475.171	0.0227
475.479	0.0236
475.786	0.0241
476.094	0.0242
476.401	0.024
476.708	0.0235
477.015	0.0233
477.322	0.0239
477.629	0.0232
477.936	0.0222
478.242	0.0226
478.549	0.0223
478.856	0.0224
479.162	0.0226
479.469	0.0223
479.775	0.0221
480.081	0.0206
480.388	0.0209
480.694	0.021
481	0.0212
481.306	0.0211
481.612	0.0207
481.918	0.0201
482.224	0.0207
482.53	0.0201
482.835	0.0194
483.141	0.0188
483.446	0.0197
483.752	0.0188
484.057	0.0184
484.363	0.0182
484.668	0.0172
484.973	0.0179
485.278	0.0172
485.583	0.0172
485.888	0.0162
486.193	0.0167
486.498	0.0177
486.803	0.018
487.107	0.0172
487.412	0.0165
487.717	0.0165
488.021	0.017
488.325	0.0164
488.63	0.0155
488.934	0.0163
489.238	0.0169
489.542	0.0158
489.846	0.0145
490.15	0.0162
490.454	0.0157
490.758	0.0154
491.062	0.0153
491.366	0.0151
491.669	0.0152
491.973	0.0149
492.276	0.0142
492.58	0.013
492.883	0.0139
493.186	0.0141
493.489	0.0135
493.792	0.0141
494.096	0.0137
494.399	0.0138
494.701	0.0145
495.004	0.0134
495.307	0.0124
495.61	0.0124
495.912	0.0121
496.215	0.0121
496.517	0.0116
496.82	0.0112
497.122	0.0117
497.424	0.0116
497.727	0.0113
498.029	0.0115
498.331	0.012
498.633	0.0117
498.935	0.0107
499.237	0.011
499.538	0.0104
499.84	0.0107
500.142	0.0109
500.443	0.0109
500.745	0.0103
501.046	0.0099
501.348	0.0094
501.649	0.0098
501.95	0.0096
502.251	0.0098
502.552	0.0094
502.853	0.009
503.154	0.0096
503.455	0.0085
503.756	0.0094
504.057	0.0089
504.357	0.0091
504.658	0.0088
504.958	0.0093
505.259	0.01
505.559	0.0097
505.859	0.0086
506.16	0.0084
506.46	0.0089
506.76	0.009
507.06	0.0079
507.36	0.0086
507.66	0.0084
507.96	0.008
508.259	0.0077
508.559	0.0073
508.859	0.0075
509.158	0.0076
509.457	0.0068
509.757	0.0085
510.056	0.0068
510.355	0.0065
510.655	0.0059
510.954	0.0072
511.253	0.0075
511.552	0.0071
511.851	0.0056
512.149	0.0054
512.448	0.0064
512.747	0.0072
513.045	0.0059
513.344	0.0067
513.642	0.008
513.941	0.0069
514.239	0.0068
514.537	0.0058
514.836	0.0063
515.134	0.0062
515.432	0.0066
515.73	0.0065
516.028	0.0045
516.326	0.0058
516.623	0.0048
516.921	0.0049
517.219	0.0066
517.516	0.0052
517.814	0.0055
518.111	0.0063
518.409	0.0065
518.706	0.0061
519.003	0.0058
519.3	0.0048
519.597	0.0045
519.894	0.0057
520.191	0.0061
520.488	0.0058
520.785	0.004
521.082	0.0049
521.378	0.006
521.675	0.0036
521.971	0.0048
522.268	0.0052
522.564	0.0045
522.861	0.0049
523.157	0.0036
523.453	0.0047
523.749	0.0045
524.045	0.0043
524.341	0.0048
524.637	0.0036
524.933	0.004
525.229	0.0038
525.524	0.0041
525.82	0.0056
526.115	0.0034
526.411	0.0043
526.706	0.0042
527.002	0.0042
527.297	0.0029
527.592	0.0056
527.887	0.0045
528.182	0.0045
528.477	0.0051
528.772	0.0036
529.067	0.0045
529.362	0.0048
529.657	0.0049
529.951	0.0044
530.246	0.0028
530.54	0.0024
530.835	0.0025
531.129	0.0024
531.423	0.0036
531.718	0.0025
532.012	0.0041
532.306	0.0035
532.6	0.0025
532.894	0.0028
533.188	0.0033
533.482	0.0036
533.775	0.003
534.069	0.0026
534.363	0.0013
534.656	0.0021
534.95	0.002
535.243	0.0024
535.536	0.0023
535.83	0.0034
536.123	0.0023
536.416	0.0029
536.709	0.0022
537.002	0.0032
537.295	0.0026
537.588	0.0034
537.881	0.0031
538.173	0.0022
538.466	0.0023
538.759	0.0022
539.051	0.0017
539.344	0.0024
539.636	0.0015
539.928	0.0016
540.22	0.0025
540.513	0.0029
540.805	0.0024
541.097	0.0026
541.389	0.0022
541.681	0.0015
541.972	0.0024
542.264	0.0011
542.556	0.0027
542.847	0.0025
543.139	0.0033
543.431	0.0037
543.722	0.0034
544.013	0.0034
544.305	0.004
544.596	0.0042
544.887	0.0032
545.178	0.0026
545.469	0.0024
545.76	0.0021
546.051	0.0035
546.342	0.0033
546.632	0.0022
546.923	0.0028
547.214	0.0027
547.504	0.0024
547.795	0.0032
548.085	0.0033
548.375	0.0019
548.666	0.0028
548.956	0.0016
549.246	0.0028
549.536	0.0025
549.826	0.0026
550.116	0.0035
550.406	0.0033
550.695	0.0039
550.985	0.0024
551.275	0.0035
551.564	0.0035
551.854	0.0043
552.143	0.0031
552.433	0.0031
552.722	0.0033
553.011	0.0029
553.3	0.004
553.589	0.0029
553.879	0.0039
554.167	0.0034
554.456	0.0034
554.745	0.0036
555.034	0.0017
555.323	0.0016
555.611	0.0023
555.9	0.0039
556.188	0.0034
556.477	0.0027
556.765	0.0031
557.053	0.0024
557.342	0.0023
557.63	0.004
557.918	0.0033
558.206	0.004
558.494	0.0039
558.782	0.0035
559.069	0.0037
559.357	0.0036
559.645	0.0016
559.932	0.0028
560.22	0.0034
560.507	0.0023
560.795	0.0028
561.082	0.0023
561.37	0.0023
561.657	0.0021
561.944	0.0032
562.231	0.0028
562.518	0.0021
562.805	0.003
563.092	0.004
563.379	0.0038
563.665	0.0028
563.952	0.0032
564.239	0.0042
564.525	0.0044
564.811	0.0041
565.098	0.0042
565.384	0.0043
565.67	0.0036
565.957	0.0035
566.243	0.0036
566.529	0.004
566.815	0.005
567.101	0.0027
567.387	0.0032
567.672	0.0027
567.958	0.0037
568.244	0.0041
568.529	0.0027
568.815	0.0021
569.1	0.0032
569.386	0.0028
569.671	0.0029
569.956	0.0027
570.242	0.0026
570.527	0.0033
570.812	0.0031
571.097	0.0031
571.382	0.0028
571.666	0.0024
571.951	0.0022
572.236	0.0027
572.521	0.0023
572.805	0.0031
573.09	0.0027
573.374	0.0013
573.659	0.0017
573.943	0.0027
574.227	0.0026
574.511	0.003
574.795	0.0024
575.079	0.002
575.363	0.0027
575.647	0.0036
575.931	0.0033
576.215	0.0031
576.499	0.002
576.782	0.0022
577.066	0.0024
577.349	0.0026
577.633	0.003
577.916	0.0028
578.2	0.003
578.483	0.0032
578.766	0.0027
579.049	0.0035
579.332	0.0029
579.615	0.0022
579.898	0.0024
580.181	0.0021
580.464	0.0025
580.746	0.0011
581.029	0.0021
581.312	0.0005
581.594	0.0009
581.877	0.0021
582.159	0.0027
582.441	0.0026
582.724	0.0027
583.006	0.0026
583.288	0.0019
583.57	0.002
583.852	0.0018
584.134	0.0012
584.416	0.0026
584.697	0.0015
584.979	0.0016
585.261	0.0019
585.542	0.0018
585.824	0.0024
586.105	0.0027
586.387	0.0018
586.668	0.0021
586.949	0.0026
587.231	0.0016
587.512	0.0021
587.793	0.0021
588.074	0.0029
588.355	0.0027
588.636	0.0033
588.916	0.0025
589.197	0.0033
589.478	0.0036
589.758	0.0026
590.039	0.0023
590.319	0.003
590.6	0.0023
590.88	0.0017
591.16	0.0025
591.441	0.0025
591.721	0.0025
592.001	0.0021
592.281	0.0029
592.561	0.0025
592.841	0.0019
593.12	0.0021
593.4	0.0015
593.68	0.0022
593.959	0.002
594.239	0.0038
594.518	0.0025
594.798	0.0018
595.077	0.003
595.356	0.0022
595.636	0.0028
595.915	0.0031
596.194	0.0031
596.473	0.0036
596.752	0.0029
597.031	0.0013
597.31	0.0021
597.588	0.0012
597.867	0.0005
598.146	0.0031
598.424	0.002
598.703	0.0027
598.981	0.0021
599.259	0.0023
599.538	0.0031
599.816	0.003
600.094	0.0019
600.372	0.0027
600.65	0.0036
600.928	0.0034
601.206	0.0026
601.484	0.0039
601.762	0.0041
602.04	0.0027
602.317	0.003
602.595	0.0033
602.872	0.0035
603.15	0.0025
603.427	0.0019
603.704	0.0021
603.982	0.0017
604.259	0.0011
604.536	0.0013
604.813	0.0019
605.09	0.0017
605.367	0.0012
605.644	0.0016
605.921	0.0019
606.197	0.0016
606.474	0.0019
606.751	0.0015
607.027	0.0016
607.304	0.0009
607.58	0.002
607.856	0.0019
608.133	0.0022
608.409	0.0028
608.685	0.002
608.961	0.0023
609.237	0.0032
609.513	0.0025
609.789	0.0021
610.065	0.0012
610.341	0.002
610.616	0.0022
610.892	0.0035
611.167	0.0033
611.443	0.0033
611.718	0.0028
611.994	0.0031
612.269	0.0038
612.544	0.0029
612.819	0.0025
613.095	0.0035
613.37	0.0031
613.645	0.0013
613.919	0.002
614.194	0.0019
614.469	0.0012
614.744	0.0009
615.019	0.0006
615.293	0.0001
615.568	0.0005
615.842	0.0007
616.116	0.002
616.391	0.0009
616.665	0.0029
616.939	0.0021
617.213	0.0025
617.488	0.0024
617.762	0.0025
618.035	0.0021
618.309	0.0021
618.583	0.0017
618.857	0.0024
619.131	0.003
619.404	0.0018
619.678	0.0018
619.951	0.0001
620.225	0.001
620.498	0.0023
620.771	0.0028
621.045	0.004
621.318	0.0032
621.591	0.0032
621.864	0.0014
622.137	0.0007
622.41	0.0021
622.683	0.0018
622.956	0.0029
623.228	0.0023
623.501	0.0026
623.774	0.0034
624.046	0.003
624.319	0.002
624.591	0.0012
624.863	0.0025
625.136	0.0025
625.408	0.0018
625.68	0.0018
625.952	0.002
626.224	0.0023
626.496	0.0016
626.768	0.0014
627.04	0.0013
627.311	0.0008
627.583	0.0011
627.855	0.0023
628.126	0.0013
628.398	0.0032
628.669	0.003
628.941	0.0014
629.212	0.0004
629.483	0.0004
629.755	0.0007
630.026	0.0009
630.297	0.0004
630.568	0.0008
630.839	0.0013
631.11	0.0004
631.38	0.0008
631.651	0.0017
631.922	0.0012
632.192	0.001
632.463	0.0011
632.733	0.0019
633.004	0.0018
633.274	0.0012
633.545	0.0033
633.815	0.0034
634.085	0.0041
634.355	0.0031
634.625	0.0047
634.895	0.0033
635.165	0.0023
635.435	0.0035
635.705	0.0029
635.974	0.0023
636.244	0.0031
636.514	0.0027
636.783	0.0033
637.053	0.0034
637.322	0.0032
637.591	0.0034
637.861	0.0032
638.13	0.0042
638.399	0.0027
638.668	0.0028
638.937	0.0023
639.206	0.0032
639.475	0.0028
639.744	0.0029
640.013	0.0026
640.281	0.0035
640.55	0.0031
640.819	0.0035
641.087	0.0042
641.356	0.0026
641.624	0.0036
641.892	0.0035
642.161	0.0028
642.429	0.0051
642.697	0.0037
642.965	0.0051
643.233	0.0046
643.501	0.0027
643.769	0.0025
644.037	0.0023
644.305	0.0015
644.572	0.0002
644.84	0.0009
645.108	0.0015
645.375	0.0017
645.643	0.0015
645.91	0.002
646.177	0.0028
646.445	0.0056
646.712	0.0043
646.979	0.0051
647.246	0.0044
647.513	0.0055
647.78	0.0046
648.047	0.0047
648.314	0.004
648.58	0.003
648.847	0.0027
649.114	0.0016
649.38	0.0015
649.647	0.0026
649.913	0.0019
650.18	0.002
650.446	0.002
650.712	0.0021
650.978	0.0024
651.245	0.0034
651.511	0.0033
651.777	0.004
652.043	0.0029
652.309	0.0037
652.574	0.0054
652.84	0.0033
653.106	0.003
653.371	0.0021
653.637	0.0034
653.903	0.004
654.168	0.0041
654.433	0.0046
654.699	0.0048
654.964	0.0043
655.229	0.004
655.494	0.0018
655.759	-0.0025
656.024	0.0003
656.289	-0
656.554	0.0007
656.819	0.0017
657.084	0.0034
657.349	0.0041
657.613	0.0039
657.878	0.0028
658.142	0.0038
658.407	0.004
658.671	0.003
658.936	0.003
659.2	0.0024
659.464	0.0018
659.728	0.0021
659.992	0.0028
660.256	0.0016
660.52	0.0013
660.784	0.001
661.048	0.0006
661.312	-0.0005
661.575	-0.0001
661.839	-0.0014
662.103	-0.0007
662.366	-0.001
662.63	0.0003
662.893	0.0004
663.156	0.0009
663.42	0.0011
663.683	0.0019
663.946	0.0031
664.209	0.0047
664.472	0.0034
664.735	0.0036
664.998	0.0024
665.261	0.0019
665.524	0.0023
665.786	0.002
666.049	0.002
666.312	0.0025
666.574	0.0036
666.837	0.0027
667.099	0.0016
667.361	0.0021
667.624	0.0017
667.886	0.0029
668.148	0.0032
668.41	0.0044
668.672	0.0022
668.934	0.0017
669.196	0.0017
669.458	0.0025
669.72	0.0031
669.982	0.003
670.243	0.0041
670.505	0.0038
670.766	0.0027
671.028	0.0038
671.289	0.0033
671.551	0.0011
671.812	0.0003
672.073	0.0014
672.334	0.0013
672.596	0.0019
672.857	0.0013
673.118	0.0018
673.379	0.0024
673.639	0.001
673.9	0.0007
674.161	0
674.422	-0.0018
674.682	-0.0021
674.943	-0.0014
675.203	-0.0001
675.464	0.0002
675.724	0.0018
675.985	0.0018
676.245	0.0026
676.505	0.0022
676.765	0.0027
677.025	0.002
677.285	0.0031
677.545	0.0033
677.805	0.0024
678.065	0.0032
678.325	0.0037
678.585	0.0032
678.844	0.0025
679.104	0.0027
679.363	0.003
679.623	0.0033
679.882	0.0031
680.142	0.0042
680.401	0.0041
680.66	0.0039
680.919	0.004
681.178	0.0051
681.437	0.004
681.696	0.0028
681.955	0.004
682.214	0.0042
682.473	0.005
682.732	0.0024
682.99	0.0041
683.249	0.0041
683.508	0.0041
683.766	0.0041
684.024	0.0045
684.283	0.0046
684.541	0.0042
684.799	0.0049
685.058	0.0031
685.316	0.0032
685.574	0.003
685.832	0.004
686.09	0.0041
686.348	0.0047
686.606	0.0044
686.863	0.0053
687.121	0.0051
687.379	0.0037
687.636	0.0035
687.894	0.0046
688.151	0.0056
688.409	0.0051
688.666	0.0045
688.923	0.0051
689.181	0.0029
689.438	0.0036
689.695	0.0018
689.952	0.0019
690.209	0.0022
690.466	0.0022
690.723	0.0035
690.979	0.003
691.236	0.0024
691.493	0.0019
691.75	0.0039
692.006	0.003
692.263	0.0032
692.519	0.0036
692.775	0.0014
693.032	0.0006
693.288	0.0015
693.544	0.0028
693.8	0.0029
694.056	0.0031
694.313	0.0033
694.568	0.0035
694.824	0.0033
695.08	0.0034
695.336	0.0038
695.592	0.0025
695.847	0.0042
696.103	0.0046
696.359	0.004
696.614	0.0032
696.869	0.0024
697.125	0.0009
697.38	0.0013
697.635	0.0006
697.891	0.0024
698.146	0.0018
698.401	0.0041
698.656	0.0027
698.911	0.0043
699.166	0.0034
699.42	0.0034
699.675	0.0035
699.93	0.0021
700.185	0.0031
700.439	0.0043
700.694	0.0035
700.948	0.0037
701.203	0.0045
701.457	0.0033
701.711	0.0032
701.965	0.0019
702.22	0.0014
702.474	0.0015
702.728	-0.0007
702.982	-0.0006
703.236	0.0003
703.49	0.0014
703.743	0.0011
703.997	0.0012
704.251	0.0018
704.504	0.0019
704.758	0.0011
705.012	0.0017
705.265	0.0018
705.518	0.0009
705.772	0.0006
706.025	0.0007
706.278	0.0009
706.531	-0
706.785	-0.0011
707.038	0.0001
707.291	0.0005
707.543	0.0008
707.796	0.0014
708.049	0.0004
708.302	-0.0002
708.555	-0.0001
708.807	0.0011
709.06	0.0007
709.312	-0.0005
709.565	-0.0014
709.817	-0.0008
710.069	0.0002
710.322	0.0007
710.574	0.0008
710.826	0.0007
711.078	0.0018
711.33	0.0013
711.582	0.0014
711.834	0.0023
712.086	0.0027
712.338	0.0041
712.59	0.0032
712.841	0.0022
713.093	0.0019
713.344	0.0018
713.596	0.0021
713.847	0.0024
714.099	0.0038
714.35	0.0038
714.601	0.0033
714.853	0.0044
715.104	0.0047
715.355	0.0031
715.606	0.0036
715.857	0.0039
716.108	0.0044
716.359	0.0041
716.609	0.0047
716.86	0.0045
717.111	0.0029
717.361	0.0023
717.612	0.0027
717.863	0.0022
718.113	0.0025
718.363	0.0013
718.614	0.0023
718.864	0.0022
719.114	0.0019
719.364	0.0011
719.614	0.0002
719.865	0.0003
720.114	0.0009
720.364	0.0013
720.614	0.003
720.864	0.0028
721.114	0.0026
721.364	0.0034
721.613	0.0044
721.863	0.0045
722.112	0.0047
722.362	0.0045
722.611	0.0039
722.86	0.0022
723.11	0.0011
723.359	0.0019
723.608	0.0025
723.857	0.0037
724.106	0.0055
724.355	0.0051
724.604	0.0053
724.853	0.0041
725.102	0.0035
725.351	0.0031
725.599	0.0024
725.848	0.0025
726.097	0.0023
726.345	0.0026
726.594	0.0016
726.842	0.0019
727.09	0.0018
727.339	0.0012
727.587	0.001
727.835	0.0007
728.083	-0
728.331	-0.0004
728.579	-0
728.827	0.0011
729.075	0.0012
729.323	0.0021
729.571	0.0031
729.818	0.0027
730.066	0.0027
730.314	0.0028
730.561	0.0021
730.809	0.0009
731.056	0.0006
731.303	0.0006
731.551	0.002
731.798	0.0011
732.045	0.002
732.292	0.0023
732.539	0.0024
732.786	0.0017
733.033	0.0025
733.28	0.003
733.527	0.0046
733.774	0.0024
734.021	0.0035
734.267	0.0043
734.514	0.0031
734.76	0.0045
735.007	0.0058
735.253	0.0053
735.5	0.0054
735.746	0.0048
735.992	0.0051
736.238	0.0059
736.485	0.0062
736.731	0.0061
736.977	0.0049
737.223	0.0044
737.469	0.0055
737.715	0.0057
737.96	0.0076
738.206	0.0067
738.452	0.0093
738.697	0.0089
738.943	0.0085
739.189	0.0064
739.434	0.004
739.679	0.0047
739.925	0.0043
740.17	0.004
740.415	0.0039
740.66	0.004
740.906	0.0047
741.151	0.0039
741.396	0.0045
741.641	0.0075
741.886	0.0069
742.13	0.0068
742.375	0.0071
742.62	0.0074
742.865	0.0055
743.109	0.0057
743.354	0.006
743.598	0.0061
743.843	0.0067
744.087	0.0071
744.331	0.0077
744.576	0.0078
744.82	0.0072
745.064	0.0071
745.308	0.0056
745.552	0.0056
745.796	0.0055
746.04	0.005
746.284	0.004
746.528	0.003
746.771	0.0033
747.015	0.0033
747.259	0.003
747.502	0.0032
747.746	0.0045
747.989	0.0044
748.233	0.0062
748.476	0.0059
748.719	0.0066
748.963	0.0066
749.206	0.006
749.449	0.0058
749.692	0.0048
749.935	0.0069
750.178	0.0063
750.421	0.0055
750.664	0.0055
750.906	0.0051
751.149	0.0037
751.392	0.0026
751.635	0.0012
751.877	0.0011
752.12	0.0006
752.362	0.0007
752.604	0.0011
752.847	0.0021
753.089	0.0026
753.331	0.003
753.573	0.0027
753.816	0.003
754.058	0.0037
754.3	0.0049
754.542	0.0057
754.783	0.0048
755.025	0.0041
755.267	0.0026
755.509	0.0029
755.75	0.0022
755.992	0.0031
756.234	0.0029
756.475	0.0016
756.716	0.0013
756.958	0.0005
757.199	0.0012
757.44	0.0024
757.682	0.0015
757.923	0.0011
758.164	0.0011
758.405	0.0002
758.646	0.0004
758.887	0.0018
759.128	0.0017
759.369	0.0009
759.609	0.0006
759.85	0.0006
760.091	0.0023
760.331	0.0014
760.572	0.0009
760.812	-0
761.053	0.0006
761.293	0.0023
761.533	0.0034
761.774	0.0036
762.014	0.004
762.254	0.0033
762.494	0.0023
762.734	0.0025
762.974	0.002
763.214	0.001
763.454	0.0007
763.694	0.0008
763.933	0.0003
764.173	0.001
764.413	0.0004
764.652	0.0006
764.892	0.0017
765.131	0.0018
765.371	0.0015
765.61	0.0028
765.849	0.002
766.089	0.0027
766.328	0.0046
766.567	0.0038
766.806	0.0046
767.045	0.0043
767.284	0.0048
767.523	0.0056
767.762	0.0054
768.001	0.004
768.239	0.003
768.478	0.003
768.717	0.0035
768.955	0.0027
769.194	0.0023
769.432	0.0032
769.671	0.004
769.909	0.003
770.148	0.0038
770.386	0.0039
770.624	0.0034
770.862	0.0041
771.1	0.0041
771.338	0.0031
771.576	0.0039
771.814	0.0044
772.052	0.004
772.29	0.0036
772.528	0.0052
772.765	0.0036
773.003	0.0051
773.24	0.004
773.478	0.0034
773.716	0.0045
773.953	0.0037
774.19	0.004
774.428	0.0039
774.665	0.004
774.902	0.0045
775.139	0.0038
775.376	0.0049
775.613	0.0034
775.85	0.0047
776.087	0.0048
776.324	0.0046
776.561	0.0055
776.798	0.0068
777.034	0.0074
777.271	0.0075
777.508	0.0085
777.744	0.0082
777.981	0.0067
778.217	0.0073
778.454	0.0068
778.69	0.0064
778.926	0.0056
779.162	0.0059
779.399	0.0049
779.635	0.0039
779.871	0.0041
780.107	0.0052
780.343	0.0062
780.579	0.0065
780.814	0.0061
781.05	0.0051
781.286	0.0046
781.522	0.0054
781.757	0.0063
781.993	0.0065
782.228	0.0065
782.464	0.0061
782.699	0.0055
782.934	0.0051
783.17	0.0054
783.405	0.0049
783.64	0.0045
783.875	0.0049
784.11	0.0049
784.345	0.0055
784.58	0.0054
784.815	0.0062
785.05	0.0067
785.285	0.0047
785.52	0.0044
785.754	0.0053
785.989	0.0041
786.223	0.0038
786.458	0.0042
786.692	0.0047
786.927	0.0046
787.161	0.0057
787.396	0.0046
787.63	0.0041
787.864	0.0036
788.098	0.0036
788.332	0.0032
788.566	0.0029
788.8	0.0022
789.034	0.0025
789.268	0.0037
789.502	0.0031
789.736	0.0042
789.969	0.004
790.203	0.0042
790.437	0.0028
790.67	0.0029
790.904	0.0038
791.137	0.0027
791.37	0.0025
791.604	0.0017
791.837	0.0017
792.07	0.002
792.303	0.0033
792.537	0.003
792.77	0.0025
793.003	0.0036
793.236	0.0016
793.469	0.0021
793.701	0.0025
793.934	0.0027
794.167	0.0019
794.4	0.0018
794.632	0.0028
794.865	0.002
795.097	0.0028
795.33	0.0038
795.562	0.0037
795.795	0.0042
796.027	0.0049
796.259	0.0044
796.491	0.0046
796.724	0.0039
796.956	0.0049
797.188	0.0047
797.42	0.0035
797.652	0.0035
797.883	0.0031
798.115	0.0024
798.347	0.0023
798.579	0.001
798.81	0.0004
799.042	0.0012
799.274	-0.0001
799.505	0.0014
799.737	-0.0001
799.968	0.0011
800.199	0.0014
800.431	0.0014
800.662	0.0018
800.893	0.0015
801.124	0.0015
801.355	0.0014
801.586	0.0017
801.817	0.0014
802.048	0.001
802.279	0.0007
802.51	0.0014
802.741	-0.0003
802.971	0.0002
803.202	-0.0006
803.433	-0
803.663	0.0004
803.894	0.0018
804.124	0.0021
804.354	0.0021
804.585	0.0022
804.815	0.0017
805.045	0.0014
805.275	0.0002
805.506	-0.0545
805.736	0.0141
805.966	0.0296
806.196	0.1074
