Data from 03 0.2 mM BQDS 0.4 mM K2Cr2O7 1 M H2SO4 5 min_Absorbance_13-27-42-730.txt Node
Date: Wed Dec 08 13:27:42 EST 2021
User: kwabilab-user
Spectrometer: HDX00518
Trigger mode: 0
Integration Time (sec): 5.000000E-2
Scans to average: 50
Nonlinearity correction enabled: false
Boxcar width: 0
Storing dark spectrum: false
XAxis mode: Wavelengths
Number of Pixels in Spectrum: 2068
>>>>>Begin Spectral Data<<<<<
195.27	0.1804
195.642	0.0692
196.014	0.1856
196.386	0.0072
196.758	0.0395
197.129	0.0319
197.501	0.0346
197.872	0.0821
198.244	0.0971
198.615	0.1168
198.986	0.108
199.357	0.1069
199.728	0.1205
200.099	0.092
200.47	0.108
200.841	0.1022
201.212	0.1136
201.582	0.0975
201.953	0.1297
202.323	0.1091
202.694	0.1035
203.064	0.11
203.434	0.101
203.804	0.1082
204.174	0.112
204.544	0.1068
204.914	0.1061
205.284	0.0972
205.653	0.114
206.023	0.1032
206.393	0.103
206.762	0.1101
207.131	0.1144
207.501	0.1198
207.87	0.1309
208.239	0.1249
208.608	0.1104
208.977	0.1144
209.346	0.1241
209.715	0.1136
210.083	0.1365
210.452	0.1262
210.82	0.1464
211.189	0.1432
211.557	0.1333
211.925	0.149
212.294	0.169
212.662	0.1588
213.03	0.1489
213.398	0.146
213.766	0.1741
214.133	0.19
214.501	0.1996
214.869	0.1972
215.236	0.224
215.604	0.2187
215.971	0.2318
216.338	0.2415
216.705	0.2736
217.072	0.3085
217.439	0.3135
217.806	0.358
218.173	0.3535
218.54	0.3967
218.907	0.4367
219.273	0.4738
219.64	0.4866
220.006	0.5385
220.373	0.5615
220.739	0.6148
221.105	0.6453
221.471	0.6713
221.837	0.7214
222.203	0.7632
222.569	0.7962
222.935	0.8209
223.3	0.8404
223.666	0.8779
224.031	0.8988
224.397	0.9252
224.762	0.9382
225.127	0.9547
225.493	0.9891
225.858	0.9814
226.223	0.9963
226.588	0.9947
226.952	1.0067
227.317	1.0164
227.682	1.01
228.046	1.0053
228.411	1.0007
228.775	1.0037
229.14	0.996
229.504	0.9933
229.868	0.9921
230.232	0.9806
230.596	0.9755
230.96	0.9698
231.324	0.9571
231.688	0.951
232.052	0.9479
232.415	0.9337
232.779	0.926
233.142	0.9193
233.505	0.9053
233.869	0.9012
234.232	0.8933
234.595	0.8805
234.958	0.8693
235.321	0.8625
235.684	0.8531
236.047	0.8452
236.409	0.8374
236.772	0.8232
237.134	0.8181
237.497	0.8088
237.859	0.8019
238.222	0.7918
238.584	0.7845
238.946	0.7728
239.308	0.768
239.67	0.7599
240.032	0.753
240.393	0.7458
240.755	0.7374
241.117	0.7308
241.478	0.7261
241.84	0.7188
242.201	0.7089
242.562	0.7032
242.924	0.6966
243.285	0.6905
243.646	0.6831
244.007	0.6799
244.368	0.6727
244.728	0.6699
245.089	0.6668
245.45	0.6597
245.81	0.6566
246.171	0.6515
246.531	0.6478
246.891	0.6423
247.252	0.6389
247.612	0.6355
247.972	0.6298
248.332	0.628
248.692	0.6249
249.051	0.6196
249.411	0.6174
249.771	0.6137
250.13	0.6115
250.49	0.6097
250.849	0.6081
251.208	0.6059
251.568	0.6012
251.927	0.6009
252.286	0.5982
252.645	0.5939
253.004	0.5939
253.363	0.5902
253.721	0.5902
254.08	0.5874
254.439	0.5839
254.797	0.5828
255.155	0.5822
255.514	0.5772
255.872	0.5776
256.23	0.5734
256.588	0.5731
256.946	0.5715
257.304	0.5695
257.662	0.5688
258.02	0.5664
258.377	0.5657
258.735	0.5632
259.093	0.5611
259.45	0.5581
259.807	0.5594
260.165	0.5581
260.522	0.5552
260.879	0.5521
261.236	0.5495
261.593	0.5489
261.95	0.5454
262.306	0.5453
262.663	0.5425
263.02	0.5412
263.376	0.54
263.733	0.5375
264.089	0.5353
264.445	0.5337
264.802	0.5328
265.158	0.5299
265.514	0.5282
265.87	0.5258
266.226	0.5248
266.581	0.5224
266.937	0.5184
267.293	0.5172
267.648	0.5155
268.004	0.5131
268.359	0.5108
268.714	0.5066
269.07	0.5058
269.425	0.5015
269.78	0.5004
270.135	0.4988
270.49	0.4947
270.844	0.4929
271.199	0.4904
271.554	0.488
271.908	0.4852
272.263	0.4809
272.617	0.4812
272.972	0.477
273.326	0.4747
273.68	0.4712
274.034	0.4677
274.388	0.4665
274.742	0.4624
275.096	0.4598
275.45	0.4573
275.803	0.453
276.157	0.4506
276.51	0.4455
276.864	0.4444
277.217	0.4413
277.571	0.4364
277.924	0.4331
278.277	0.4293
278.63	0.4275
278.983	0.4241
279.336	0.4207
279.688	0.4166
280.041	0.413
280.394	0.4087
280.746	0.4056
281.099	0.4023
281.451	0.3972
281.803	0.3936
282.156	0.3918
282.508	0.3881
282.86	0.384
283.212	0.3801
283.564	0.3756
283.916	0.3727
284.267	0.3689
284.619	0.3659
284.971	0.3617
285.322	0.3585
285.673	0.3548
286.025	0.3521
286.376	0.3472
286.727	0.3432
287.078	0.3394
287.429	0.337
287.78	0.3319
288.131	0.327
288.482	0.3244
288.833	0.3207
289.183	0.3167
289.534	0.3142
289.884	0.3097
290.235	0.3066
290.585	0.3021
290.935	0.2985
291.285	0.2937
291.635	0.2913
291.985	0.2874
292.335	0.283
292.685	0.2804
293.035	0.2761
293.384	0.2723
293.734	0.2691
294.083	0.2651
294.433	0.2609
294.782	0.2581
295.131	0.255
295.48	0.2511
295.829	0.2476
296.179	0.2443
296.527	0.241
296.876	0.2381
297.225	0.2355
297.574	0.2313
297.922	0.2283
298.271	0.2252
298.619	0.2216
298.968	0.2195
299.316	0.2165
299.664	0.2141
300.012	0.2107
300.36	0.2071
300.708	0.2051
301.056	0.2026
301.404	0.2
301.752	0.198
302.099	0.1954
302.447	0.1929
302.794	0.1903
303.142	0.1887
303.489	0.186
303.836	0.184
304.183	0.1826
304.531	0.1808
304.878	0.179
305.224	0.1768
305.571	0.1756
305.918	0.1736
306.265	0.1715
306.611	0.1706
306.958	0.1687
307.304	0.1673
307.651	0.1667
307.997	0.1653
308.343	0.1641
308.689	0.1635
309.035	0.1625
309.381	0.1619
309.727	0.1596
310.073	0.1593
310.419	0.1586
310.764	0.1578
311.11	0.1574
311.455	0.1565
311.801	0.1562
312.146	0.1555
312.491	0.1554
312.837	0.1549
313.182	0.1545
313.527	0.1536
313.872	0.1538
314.216	0.1534
314.561	0.1533
314.906	0.1534
315.251	0.153
315.595	0.1531
315.94	0.1532
316.284	0.1531
316.628	0.1536
316.972	0.1535
317.317	0.1535
317.661	0.1546
318.005	0.1545
318.348	0.1548
318.692	0.1551
319.036	0.1554
319.38	0.1555
319.723	0.1564
320.067	0.1568
320.41	0.1571
320.754	0.1579
321.097	0.1589
321.44	0.1595
321.783	0.1605
322.126	0.1601
322.469	0.162
322.812	0.1625
323.155	0.1633
323.498	0.1642
323.84	0.1654
324.183	0.166
324.525	0.1674
324.868	0.1677
325.21	0.1692
325.552	0.1697
325.894	0.1708
326.236	0.1718
326.578	0.173
326.92	0.1737
327.262	0.1749
327.604	0.1765
327.946	0.1774
328.287	0.179
328.629	0.1795
328.97	0.1805
329.312	0.1822
329.653	0.183
329.994	0.1843
330.335	0.1857
330.676	0.1867
331.017	0.1878
331.358	0.189
331.699	0.1903
332.04	0.1919
332.38	0.1926
332.721	0.1946
333.061	0.1949
333.402	0.1963
333.742	0.1978
334.083	0.1987
334.423	0.2004
334.763	0.201
335.103	0.2016
335.443	0.2021
335.783	0.2035
336.123	0.2043
336.462	0.2055
336.802	0.2069
337.141	0.2078
337.481	0.2081
337.82	0.2093
338.16	0.2098
338.499	0.2108
338.838	0.212
339.177	0.2132
339.516	0.2139
339.855	0.2151
340.194	0.216
340.533	0.2166
340.872	0.2175
341.21	0.2188
341.549	0.2193
341.887	0.2194
342.226	0.2204
342.564	0.2193
342.902	0.2211
343.24	0.221
343.578	0.2209
343.916	0.2215
344.254	0.2224
344.592	0.2218
344.93	0.2222
345.268	0.2225
345.605	0.2223
345.943	0.2226
346.28	0.2227
346.618	0.2227
346.955	0.2225
347.292	0.2228
347.629	0.2235
347.966	0.2234
348.303	0.2234
348.64	0.2226
348.977	0.2231
349.314	0.2227
349.65	0.2234
349.987	0.2229
350.324	0.2225
350.66	0.2222
350.996	0.2228
351.333	0.2207
351.669	0.2203
352.005	0.2206
352.341	0.2194
352.677	0.2187
353.013	0.2173
353.349	0.2174
353.685	0.2154
354.02	0.2152
354.356	0.2144
354.691	0.2134
355.027	0.213
355.362	0.2104
355.697	0.2102
356.033	0.2089
356.368	0.209
356.703	0.2075
357.038	0.2073
357.373	0.2061
357.707	0.2055
358.042	0.205
358.377	0.2035
358.711	0.2026
359.046	0.2018
359.38	0.1998
359.715	0.1995
360.049	0.1981
360.383	0.1975
360.717	0.1965
361.051	0.1941
361.385	0.194
361.719	0.191
362.053	0.1906
362.387	0.1882
362.72	0.1867
363.054	0.1855
363.387	0.1837
363.721	0.1825
364.054	0.1806
364.387	0.1784
364.721	0.1775
365.054	0.1757
365.387	0.1745
365.72	0.173
366.053	0.1708
366.385	0.1698
366.718	0.1679
367.051	0.167
367.383	0.1656
367.716	0.1641
368.048	0.1628
368.381	0.1616
368.713	0.1611
369.045	0.1602
369.377	0.1579
369.709	0.1567
370.041	0.1548
370.373	0.1546
370.705	0.153
371.037	0.1512
371.368	0.1491
371.7	0.1482
372.031	0.1465
372.363	0.1446
372.694	0.1439
373.025	0.1413
373.356	0.1397
373.688	0.1372
374.019	0.1357
374.35	0.1336
374.68	0.1317
375.011	0.13
375.342	0.1279
375.673	0.1264
376.003	0.1246
376.334	0.1232
376.664	0.1214
376.995	0.1203
377.325	0.1192
377.655	0.1179
377.985	0.1165
378.315	0.1148
378.645	0.1138
378.975	0.1122
379.305	0.1109
379.635	0.1106
379.964	0.1086
380.294	0.1079
380.623	0.1065
380.953	0.105
381.282	0.1041
381.611	0.1023
381.941	0.1012
382.27	0.1006
382.599	0.0987
382.928	0.0979
383.257	0.0964
383.585	0.0954
383.914	0.0941
384.243	0.0919
384.571	0.0906
384.9	0.0886
385.228	0.0874
385.557	0.0867
385.885	0.0852
386.213	0.0832
386.541	0.082
386.869	0.081
387.197	0.0791
387.525	0.0774
387.853	0.0758
388.181	0.0752
388.508	0.0741
388.836	0.0733
389.164	0.0719
389.491	0.0702
389.818	0.0695
390.146	0.0686
390.473	0.0676
390.8	0.0666
391.127	0.0655
391.454	0.0647
391.781	0.0639
392.108	0.0627
392.435	0.0613
392.761	0.0606
393.088	0.0597
393.415	0.059
393.741	0.0591
394.067	0.0578
394.394	0.0572
394.72	0.0566
395.046	0.0551
395.372	0.0543
395.698	0.0535
396.024	0.0529
396.35	0.0525
396.676	0.0524
397.001	0.0513
397.327	0.0501
397.653	0.0493
397.978	0.0487
398.303	0.0472
398.629	0.0467
398.954	0.0466
399.279	0.0462
399.604	0.046
399.929	0.0452
400.254	0.0447
400.579	0.0443
400.904	0.0428
401.229	0.0429
401.553	0.0411
401.878	0.0409
402.202	0.0414
402.527	0.0407
402.851	0.0404
403.175	0.0403
403.5	0.0401
403.824	0.04
404.148	0.0392
404.472	0.0393
404.796	0.0384
405.119	0.0385
405.443	0.0373
405.767	0.0369
406.09	0.0371
406.414	0.0377
406.737	0.0369
407.061	0.0371
407.384	0.0368
407.707	0.0361
408.03	0.0368
408.353	0.0369
408.676	0.0362
408.999	0.0356
409.322	0.0362
409.645	0.036
409.968	0.0354
410.29	0.0357
410.613	0.0353
410.935	0.0353
411.258	0.0357
411.58	0.0355
411.902	0.0354
412.224	0.0354
412.546	0.0358
412.868	0.0356
413.19	0.0351
413.512	0.0351
413.834	0.0351
414.156	0.036
414.477	0.0356
414.799	0.0355
415.121	0.0352
415.442	0.0354
415.763	0.0358
416.085	0.0355
416.406	0.0352
416.727	0.0353
417.048	0.0355
417.369	0.0357
417.69	0.0353
418.011	0.0353
418.331	0.036
418.652	0.0353
418.973	0.0362
419.293	0.0361
419.614	0.036
419.934	0.0359
420.254	0.0363
420.574	0.0358
420.895	0.036
421.215	0.0357
421.535	0.0351
421.855	0.0354
422.174	0.0357
422.494	0.0355
422.814	0.0366
423.134	0.0359
423.453	0.0362
423.773	0.0359
424.092	0.0362
424.411	0.0356
424.731	0.0363
425.05	0.0359
425.369	0.0369
425.688	0.0362
426.007	0.0366
426.326	0.0372
426.644	0.0375
426.963	0.0369
427.282	0.0377
427.6	0.0372
427.919	0.0373
428.237	0.0373
428.556	0.0376
428.874	0.0373
429.192	0.0369
429.51	0.0369
429.828	0.0376
430.146	0.0377
430.464	0.0376
430.782	0.0376
431.1	0.0375
431.418	0.0371
431.735	0.0378
432.053	0.0377
432.37	0.0378
432.688	0.0375
433.005	0.0377
433.322	0.0379
433.639	0.0378
433.957	0.0379
434.274	0.0383
434.591	0.0382
434.907	0.0387
435.224	0.0385
435.541	0.0383
435.858	0.0396
436.174	0.0388
436.491	0.0383
436.807	0.0386
437.124	0.0373
437.44	0.0375
437.756	0.038
438.072	0.0381
438.388	0.0392
438.704	0.0383
439.02	0.0383
439.336	0.0379
439.652	0.0378
439.968	0.0384
440.283	0.0379
440.599	0.0381
440.914	0.0384
441.23	0.0378
441.545	0.0375
441.86	0.0375
442.175	0.0383
442.491	0.0378
442.806	0.038
443.121	0.0382
443.435	0.0376
443.75	0.0378
444.065	0.0371
444.38	0.038
444.694	0.0375
445.009	0.0377
445.323	0.0377
445.638	0.0374
445.952	0.0377
446.266	0.0373
446.58	0.0378
446.894	0.0379
447.208	0.038
447.522	0.0379
447.836	0.0368
448.15	0.0369
448.464	0.0366
448.777	0.0364
449.091	0.0364
449.404	0.0368
449.718	0.0373
450.031	0.0363
450.345	0.0367
450.658	0.0365
450.971	0.036
451.284	0.0359
451.597	0.0361
451.91	0.0366
452.223	0.036
452.535	0.0367
452.848	0.0358
453.161	0.0353
453.473	0.0367
453.786	0.036
454.098	0.0355
454.411	0.0355
454.723	0.0357
455.035	0.0353
455.347	0.0362
455.659	0.0358
455.971	0.0355
456.283	0.0354
456.595	0.0349
456.907	0.0346
457.218	0.0352
457.53	0.0347
457.841	0.0342
458.153	0.0345
458.464	0.0345
458.776	0.0329
459.087	0.0338
459.398	0.0341
459.709	0.0337
460.02	0.0333
460.331	0.0329
460.642	0.0327
460.953	0.0332
461.263	0.0327
461.574	0.0327
461.885	0.0323
462.195	0.0323
462.506	0.0326
462.816	0.0323
463.126	0.0317
463.437	0.032
463.747	0.0319
464.057	0.0315
464.367	0.0311
464.677	0.0306
464.987	0.0311
465.296	0.0302
465.606	0.0309
465.916	0.0306
466.225	0.0299
466.535	0.0297
466.844	0.0298
467.154	0.0291
467.463	0.0292
467.772	0.0301
468.081	0.0287
468.39	0.029
468.699	0.0287
469.008	0.0294
469.317	0.0283
469.626	0.0281
469.935	0.0286
470.243	0.0283
470.552	0.0292
470.86	0.0283
471.169	0.0278
471.477	0.0277
471.785	0.0273
472.093	0.0279
472.402	0.0269
472.71	0.0268
473.018	0.0266
473.326	0.0257
473.633	0.0264
473.941	0.0263
474.249	0.0264
474.556	0.0265
474.864	0.0246
475.171	0.0243
475.479	0.0254
475.786	0.0252
476.094	0.025
476.401	0.0246
476.708	0.0247
477.015	0.0254
477.322	0.0245
477.629	0.025
477.936	0.0232
478.242	0.0239
478.549	0.0239
478.856	0.023
479.162	0.0239
479.469	0.0239
479.775	0.0231
480.081	0.0225
480.388	0.0234
480.694	0.0221
481	0.022
481.306	0.0224
481.612	0.0222
481.918	0.0213
482.224	0.0214
482.53	0.0219
482.835	0.0209
483.141	0.0201
483.446	0.0207
483.752	0.0215
484.057	0.0195
484.363	0.0202
484.668	0.0197
484.973	0.0193
485.278	0.0196
485.583	0.0195
485.888	0.0189
486.193	0.0187
486.498	0.0175
486.803	0.0187
487.107	0.0181
487.412	0.0182
487.717	0.0173
488.021	0.0181
488.325	0.0174
488.63	0.0166
488.934	0.0174
489.238	0.0179
489.542	0.0174
489.846	0.0163
490.15	0.0162
490.454	0.0168
490.758	0.0168
491.062	0.0155
491.366	0.0158
491.669	0.0158
491.973	0.0161
492.276	0.0154
492.58	0.0151
492.883	0.0153
493.186	0.0157
493.489	0.0145
493.792	0.0157
494.096	0.0156
494.399	0.0146
494.701	0.0145
495.004	0.014
495.307	0.014
495.61	0.0138
495.912	0.0136
496.215	0.0131
496.517	0.0128
496.82	0.0128
497.122	0.0133
497.424	0.0127
497.727	0.0125
498.029	0.0136
498.331	0.0138
498.633	0.0129
498.935	0.0121
499.237	0.0123
499.538	0.0121
499.84	0.0116
500.142	0.0123
500.443	0.0119
500.745	0.0121
501.046	0.0112
501.348	0.0109
501.649	0.0117
501.95	0.0104
502.251	0.0114
502.552	0.0104
502.853	0.01
503.154	0.0104
503.455	0.0097
503.756	0.01
504.057	0.0103
504.357	0.01
504.658	0.0092
504.958	0.0102
505.259	0.01
505.559	0.0107
505.859	0.0091
506.16	0.009
506.46	0.0096
506.76	0.0099
507.06	0.0081
507.36	0.0094
507.66	0.0098
507.96	0.0097
508.259	0.0085
508.559	0.0083
508.859	0.0089
509.158	0.0089
509.457	0.0084
509.757	0.0086
510.056	0.0082
510.355	0.0079
510.655	0.007
510.954	0.008
511.253	0.0084
511.552	0.0073
511.851	0.0071
512.149	0.0081
512.448	0.0072
512.747	0.0072
513.045	0.0062
513.344	0.0076
513.642	0.0075
513.941	0.0072
514.239	0.0071
514.537	0.0067
514.836	0.0069
515.134	0.0068
515.432	0.0061
515.73	0.0077
516.028	0.006
516.326	0.0072
516.623	0.0062
516.921	0.0062
517.219	0.0063
517.516	0.0063
517.814	0.006
518.111	0.0071
518.409	0.008
518.706	0.0063
519.003	0.0068
519.3	0.0056
519.597	0.0062
519.894	0.0065
520.191	0.0068
520.488	0.0066
520.785	0.0053
521.082	0.0056
521.378	0.0055
521.675	0.0041
521.971	0.0053
522.268	0.0048
522.564	0.0053
522.861	0.0052
523.157	0.0039
523.453	0.0046
523.749	0.0055
524.045	0.0054
524.341	0.0051
524.637	0.0053
524.933	0.005
525.229	0.0052
525.524	0.004
525.82	0.0059
526.115	0.0045
526.411	0.0049
526.706	0.0042
527.002	0.0049
527.297	0.0034
527.592	0.0051
527.887	0.0061
528.182	0.0051
528.477	0.0053
528.772	0.0051
529.067	0.0056
529.362	0.0049
529.657	0.0045
529.951	0.0053
530.246	0.0036
530.54	0.0023
530.835	0.0018
531.129	0.0025
531.423	0.004
531.718	0.003
532.012	0.0043
532.306	0.0033
532.6	0.0032
532.894	0.004
533.188	0.0043
533.482	0.0033
533.775	0.0035
534.069	0.0035
534.363	0.0023
534.656	0.0024
534.95	0.0029
535.243	0.0034
535.536	0.0029
535.83	0.0046
536.123	0.0032
536.416	0.0033
536.709	0.0035
537.002	0.0038
537.295	0.0034
537.588	0.0037
537.881	0.0028
538.173	0.002
538.466	0.0022
538.759	0.0033
539.051	0.003
539.344	0.0022
539.636	0.0026
539.928	0.0026
540.22	0.0039
540.513	0.0032
540.805	0.0029
541.097	0.0027
541.389	0.0035
541.681	0.0028
541.972	0.003
542.264	0.0029
542.556	0.0031
542.847	0.0033
543.139	0.0036
543.431	0.0044
543.722	0.0032
544.013	0.0045
544.305	0.005
544.596	0.0056
544.887	0.0034
545.178	0.0027
545.469	0.0035
545.76	0.0022
546.051	0.0042
546.342	0.0044
546.632	0.0021
546.923	0.0029
547.214	0.0035
547.504	0.0027
547.795	0.0039
548.085	0.0033
548.375	0.0036
548.666	0.0034
548.956	0.0023
549.246	0.0036
549.536	0.0029
549.826	0.0039
550.116	0.0033
550.406	0.0032
550.695	0.0046
550.985	0.0043
551.275	0.0043
551.564	0.0036
551.854	0.0046
552.143	0.0039
552.433	0.0036
552.722	0.0037
553.011	0.0036
553.3	0.0037
553.589	0.0029
553.879	0.0031
554.167	0.003
554.456	0.0036
554.745	0.0025
555.034	0.0032
555.323	0.0018
555.611	0.0015
555.9	0.0032
556.188	0.0037
556.477	0.0026
556.765	0.0013
557.053	0.003
557.342	0.0027
557.63	0.0039
557.918	0.0029
558.206	0.0027
558.494	0.0037
558.782	0.0029
559.069	0.0032
559.357	0.0039
559.645	0.003
559.932	0.0029
560.22	0.0039
560.507	0.0036
560.795	0.0022
561.082	0.0021
561.37	0.0029
561.657	0.0031
561.944	0.0036
562.231	0.0033
562.518	0.0022
562.805	0.0028
563.092	0.004
563.379	0.0041
563.665	0.0025
563.952	0.0038
564.239	0.0038
564.525	0.0036
564.811	0.0043
565.098	0.0042
565.384	0.0041
565.67	0.0038
565.957	0.0042
566.243	0.004
566.529	0.0045
566.815	0.0045
567.101	0.0034
567.387	0.003
567.672	0.0031
567.958	0.0037
568.244	0.0035
568.529	0.0033
568.815	0.0035
569.1	0.003
569.386	0.0031
569.671	0.0035
569.956	0.0033
570.242	0.0029
570.527	0.0038
570.812	0.0032
571.097	0.0038
571.382	0.003
571.666	0.0031
571.951	0.0027
572.236	0.0028
572.521	0.0027
572.805	0.0034
573.09	0.0022
573.374	0.0032
573.659	0.0021
573.943	0.0033
574.227	0.0026
574.511	0.0034
574.795	0.0027
575.079	0.0024
575.363	0.0023
575.647	0.0026
575.931	0.0034
576.215	0.0031
576.499	0.0026
576.782	0.003
577.066	0.0031
577.349	0.0026
577.633	0.0037
577.916	0.0032
578.2	0.0035
578.483	0.003
578.766	0.0025
579.049	0.0036
579.332	0.0027
579.615	0.0032
579.898	0.0037
580.181	0.003
580.464	0.0033
580.746	0.002
581.029	0.0029
581.312	0.0027
581.594	0.0022
581.877	0.0026
582.159	0.0029
582.441	0.003
582.724	0.0022
583.006	0.0025
583.288	0.0024
583.57	0.0017
583.852	0.002
584.134	0.0029
584.416	0.0035
584.697	0.0025
584.979	0.0028
585.261	0.0026
585.542	0.002
585.824	0.0026
586.105	0.0024
586.387	0.0024
586.668	0.0028
586.949	0.0032
587.231	0.002
587.512	0.0027
587.793	0.0027
588.074	0.0027
588.355	0.0031
588.636	0.0035
588.916	0.0029
589.197	0.003
589.478	0.0039
589.758	0.003
590.039	0.003
590.319	0.0032
590.6	0.0026
590.88	0.003
591.16	0.0033
591.441	0.0038
591.721	0.0027
592.001	0.0028
592.281	0.0035
592.561	0.0037
592.841	0.0034
593.12	0.0024
593.4	0.0019
593.68	0.0024
593.959	0.003
594.239	0.0039
594.518	0.0029
594.798	0.0033
595.077	0.0042
595.356	0.0031
595.636	0.0029
595.915	0.0034
596.194	0.0026
596.473	0.0031
596.752	0.0031
597.031	0.0027
597.31	0.002
597.588	0.0024
597.867	0.0022
598.146	0.0024
598.424	0.0021
598.703	0.0023
598.981	0.0022
599.259	0.0028
599.538	0.0029
599.816	0.0035
600.094	0.0029
600.372	0.0029
600.65	0.0034
600.928	0.0032
601.206	0.0034
601.484	0.0031
601.762	0.0032
602.04	0.0033
602.317	0.0032
602.595	0.0027
602.872	0.0028
603.15	0.0026
603.427	0.0021
603.704	0.002
603.982	0.0018
604.259	0.0015
604.536	0.0019
604.813	0.0022
605.09	0.0023
605.367	0.0026
605.644	0.0016
605.921	0.0025
606.197	0.002
606.474	0.002
606.751	0.0024
607.027	0.0028
607.304	0.0018
607.58	0.0024
607.856	0.0013
608.133	0.0024
608.409	0.0032
608.685	0.0025
608.961	0.0031
609.237	0.0032
609.513	0.0031
609.789	0.0035
610.065	0.002
610.341	0.0028
610.616	0.0025
610.892	0.0038
611.167	0.0041
611.443	0.0028
611.718	0.0028
611.994	0.0026
612.269	0.0033
612.544	0.0026
612.819	0.0023
613.095	0.0036
613.37	0.0025
613.645	0.002
613.919	0.0013
614.194	0.0028
614.469	0.0019
614.744	0.0018
615.019	0.0018
615.293	0.0006
615.568	0.0011
615.842	0.001
616.116	0.0005
616.391	0.0011
616.665	0.0018
616.939	0.0015
617.213	0.002
617.488	0.0015
617.762	0.0022
618.035	0.0025
618.309	0.0017
618.583	0.0015
618.857	0.0021
619.131	0.0024
619.404	0.0021
619.678	0.0016
619.951	0.0012
620.225	0.0009
620.498	0.002
620.771	0.0015
621.045	0.0029
621.318	0.0027
621.591	0.0027
621.864	0.0009
622.137	0.0005
622.41	0.0011
622.683	0.0015
622.956	0.0018
623.228	0.0026
623.501	0.0025
623.774	0.003
624.046	0.0027
624.319	0.0023
624.591	0.0015
624.863	0.002
625.136	0.0022
625.408	0.0025
625.68	0.0021
625.952	0.0023
626.224	0.0028
626.496	0.0024
626.768	0.0016
627.04	0.0023
627.311	0.0011
627.583	0.002
627.855	0.0015
628.126	0.0022
628.398	0.0031
628.669	0.0028
628.941	0.0023
629.212	0.0008
629.483	0.0012
629.755	0.0014
630.026	0.0012
630.297	0.0005
630.568	0.0005
630.839	0.0001
631.11	0.0014
631.38	0.0008
631.651	0.0008
631.922	-0.0002
632.192	-0.0002
632.463	0.0008
632.733	0.0004
633.004	0.001
633.274	-0.0001
633.545	0.0022
633.815	0.003
634.085	0.0029
634.355	0.0019
634.625	0.0035
634.895	0.0021
635.165	0.0015
635.435	0.0021
635.705	0.0015
635.974	0.0009
636.244	0.0017
636.514	0.0019
636.783	0.0022
637.053	0.0024
637.322	0.0013
637.591	0.0011
637.861	0.0017
638.13	0.0023
638.399	0.002
638.668	0.0029
638.937	0.0007
639.206	0.002
639.475	0.0026
639.744	0.0016
640.013	0.0033
640.281	0.0037
640.55	0.003
640.819	0.0029
641.087	0.0037
641.356	0.0023
641.624	0.0024
641.892	0.0027
642.161	0.0019
642.429	0.0028
642.697	0.0026
642.965	0.0034
643.233	0.0028
643.501	0.0029
643.769	0.0011
644.037	0.0023
644.305	0.0011
644.572	0.0006
644.84	0.0011
645.108	0.0014
645.375	0.0008
645.643	0.0017
645.91	0.0005
646.177	0.0027
646.445	0.0044
646.712	0.0041
646.979	0.0044
647.246	0.0037
647.513	0.0042
647.78	0.0035
648.047	0.0048
648.314	0.0037
648.58	0.0029
648.847	0.0021
649.114	0.0017
649.38	0.0018
649.647	0.001
649.913	0.0009
650.18	0.0018
650.446	0.0017
650.712	0.0027
650.978	0.0032
651.245	0.0022
651.511	0.0032
651.777	0.0027
652.043	0.0031
652.309	0.0024
652.574	0.0032
652.84	0.0024
653.106	0.0012
653.371	0.0012
653.637	0.002
653.903	0.0026
654.168	0.0026
654.433	0.0035
654.699	0.0037
654.964	0.0038
655.229	0.0032
655.494	0.0034
655.759	0.0021
656.024	0.0009
656.289	-0
656.554	-0.0021
656.819	-0.0004
657.084	0.002
657.349	0.003
657.613	0.0036
657.878	0.0038
658.142	0.0036
658.407	0.0033
658.671	0.0034
658.936	0.002
659.2	0.0021
659.464	0.0016
659.728	0.0018
659.992	0.0028
660.256	0.0019
660.52	0.001
660.784	0.0015
661.048	0.0008
661.312	-0.0002
661.575	0.0004
661.839	-0.0007
662.103	-0.0006
662.366	-0.0005
662.63	0
662.893	0.0007
663.156	0.0009
663.42	0.0009
663.683	0.0016
663.946	0.0023
664.209	0.0033
664.472	0.0025
664.735	0.003
664.998	0.0015
665.261	0.0021
665.524	0.0014
665.786	0.0011
666.049	0.0011
666.312	0.0022
666.574	0.0015
666.837	0.0011
667.099	0.0009
667.361	0.0003
667.624	0.0002
667.886	0.0006
668.148	0.0013
668.41	0.0024
668.672	0.0018
668.934	0.0017
669.196	0.0019
669.458	0.0022
669.72	0.0026
669.982	0.0024
670.243	0.0033
670.505	0.0029
670.766	0.0023
671.028	0.0029
671.289	0.0027
671.551	0.0019
671.812	0.0004
672.073	0.0012
672.334	0.0007
672.596	0.0008
672.857	0.0002
673.118	0.0008
673.379	-0.0003
673.639	-0.0003
673.9	0.0002
674.161	-0.0015
674.422	-0.002
674.682	-0.0014
674.943	-0.0016
675.203	0.0004
675.464	0.0003
675.724	0.0006
675.985	0.0012
676.245	0.002
676.505	0.0032
676.765	0.0026
677.025	0.0024
677.285	0.0024
677.545	0.0044
677.805	0.004
678.065	0.0034
678.325	0.0038
678.585	0.0033
678.844	0.0031
679.104	0.0015
679.363	0.0027
679.623	0.0034
679.882	0.0033
680.142	0.0036
680.401	0.0038
680.66	0.0045
680.919	0.0042
681.178	0.0045
681.437	0.0048
681.696	0.0042
681.955	0.0039
682.214	0.0044
682.473	0.0049
682.732	0.0038
682.99	0.0023
683.249	0.0033
683.508	0.0034
683.766	0.0042
684.024	0.0029
684.283	0.0032
684.541	0.0037
684.799	0.0038
685.058	0.0028
685.316	0.0026
685.574	0.0033
685.832	0.0036
686.09	0.0032
686.348	0.0044
686.606	0.004
686.863	0.0044
687.121	0.0042
687.379	0.0045
687.636	0.0045
687.894	0.0044
688.151	0.0049
688.409	0.0049
688.666	0.0043
688.923	0.0047
689.181	0.0043
689.438	0.0026
689.695	0.0036
689.952	0.0015
690.209	0.0024
690.466	0.0015
690.723	0.0036
690.979	0.0029
691.236	0.0028
691.493	0.0022
691.75	0.0032
692.006	0.0037
692.263	0.004
692.519	0.004
692.775	0.0024
693.032	0.001
693.288	0.003
693.544	0.0024
693.8	0.0018
694.056	0.0024
694.313	0.0028
694.568	0.0026
694.824	0.0026
695.08	0.004
695.336	0.003
695.592	0.003
695.847	0.0034
696.103	0.0039
696.359	0.0033
696.614	0.0033
696.869	0.0017
697.125	0.001
697.38	-0.0001
697.635	0.0001
697.891	-0
698.146	0.0007
698.401	0.0026
698.656	0.0017
698.911	0.0033
699.166	0.0015
699.42	0.0019
699.675	0.0013
699.93	0.0009
700.185	0.0012
700.439	0.003
700.694	0.0026
700.948	0.003
701.203	0.0027
701.457	0.0021
701.711	0.0016
701.965	0.0013
702.22	0.0002
702.474	0.0009
702.728	-0.0002
702.982	-0.0006
703.236	-0.0005
703.49	0.0004
703.743	-0.0001
703.997	0.0009
704.251	0.0012
704.504	0.0014
704.758	0.0012
705.012	0.0008
705.265	0.0009
705.518	0.0006
705.772	0.001
706.025	0.0006
706.278	0.0001
706.531	0.0005
706.785	-0.0014
707.038	-0.0004
707.291	0.0005
707.543	0.0007
707.796	0.0003
708.049	-0
708.302	-0.0009
708.555	0.0006
708.807	0.0013
709.06	0.0007
709.312	-0.0008
709.565	-0.0013
709.817	-0.002
710.069	-0.0008
710.322	-0.0012
710.574	-0
710.826	0.0001
711.078	0.0011
711.33	0.0008
711.582	0.0007
711.834	0.0022
712.086	0.0019
712.338	0.0024
712.59	0.0025
712.841	0.0026
713.093	0.0015
713.344	0.0018
713.596	0.0017
713.847	0.0022
714.099	0.0023
714.35	0.0031
714.601	0.0033
714.853	0.0033
715.104	0.0031
715.355	0.0024
715.606	0.0026
715.857	0.002
716.108	0.0029
716.359	0.0029
716.609	0.003
716.86	0.0029
717.111	0.0012
717.361	0.0003
717.612	0.0008
717.863	0.001
718.113	0.0008
718.363	0.0011
718.614	0.0008
718.864	0.0007
719.114	0.0015
719.364	0.001
719.614	0.0007
719.865	-0.0007
720.114	0.0006
720.364	0.001
720.614	0.0013
720.864	0.0032
721.114	0.002
721.364	0.0031
721.613	0.0039
721.863	0.004
722.112	0.0034
722.362	0.0043
722.611	0.003
722.86	0.0021
723.11	0.0014
723.359	0.0015
723.608	0.0028
723.857	0.0038
724.106	0.006
724.355	0.0056
724.604	0.0059
724.853	0.0047
725.102	0.0041
725.351	0.0028
725.599	0.0032
725.848	0.0023
726.097	0.0024
726.345	0.0027
726.594	0.0023
726.842	0.0018
727.09	0.0021
727.339	0.0021
727.587	0.0018
727.835	0.0009
728.083	-0
728.331	0.0003
728.579	-0.0012
728.827	-0.0002
729.075	0.0001
729.323	0.0009
729.571	0.0018
729.818	0.0018
730.066	0.0025
730.314	0.0024
730.561	0.0009
730.809	0.001
731.056	-0.0005
731.303	-0.001
731.551	0.0001
731.798	0.0004
732.045	-0.0001
732.292	0.0005
732.539	0.001
732.786	0.0015
733.033	0.0019
733.28	0.0018
733.527	0.0035
733.774	0.0021
734.021	0.0035
734.267	0.004
734.514	0.0039
734.76	0.0036
735.007	0.0043
735.253	0.005
735.5	0.0051
735.746	0.0053
735.992	0.005
736.238	0.0049
736.485	0.0056
736.731	0.0057
736.977	0.0054
737.223	0.0041
737.469	0.0054
737.715	0.0054
737.96	0.0074
738.206	0.0063
738.452	0.0082
738.697	0.0085
738.943	0.0074
739.189	0.0058
739.434	0.0033
739.679	0.0027
739.925	0.002
740.17	0.0016
740.415	0.0018
740.66	0.0037
740.906	0.0036
741.151	0.0035
741.396	0.0035
741.641	0.006
741.886	0.0053
742.13	0.0056
742.375	0.0067
742.62	0.007
742.865	0.0054
743.109	0.0047
743.354	0.0053
743.598	0.0057
743.843	0.0056
744.087	0.0049
744.331	0.0051
744.576	0.0047
744.82	0.0046
745.064	0.0036
745.308	0.0034
745.552	0.0035
745.796	0.0041
746.04	0.0035
746.284	0.0022
746.528	0.0005
746.771	0.0013
747.015	0.0013
747.259	0.0016
747.502	0.0014
747.746	0.0032
747.989	0.0026
748.233	0.0038
748.476	0.0033
748.719	0.0045
748.963	0.0053
749.206	0.0047
749.449	0.0052
749.692	0.0048
749.935	0.0058
750.178	0.0042
750.421	0.0039
750.664	0.0039
750.906	0.004
751.149	0.0037
751.392	0.0033
751.635	0.0015
751.877	0.0005
752.12	0
752.362	0.0014
752.604	0.0005
752.847	0.0016
753.089	0.002
753.331	0.0021
753.573	0.0027
753.816	0.003
754.058	0.0028
754.3	0.0039
754.542	0.0048
754.783	0.004
755.025	0.0037
755.267	0.0022
755.509	0.0017
755.75	0.0015
755.992	0.0024
756.234	0.0011
756.475	0.0008
756.716	0
756.958	-0
757.199	0.0003
757.44	0.0011
757.682	0.0017
757.923	0.0005
758.164	0
758.405	-0.0004
758.646	0.0003
758.887	0.0006
759.128	0.001
759.369	-0.0001
759.609	-0.0001
759.85	0.0003
760.091	0.001
760.331	0.0002
760.572	-0.0001
760.812	-0.0006
761.053	-0.0004
761.293	0.0004
761.533	0.0006
761.774	0.0006
762.014	0.0016
762.254	0.0018
762.494	0.0006
762.734	0.0004
762.974	0.0011
763.214	-0.0001
763.454	-0.0003
763.694	0.0001
763.933	-0.0006
764.173	0.0009
764.413	0.0005
764.652	0.001
764.892	0.0014
765.131	0.0016
765.371	0.001
765.61	0.0025
765.849	0.0021
766.089	0.0025
766.328	0.0034
766.567	0.0037
766.806	0.0037
767.045	0.0042
767.284	0.004
767.523	0.0048
767.762	0.0047
768.001	0.0045
768.239	0.0037
768.478	0.003
768.717	0.0027
768.955	0.0033
769.194	0.0019
769.432	0.002
769.671	0.0035
769.909	0.0026
770.148	0.003
770.386	0.0033
770.624	0.003
770.862	0.0035
771.1	0.0033
771.338	0.0031
771.576	0.0032
771.814	0.0021
772.052	0.0025
772.29	0.0037
772.528	0.0044
772.765	0.0033
773.003	0.0044
773.24	0.0042
773.478	0.003
773.716	0.0045
773.953	0.0045
774.19	0.0049
774.428	0.0043
774.665	0.0045
774.902	0.0048
775.139	0.0041
775.376	0.004
775.613	0.0035
775.85	0.0042
776.087	0.0029
776.324	0.0033
776.561	0.0037
776.798	0.0052
777.034	0.0062
777.271	0.0074
777.508	0.0073
777.744	0.0069
777.981	0.0063
778.217	0.0058
778.454	0.0059
778.69	0.0051
778.926	0.0051
779.162	0.0051
779.399	0.004
779.635	0.0045
779.871	0.0037
780.107	0.0042
780.343	0.0042
780.579	0.0056
780.814	0.0049
781.05	0.0044
781.286	0.0051
781.522	0.0038
781.757	0.0056
781.993	0.0056
782.228	0.0062
782.464	0.0059
782.699	0.0048
782.934	0.0041
783.17	0.0043
783.405	0.004
783.64	0.0039
783.875	0.0028
784.11	0.0038
784.345	0.0043
784.58	0.0037
784.815	0.0041
785.05	0.0044
785.285	0.0024
785.52	0.0012
785.754	0.0029
785.989	0.0022
786.223	0.001
786.458	0.0014
786.692	0.0014
786.927	0.0005
787.161	0.0014
787.396	0.0013
787.63	0.0001
787.864	0.0001
788.098	0.0006
788.332	0.0009
788.566	0.0004
788.8	0.0006
789.034	0.0002
789.268	0.0013
789.502	0.0015
789.736	0.0019
789.969	0.0031
790.203	0.0025
790.437	0.0024
790.67	0.0024
790.904	0.0023
791.137	0.0009
791.37	0.0015
791.604	0.0008
791.837	0.0014
792.07	0.0007
792.303	0.0001
792.537	0.0007
792.77	0.0001
793.003	0
793.236	-0.0004
793.469	-0.001
793.701	-0
793.934	-0.0002
794.167	0.0003
794.4	0.0002
794.632	-0.0002
794.865	-0.0009
795.097	0.0007
795.33	0.0013
795.562	0.001
795.795	0.0008
796.027	0.0011
796.259	0.0014
796.491	0.0013
796.724	0.0004
796.956	0.0012
797.188	0.0021
797.42	0.001
797.652	0.0016
797.883	0.0004
798.115	-0.0002
798.347	-0.0003
798.579	-0.0009
798.81	-0.0015
799.042	-0.0018
799.274	-0.0027
799.505	-0.0017
799.737	-0.0031
799.968	-0.0017
800.199	-0.0006
800.431	-0.0014
800.662	-0.0003
800.893	0.0007
801.124	0.0004
801.355	0.0007
801.586	0.0008
801.817	0.0021
802.048	0.0012
802.279	0.0008
802.51	0.0018
802.741	-0.0009
802.971	-0.0002
803.202	-0.001
803.433	-0.0018
803.663	-0.001
803.894	-0.0007
804.124	0.0007
804.354	0.0001
804.585	0
804.815	-0.0004
805.045	-0.0001
805.275	-0.0002
805.506	-0.0602
805.736	0.0644
805.966	-0.0127
806.196	0.1123
