Data from 03 0.2 mM BQDS 0.4 mM K2Cr2O7 1 M H2SO4 5 min_Absorbance_07-47-42-508.txt Node
Date: Wed Dec 08 07:47:42 EST 2021
User: kwabilab-user
Spectrometer: HDX00518
Trigger mode: 0
Integration Time (sec): 5.000000E-2
Scans to average: 50
Nonlinearity correction enabled: false
Boxcar width: 0
Storing dark spectrum: false
XAxis mode: Wavelengths
Number of Pixels in Spectrum: 2068
>>>>>Begin Spectral Data<<<<<
195.27	0.1605
195.642	0.0792
196.014	0.0631
196.386	0.1174
196.758	0.0667
197.129	0.0352
197.501	0.0601
197.872	0.1096
198.244	0.1246
198.615	0.1222
198.986	0.1269
199.357	0.1155
199.728	0.1272
200.099	0.1199
200.47	0.1193
200.841	0.1134
201.212	0.1279
201.582	0.1233
201.953	0.1231
202.323	0.1259
202.694	0.1218
203.064	0.1286
203.434	0.1201
203.804	0.1438
204.174	0.134
204.544	0.1308
204.914	0.1352
205.284	0.125
205.653	0.1331
206.023	0.1414
206.393	0.1325
206.762	0.1353
207.131	0.136
207.501	0.1456
207.87	0.1461
208.239	0.1442
208.608	0.1299
208.977	0.1498
209.346	0.1593
209.715	0.1465
210.083	0.1561
210.452	0.1631
210.82	0.1637
211.189	0.1645
211.557	0.1428
211.925	0.1943
212.294	0.1828
212.662	0.1858
213.03	0.183
213.398	0.1631
213.766	0.2007
214.133	0.205
214.501	0.2302
214.869	0.2103
215.236	0.2477
215.604	0.2423
215.971	0.2643
216.338	0.2745
216.705	0.3108
217.072	0.3202
217.439	0.3141
217.806	0.37
218.173	0.3846
218.54	0.4225
218.907	0.4617
219.273	0.4904
219.64	0.5191
220.006	0.5656
220.373	0.596
220.739	0.6518
221.105	0.6786
221.471	0.6948
221.837	0.7399
222.203	0.7701
222.569	0.8045
222.935	0.8344
223.3	0.8514
223.666	0.8928
224.031	0.9054
224.397	0.9273
224.762	0.9432
225.127	0.9685
225.493	0.9738
225.858	0.9826
226.223	0.9951
226.588	0.9999
226.952	1.003
227.317	1.0047
227.682	1.0095
228.046	0.9969
228.411	1.0062
228.775	0.9961
229.14	0.992
229.504	0.9929
229.868	0.9868
230.232	0.9827
230.596	0.9678
230.96	0.9611
231.324	0.9529
231.688	0.9426
232.052	0.9375
232.415	0.9291
232.779	0.921
233.142	0.9086
233.505	0.9033
233.869	0.8925
234.232	0.8831
234.595	0.8688
234.958	0.8616
235.321	0.8522
235.684	0.8394
236.047	0.8344
236.409	0.826
236.772	0.8175
237.134	0.8086
237.497	0.7981
237.859	0.7908
238.222	0.7826
238.584	0.7728
238.946	0.7668
239.308	0.7574
239.67	0.7525
240.032	0.7433
240.393	0.7363
240.755	0.7272
241.117	0.7216
241.478	0.716
241.84	0.7081
242.201	0.7017
242.562	0.6947
242.924	0.6915
243.285	0.6831
243.646	0.6794
244.007	0.6749
244.368	0.6694
244.728	0.6638
245.089	0.6606
245.45	0.6552
245.81	0.6527
246.171	0.6464
246.531	0.6409
246.891	0.6386
247.252	0.6364
247.612	0.6334
247.972	0.6264
248.332	0.6273
248.692	0.624
249.051	0.6204
249.411	0.6183
249.771	0.615
250.13	0.6134
250.49	0.6114
250.849	0.6081
251.208	0.6067
251.568	0.6038
251.927	0.6022
252.286	0.6012
252.645	0.5989
253.004	0.5973
253.363	0.5953
253.721	0.5947
254.08	0.5917
254.439	0.5905
254.797	0.5883
255.155	0.5862
255.514	0.5853
255.872	0.5858
256.23	0.5833
256.588	0.5812
256.946	0.5795
257.304	0.5787
257.662	0.5767
258.02	0.575
258.377	0.5725
258.735	0.5736
259.093	0.5721
259.45	0.5708
259.807	0.5679
260.165	0.5688
260.522	0.5676
260.879	0.5618
261.236	0.5628
261.593	0.561
261.95	0.5587
262.306	0.5576
262.663	0.5552
263.02	0.5543
263.376	0.5532
263.733	0.5498
264.089	0.5486
264.445	0.5458
264.802	0.5445
265.158	0.5438
265.514	0.5405
265.87	0.5379
266.226	0.5363
266.581	0.536
266.937	0.5321
267.293	0.5307
267.648	0.5294
268.004	0.5269
268.359	0.5242
268.714	0.5189
269.07	0.518
269.425	0.5159
269.78	0.5143
270.135	0.5101
270.49	0.5088
270.844	0.5065
271.199	0.5039
271.554	0.5007
271.908	0.4961
272.263	0.4941
272.617	0.4922
272.972	0.4883
273.326	0.4861
273.68	0.4815
274.034	0.479
274.388	0.4759
274.742	0.4741
275.096	0.4688
275.45	0.4679
275.803	0.4635
276.157	0.46
276.51	0.4561
276.864	0.4525
277.217	0.4486
277.571	0.4457
277.924	0.4418
278.277	0.4384
278.63	0.434
278.983	0.4301
279.336	0.4275
279.688	0.424
280.041	0.4204
280.394	0.4143
280.746	0.413
281.099	0.4068
281.451	0.404
281.803	0.4001
282.156	0.3975
282.508	0.393
282.86	0.3897
283.212	0.3849
283.564	0.3799
283.916	0.3776
284.267	0.3737
284.619	0.37
284.971	0.3661
285.322	0.3619
285.673	0.3593
286.025	0.3562
286.376	0.3502
286.727	0.3464
287.078	0.342
287.429	0.3396
287.78	0.3342
288.131	0.3313
288.482	0.3271
288.833	0.3239
289.183	0.3196
289.534	0.3163
289.884	0.3126
290.235	0.3083
290.585	0.3044
290.935	0.3015
291.285	0.297
291.635	0.2938
291.985	0.2894
292.335	0.2856
292.685	0.2821
293.035	0.279
293.384	0.2754
293.734	0.2708
294.083	0.2669
294.433	0.2639
294.782	0.26
295.131	0.2569
295.48	0.2538
295.829	0.2508
296.179	0.2458
296.527	0.2432
296.876	0.2398
297.225	0.2381
297.574	0.2336
297.922	0.2312
298.271	0.228
298.619	0.2238
298.968	0.2222
299.316	0.2182
299.664	0.2154
300.012	0.2131
300.36	0.2094
300.708	0.2074
301.056	0.2044
301.404	0.2023
301.752	0.1993
302.099	0.1973
302.447	0.1953
302.794	0.1924
303.142	0.1907
303.489	0.1882
303.836	0.1862
304.183	0.1842
304.531	0.1825
304.878	0.1807
305.224	0.178
305.571	0.1768
305.918	0.1754
306.265	0.1735
306.611	0.1725
306.958	0.1711
307.304	0.1695
307.651	0.1682
307.997	0.1675
308.343	0.166
308.689	0.1648
309.035	0.1639
309.381	0.1631
309.727	0.1616
310.073	0.162
310.419	0.1606
310.764	0.1599
311.11	0.1594
311.455	0.1588
311.801	0.1576
312.146	0.1573
312.491	0.1564
312.837	0.157
313.182	0.1569
313.527	0.1563
313.872	0.156
314.216	0.1556
314.561	0.1557
314.906	0.1559
315.251	0.1561
315.595	0.1555
315.94	0.156
316.284	0.1562
316.628	0.156
316.972	0.1558
317.317	0.1568
317.661	0.1568
318.005	0.1573
318.348	0.1575
318.692	0.158
319.036	0.1583
319.38	0.1589
319.723	0.1594
320.067	0.1595
320.41	0.1602
320.754	0.1615
321.097	0.1617
321.44	0.1625
321.783	0.1631
322.126	0.1644
322.469	0.1653
322.812	0.1664
323.155	0.167
323.498	0.168
323.84	0.1688
324.183	0.1704
324.525	0.1706
324.868	0.1718
325.21	0.173
325.552	0.1742
325.894	0.1752
326.236	0.1761
326.578	0.1775
326.92	0.1786
327.262	0.1792
327.604	0.1812
327.946	0.182
328.287	0.1832
328.629	0.1837
328.97	0.1857
329.312	0.1863
329.653	0.1878
329.994	0.1894
330.335	0.1908
330.676	0.1915
331.017	0.1923
331.358	0.1946
331.699	0.1954
332.04	0.197
332.38	0.1975
332.721	0.1998
333.061	0.1999
333.402	0.2022
333.742	0.2033
334.083	0.2048
334.423	0.2056
334.763	0.2058
335.103	0.208
335.443	0.2087
335.783	0.2101
336.123	0.2097
336.462	0.2116
336.802	0.2127
337.141	0.2134
337.481	0.2145
337.82	0.2151
338.16	0.2163
338.499	0.2177
338.838	0.2186
339.177	0.22
339.516	0.2205
339.855	0.2216
340.194	0.2224
340.533	0.2235
340.872	0.2243
341.21	0.2257
341.549	0.2259
341.887	0.2264
342.226	0.2267
342.564	0.227
342.902	0.2274
343.24	0.2282
343.578	0.2287
343.916	0.2286
344.254	0.2293
344.592	0.2289
344.93	0.2295
345.268	0.2298
345.605	0.2294
345.943	0.2305
346.28	0.2297
346.618	0.231
346.955	0.2302
347.292	0.2304
347.629	0.2308
347.966	0.231
348.303	0.2313
348.64	0.231
348.977	0.2305
349.314	0.23
349.65	0.2312
349.987	0.2309
350.324	0.2298
350.66	0.2304
350.996	0.2302
351.333	0.2291
351.669	0.2281
352.005	0.228
352.341	0.2273
352.677	0.2268
353.013	0.2252
353.349	0.2242
353.685	0.2233
354.02	0.2227
354.356	0.2222
354.691	0.2203
355.027	0.2197
355.362	0.2193
355.697	0.2183
356.033	0.2173
356.368	0.2166
356.703	0.2151
357.038	0.2144
357.373	0.2137
357.707	0.213
358.042	0.2118
358.377	0.2113
358.711	0.2094
359.046	0.2091
359.38	0.208
359.715	0.2068
360.049	0.2057
360.383	0.2042
360.717	0.2029
361.051	0.2021
361.385	0.2013
361.719	0.1988
362.053	0.1984
362.387	0.1954
362.72	0.1937
363.054	0.1922
363.387	0.1907
363.721	0.1894
364.054	0.1873
364.387	0.1854
364.721	0.1846
365.054	0.1826
365.387	0.1811
365.72	0.1791
366.053	0.1776
366.385	0.1763
366.718	0.1751
367.051	0.1732
367.383	0.1713
367.716	0.1707
368.048	0.1697
368.381	0.1683
368.713	0.1677
369.045	0.1657
369.377	0.1637
369.709	0.1635
370.041	0.1616
370.373	0.1608
370.705	0.159
371.037	0.1561
371.368	0.1557
371.7	0.1547
372.031	0.1537
372.363	0.1509
372.694	0.1491
373.025	0.1473
373.356	0.1458
373.688	0.1431
374.019	0.141
374.35	0.1395
374.68	0.1376
375.011	0.136
375.342	0.1338
375.673	0.1323
376.003	0.1304
376.334	0.1287
376.664	0.1275
376.995	0.1255
377.325	0.1244
377.655	0.1235
377.985	0.1214
378.315	0.1207
378.645	0.1188
378.975	0.118
379.305	0.1163
379.635	0.1158
379.964	0.1133
380.294	0.1123
380.623	0.1115
380.953	0.1104
381.282	0.1093
381.611	0.1076
381.941	0.1062
382.27	0.1051
382.599	0.1037
382.928	0.102
383.257	0.1007
383.585	0.0993
383.914	0.0982
384.243	0.0968
384.571	0.0949
384.9	0.0936
385.228	0.0915
385.557	0.0905
385.885	0.0894
386.213	0.088
386.541	0.0862
386.869	0.0848
387.197	0.0829
387.525	0.0814
387.853	0.0802
388.181	0.0789
388.508	0.0783
388.836	0.0769
389.164	0.0756
389.491	0.0749
389.818	0.0736
390.146	0.0725
390.473	0.0706
390.8	0.0699
391.127	0.0682
391.454	0.0686
391.781	0.0675
392.108	0.0662
392.435	0.0647
392.761	0.0639
393.088	0.0637
393.415	0.0621
393.741	0.0625
394.067	0.0616
394.394	0.0614
394.72	0.0601
395.046	0.059
395.372	0.0583
395.698	0.0572
396.024	0.0563
396.35	0.0557
396.676	0.0552
397.001	0.0546
397.327	0.0532
397.653	0.0524
397.978	0.0514
398.303	0.0505
398.629	0.0497
398.954	0.0498
399.279	0.0489
399.604	0.0485
399.929	0.0476
400.254	0.0475
400.579	0.0469
400.904	0.0455
401.229	0.0452
401.553	0.0444
401.878	0.0444
402.202	0.0437
402.527	0.0432
402.851	0.044
403.175	0.0422
403.5	0.0422
403.824	0.0424
404.148	0.0414
404.472	0.0414
404.796	0.0404
405.119	0.0407
405.443	0.04
405.767	0.0397
406.09	0.0394
406.414	0.0398
406.737	0.0392
407.061	0.0393
407.384	0.0396
407.707	0.0385
408.03	0.0391
408.353	0.0388
408.676	0.0383
408.999	0.0373
409.322	0.0386
409.645	0.0382
409.968	0.0375
410.29	0.0375
410.613	0.0378
410.935	0.0375
411.258	0.0376
411.58	0.0374
411.902	0.0382
412.224	0.0376
412.546	0.0372
412.868	0.0372
413.19	0.0373
413.512	0.0376
413.834	0.037
414.156	0.0379
414.477	0.0372
414.799	0.0378
415.121	0.0376
415.442	0.0375
415.763	0.0376
416.085	0.0373
416.406	0.0376
416.727	0.0375
417.048	0.0371
417.369	0.0375
417.69	0.0372
418.011	0.0374
418.331	0.0378
418.652	0.0374
418.973	0.0377
419.293	0.0375
419.614	0.0384
419.934	0.0367
420.254	0.038
420.574	0.0376
420.895	0.0374
421.215	0.037
421.535	0.0368
421.855	0.0375
422.174	0.0374
422.494	0.0376
422.814	0.0385
423.134	0.0375
423.453	0.0377
423.773	0.0383
424.092	0.0374
424.411	0.038
424.731	0.0378
425.05	0.0379
425.369	0.0379
425.688	0.0387
426.007	0.0387
426.326	0.0386
426.644	0.0392
426.963	0.0387
427.282	0.0388
427.6	0.0393
427.919	0.039
428.237	0.0395
428.556	0.0396
428.874	0.0393
429.192	0.039
429.51	0.0386
429.828	0.0392
430.146	0.0394
430.464	0.0393
430.782	0.0391
431.1	0.0393
431.418	0.0393
431.735	0.0391
432.053	0.04
432.37	0.0395
432.688	0.0395
433.005	0.0396
433.322	0.0393
433.639	0.0401
433.957	0.04
434.274	0.0404
434.591	0.0396
434.907	0.0404
435.224	0.0403
435.541	0.0399
435.858	0.0411
436.174	0.0408
436.491	0.0399
436.807	0.0402
437.124	0.0394
437.44	0.0392
437.756	0.0396
438.072	0.0393
438.388	0.0401
438.704	0.0401
439.02	0.0397
439.336	0.0397
439.652	0.0395
439.968	0.0402
440.283	0.0393
440.599	0.0404
440.914	0.0399
441.23	0.0397
441.545	0.04
441.86	0.0395
442.175	0.0395
442.491	0.0395
442.806	0.0394
443.121	0.0391
443.435	0.0396
443.75	0.0394
444.065	0.0391
444.38	0.0403
444.694	0.0399
445.009	0.0394
445.323	0.0394
445.638	0.0394
445.952	0.0392
446.266	0.0395
446.58	0.0396
446.894	0.0398
447.208	0.0401
447.522	0.0394
447.836	0.0383
448.15	0.0388
448.464	0.0382
448.777	0.0381
449.091	0.0378
449.404	0.0387
449.718	0.0388
450.031	0.0382
450.345	0.0384
450.658	0.0382
450.971	0.0385
451.284	0.0382
451.597	0.0386
451.91	0.0392
452.223	0.0377
452.535	0.0385
452.848	0.0384
453.161	0.0374
453.473	0.0378
453.786	0.0384
454.098	0.0373
454.411	0.0368
454.723	0.0369
455.035	0.0373
455.347	0.0374
455.659	0.0376
455.971	0.0373
456.283	0.0376
456.595	0.037
456.907	0.0368
457.218	0.0371
457.53	0.037
457.841	0.036
458.153	0.0357
458.464	0.0355
458.776	0.0346
459.087	0.0351
459.398	0.0353
459.709	0.0352
460.02	0.0346
460.331	0.0344
460.642	0.0344
460.953	0.0338
461.263	0.0349
461.574	0.0341
461.885	0.0342
462.195	0.0341
462.506	0.0336
462.816	0.0336
463.126	0.0334
463.437	0.034
463.747	0.0322
464.057	0.0331
464.367	0.033
464.677	0.0324
464.987	0.0326
465.296	0.0327
465.606	0.0314
465.916	0.0318
466.225	0.0319
466.535	0.031
466.844	0.0309
467.154	0.0307
467.463	0.0311
467.772	0.0309
468.081	0.0306
468.39	0.0306
468.699	0.0303
469.008	0.0307
469.317	0.0304
469.626	0.0296
469.935	0.0294
470.243	0.0299
470.552	0.0299
470.86	0.0299
471.169	0.0297
471.477	0.0294
471.785	0.0292
472.093	0.0295
472.402	0.0286
472.71	0.0284
473.018	0.0284
473.326	0.0276
473.633	0.0279
473.941	0.0274
474.249	0.0269
474.556	0.027
474.864	0.0265
475.171	0.0264
475.479	0.0266
475.786	0.0273
476.094	0.0269
476.401	0.0265
476.708	0.0259
477.015	0.0264
477.322	0.0262
477.629	0.0259
477.936	0.0252
478.242	0.0255
478.549	0.0248
478.856	0.0246
479.162	0.024
479.469	0.0245
479.775	0.0254
480.081	0.0237
480.388	0.0243
480.694	0.0231
481	0.0235
481.306	0.0235
481.612	0.0231
481.918	0.0221
482.224	0.0233
482.53	0.0223
482.835	0.0224
483.141	0.0211
483.446	0.0212
483.752	0.022
484.057	0.0203
484.363	0.0206
484.668	0.0205
484.973	0.0199
485.278	0.02
485.583	0.0197
485.888	0.0194
486.193	0.0199
486.498	0.0193
486.803	0.02
487.107	0.0199
487.412	0.0193
487.717	0.0187
488.021	0.019
488.325	0.0185
488.63	0.0178
488.934	0.0186
489.238	0.0186
489.542	0.0187
489.846	0.0174
490.15	0.0186
490.454	0.0179
490.758	0.0178
491.062	0.0171
491.366	0.0175
491.669	0.017
491.973	0.0171
492.276	0.0163
492.58	0.0147
492.883	0.0166
493.186	0.0157
493.489	0.0159
493.792	0.0154
494.096	0.0159
494.399	0.0167
494.701	0.0156
495.004	0.0158
495.307	0.0152
495.61	0.0142
495.912	0.0138
496.215	0.014
496.517	0.014
496.82	0.0137
497.122	0.0138
497.424	0.0134
497.727	0.0137
498.029	0.0144
498.331	0.014
498.633	0.0137
498.935	0.0133
499.237	0.013
499.538	0.0127
499.84	0.0132
500.142	0.0136
500.443	0.0126
500.745	0.0121
501.046	0.0123
501.348	0.0119
501.649	0.0127
501.95	0.0111
502.251	0.0118
502.552	0.0103
502.853	0.0108
503.154	0.0107
503.455	0.0103
503.756	0.011
504.057	0.012
504.357	0.0111
504.658	0.0109
504.958	0.0101
505.259	0.0112
505.559	0.0114
505.859	0.0108
506.16	0.0105
506.46	0.0101
506.76	0.0112
507.06	0.0089
507.36	0.0095
507.66	0.01
507.96	0.0098
508.259	0.0098
508.559	0.0087
508.859	0.0094
509.158	0.0093
509.457	0.0079
509.757	0.0105
510.056	0.009
510.355	0.0086
510.655	0.0073
510.954	0.0087
511.253	0.0086
511.552	0.0084
511.851	0.0073
512.149	0.0072
512.448	0.0081
512.747	0.0079
513.045	0.0071
513.344	0.0086
513.642	0.0081
513.941	0.0075
514.239	0.0075
514.537	0.0074
514.836	0.0081
515.134	0.0069
515.432	0.0078
515.73	0.0076
516.028	0.0063
516.326	0.0078
516.623	0.0072
516.921	0.0067
517.219	0.0071
517.516	0.0071
517.814	0.0073
518.111	0.007
518.409	0.0083
518.706	0.0074
519.003	0.0065
519.3	0.0066
519.597	0.0065
519.894	0.0067
520.191	0.0072
520.488	0.0072
520.785	0.0057
521.082	0.0061
521.378	0.0067
521.675	0.005
521.971	0.0059
522.268	0.0062
522.564	0.0068
522.861	0.0064
523.157	0.0047
523.453	0.0054
523.749	0.0056
524.045	0.0061
524.341	0.0064
524.637	0.0059
524.933	0.0048
525.229	0.0055
525.524	0.0053
525.82	0.0055
526.115	0.0044
526.411	0.0046
526.706	0.0054
527.002	0.0058
527.297	0.0029
527.592	0.0068
527.887	0.0059
528.182	0.0056
528.477	0.0059
528.772	0.0047
529.067	0.0063
529.362	0.005
529.657	0.0048
529.951	0.0047
530.246	0.005
530.54	0.0038
530.835	0.0043
531.129	0.0038
531.423	0.0046
531.718	0.0035
532.012	0.0036
532.306	0.0043
532.6	0.0041
532.894	0.0033
533.188	0.0048
533.482	0.0029
533.775	0.0045
534.069	0.0038
534.363	0.0031
534.656	0.0029
534.95	0.0022
535.243	0.0039
535.536	0.0036
535.83	0.0042
536.123	0.003
536.416	0.0038
536.709	0.0035
537.002	0.0046
537.295	0.0031
537.588	0.0044
537.881	0.0029
538.173	0.0035
538.466	0.0032
538.759	0.0029
539.051	0.0021
539.344	0.0027
539.636	0.0029
539.928	0.002
540.22	0.004
540.513	0.0038
540.805	0.0035
541.097	0.0036
541.389	0.003
541.681	0.002
541.972	0.0032
542.264	0.0034
542.556	0.0029
542.847	0.0032
543.139	0.004
543.431	0.0039
543.722	0.0047
544.013	0.0044
544.305	0.0044
544.596	0.0049
544.887	0.0034
545.178	0.0034
545.469	0.0037
545.76	0.0033
546.051	0.0039
546.342	0.0039
546.632	0.0024
546.923	0.003
547.214	0.003
547.504	0.0032
547.795	0.0038
548.085	0.0037
548.375	0.0026
548.666	0.003
548.956	0.0038
549.246	0.0036
549.536	0.0025
549.826	0.0035
550.116	0.0035
550.406	0.0037
550.695	0.0048
550.985	0.0043
551.275	0.0039
551.564	0.0044
551.854	0.0045
552.143	0.0032
552.433	0.0044
552.722	0.0041
553.011	0.0034
553.3	0.004
553.589	0.0035
553.879	0.0032
554.167	0.0042
554.456	0.004
554.745	0.0035
555.034	0.0028
555.323	0.002
555.611	0.003
555.9	0.0038
556.188	0.0038
556.477	0.0034
556.765	0.0033
557.053	0.0027
557.342	0.0033
557.63	0.004
557.918	0.0036
558.206	0.0035
558.494	0.0037
558.782	0.0032
559.069	0.0035
559.357	0.0039
559.645	0.0032
559.932	0.0038
560.22	0.0045
560.507	0.0042
560.795	0.0027
561.082	0.0016
561.37	0.0029
561.657	0.0029
561.944	0.004
562.231	0.0038
562.518	0.0024
562.805	0.004
563.092	0.0043
563.379	0.003
563.665	0.0031
563.952	0.0034
564.239	0.0039
564.525	0.0046
564.811	0.0039
565.098	0.0038
565.384	0.0046
565.67	0.0042
565.957	0.0041
566.243	0.0027
566.529	0.0037
566.815	0.0049
567.101	0.0031
567.387	0.0035
567.672	0.0036
567.958	0.0037
568.244	0.0037
568.529	0.0034
568.815	0.0031
569.1	0.0035
569.386	0.0032
569.671	0.0042
569.956	0.0043
570.242	0.0028
570.527	0.0037
570.812	0.0037
571.097	0.0041
571.382	0.0036
571.666	0.0033
571.951	0.0036
572.236	0.0036
572.521	0.0027
572.805	0.0031
573.09	0.0035
573.374	0.0027
573.659	0.0024
573.943	0.0036
574.227	0.0032
574.511	0.0039
574.795	0.0032
575.079	0.003
575.363	0.0034
575.647	0.0038
575.931	0.0037
576.215	0.0029
576.499	0.0024
576.782	0.0033
577.066	0.0027
577.349	0.0027
577.633	0.0034
577.916	0.0037
578.2	0.004
578.483	0.0035
578.766	0.003
579.049	0.0035
579.332	0.0034
579.615	0.0031
579.898	0.0034
580.181	0.0033
580.464	0.0037
580.746	0.0017
581.029	0.0024
581.312	0.0022
581.594	0.0028
581.877	0.0031
582.159	0.0036
582.441	0.0034
582.724	0.0029
583.006	0.003
583.288	0.0024
583.57	0.0021
583.852	0.0016
584.134	0.0027
584.416	0.0035
584.697	0.0028
584.979	0.0033
585.261	0.0031
585.542	0.0028
585.824	0.003
586.105	0.0035
586.387	0.0027
586.668	0.003
586.949	0.0027
587.231	0.0023
587.512	0.0021
587.793	0.0028
588.074	0.0031
588.355	0.0031
588.636	0.0031
588.916	0.0034
589.197	0.0037
589.478	0.0038
589.758	0.0036
590.039	0.0033
590.319	0.0031
590.6	0.0033
590.88	0.0028
591.16	0.0033
591.441	0.0028
591.721	0.0031
592.001	0.0023
592.281	0.003
592.561	0.0034
592.841	0.0036
593.12	0.0027
593.4	0.0025
593.68	0.0028
593.959	0.0028
594.239	0.0037
594.518	0.0028
594.798	0.0026
595.077	0.0032
595.356	0.0031
595.636	0.0033
595.915	0.0039
596.194	0.0029
596.473	0.0035
596.752	0.004
597.031	0.0017
597.31	0.002
597.588	0.0022
597.867	0.002
598.146	0.0026
598.424	0.0029
598.703	0.0027
598.981	0.0031
599.259	0.0035
599.538	0.0033
599.816	0.003
600.094	0.0027
600.372	0.0031
600.65	0.004
600.928	0.0033
601.206	0.003
601.484	0.0038
601.762	0.0039
602.04	0.0036
602.317	0.0034
602.595	0.0027
602.872	0.0031
603.15	0.0028
603.427	0.0026
603.704	0.0016
603.982	0.0024
604.259	0.0019
604.536	0.0025
604.813	0.0019
605.09	0.0025
605.367	0.0024
605.644	0.0023
605.921	0.003
606.197	0.0023
606.474	0.0023
606.751	0.0023
607.027	0.0018
607.304	0.0025
607.58	0.0022
607.856	0.0021
608.133	0.0024
608.409	0.0032
608.685	0.0029
608.961	0.0028
609.237	0.0032
609.513	0.0027
609.789	0.0034
610.065	0.0013
610.341	0.0028
610.616	0.0028
610.892	0.0035
611.167	0.0046
611.443	0.0033
611.718	0.0029
611.994	0.0036
612.269	0.0028
612.544	0.0027
612.819	0.0018
613.095	0.0034
613.37	0.0024
613.645	0.0021
613.919	0.0023
614.194	0.002
614.469	0.0018
614.744	0.0016
615.019	0.0015
615.293	0.0008
615.568	0.0007
615.842	0.0013
616.116	0.0015
616.391	0.0008
616.665	0.0025
616.939	0.0011
617.213	0.0025
617.488	0.0013
617.762	0.0021
618.035	0.0018
618.309	0.0017
618.583	0.0024
618.857	0.0015
619.131	0.0019
619.404	0.0022
619.678	0.0018
619.951	0.0011
620.225	0.0011
620.498	0.002
620.771	0.0013
621.045	0.0037
621.318	0.0032
621.591	0.0023
621.864	0.0016
622.137	0.001
622.41	0.002
622.683	0.0012
622.956	0.0018
623.228	0.0025
623.501	0.0032
623.774	0.0031
624.046	0.0023
624.319	0.0023
624.591	0.0012
624.863	0.0025
625.136	0.0017
625.408	0.0014
625.68	0.0023
625.952	0.0027
626.224	0.0022
626.496	0.0018
626.768	0.0014
627.04	0.0012
627.311	0.0019
627.583	0.0016
627.855	0.0017
628.126	0.0023
628.398	0.0028
628.669	0.0025
628.941	0.0019
629.212	0.0007
629.483	0.0011
629.755	0.0011
630.026	0.0005
630.297	-0.0011
630.568	0.0012
630.839	-0.0004
631.11	0.0003
631.38	0.0002
631.651	0.0005
631.922	-0.0003
632.192	-0.0002
632.463	0.0005
632.733	0.0009
633.004	0.0014
633.274	0.0006
633.545	0.0018
633.815	0.0039
634.085	0.003
634.355	0.0024
634.625	0.0033
634.895	0.002
635.165	0.0011
635.435	0.0018
635.705	0.0014
635.974	0.0019
636.244	0.0023
636.514	0.0014
636.783	0.0019
637.053	0.0021
637.322	0.0014
637.591	0.0016
637.861	0.0023
638.13	0.0028
638.399	0.0023
638.668	0.0031
638.937	0.0018
639.206	0.0025
639.475	0.0024
639.744	0.0017
640.013	0.0027
640.281	0.0035
640.55	0.0032
640.819	0.0032
641.087	0.0037
641.356	0.0033
641.624	0.0024
641.892	0.0025
642.161	0.003
642.429	0.0036
642.697	0.0026
642.965	0.0042
643.233	0.0036
643.501	0.0017
643.769	0.0016
644.037	0.0018
644.305	0.0012
644.572	-0.0001
644.84	-0.0002
645.108	0.0008
645.375	0.0001
645.643	0.0008
645.91	0.0011
646.177	0.0024
646.445	0.0034
646.712	0.0048
646.979	0.0045
647.246	0.0037
647.513	0.0033
647.78	0.0042
648.047	0.0051
648.314	0.0028
648.58	0.0029
648.847	0.002
649.114	0.0011
649.38	0.001
649.647	0.0014
649.913	0.0016
650.18	0.0017
650.446	0.0013
650.712	0.0023
650.978	0.0014
651.245	0.002
651.511	0.0024
651.777	0.0028
652.043	0.0026
652.309	0.0027
652.574	0.0036
652.84	0.0025
653.106	0.0025
653.371	0.0014
653.637	0.0029
653.903	0.0033
654.168	0.0036
654.433	0.004
654.699	0.0041
654.964	0.004
655.229	0.0042
655.494	0.0032
655.759	0.001
656.024	0.0006
656.289	-0
656.554	-0.0008
656.819	0.0005
657.084	0.0018
657.349	0.0035
657.613	0.0042
657.878	0.0036
658.142	0.0038
658.407	0.0027
658.671	0.0026
658.936	0.0025
659.2	0.0018
659.464	0.0022
659.728	0.0013
659.992	0.0025
660.256	0.0013
660.52	0.0014
660.784	0.0006
661.048	0.0004
661.312	-0.0012
661.575	0.0001
661.839	-0.0011
662.103	-0.0015
662.366	-0.0004
662.63	0.0003
662.893	0.0007
663.156	0.0002
663.42	-0.0002
663.683	0.0016
663.946	0.0016
664.209	0.0037
664.472	0.0026
664.735	0.0027
664.998	0.0017
665.261	0.0018
665.524	0.0014
665.786	0.0013
666.049	0.0021
666.312	0.0012
666.574	0.0028
666.837	0.0014
667.099	0.0008
667.361	0.0009
667.624	0.0002
667.886	0.0012
668.148	0.0013
668.41	0.0032
668.672	0.0013
668.934	0.0013
669.196	0.0018
669.458	0.0021
669.72	0.0026
669.982	0.0022
670.243	0.0038
670.505	0.0024
670.766	0.003
671.028	0.003
671.289	0.0024
671.551	0.0011
671.812	0.0004
672.073	0.001
672.334	0.0015
672.596	0.0017
672.857	0.001
673.118	0.0006
673.379	0.0003
673.639	-0.0003
673.9	-0.0003
674.161	-0.0018
674.422	-0.0031
674.682	-0.0023
674.943	-0.0026
675.203	-0.0008
675.464	0.0001
675.724	0.0005
675.985	0.0017
676.245	0.001
676.505	0.0019
676.765	0.0016
677.025	0.0019
677.285	0.002
677.545	0.0031
677.805	0.0032
678.065	0.0025
678.325	0.0036
678.585	0.0025
678.844	0.0022
679.104	0.0019
679.363	0.0027
679.623	0.0033
679.882	0.0025
680.142	0.0032
680.401	0.0039
680.66	0.0036
680.919	0.0034
681.178	0.0041
681.437	0.004
681.696	0.0041
681.955	0.0047
682.214	0.0055
682.473	0.0049
682.732	0.0039
682.99	0.003
683.249	0.0037
683.508	0.0032
683.766	0.0035
684.024	0.0037
684.283	0.0042
684.541	0.0039
684.799	0.0043
685.058	0.0036
685.316	0.0022
685.574	0.0039
685.832	0.0036
686.09	0.0036
686.348	0.0045
686.606	0.0046
686.863	0.004
687.121	0.0047
687.379	0.0037
687.636	0.0041
687.894	0.0046
688.151	0.0048
688.409	0.0045
688.666	0.0039
688.923	0.0044
689.181	0.0033
689.438	0.0025
689.695	0.0022
689.952	0.0009
690.209	0.0018
690.466	0.0009
690.723	0.003
690.979	0.0032
691.236	0.0024
691.493	0.0022
691.75	0.0035
692.006	0.0031
692.263	0.0032
692.519	0.0029
692.775	0.0021
693.032	0.0011
693.288	0.0021
693.544	0.0024
693.8	0.0025
694.056	0.0023
694.313	0.0022
694.568	0.003
694.824	0.0024
695.08	0.0033
695.336	0.0037
695.592	0.0026
695.847	0.0031
696.103	0.0026
696.359	0.0034
696.614	0.0027
696.869	0.0018
697.125	0.0003
697.38	0.0006
697.635	0.0001
697.891	0.0001
698.146	-0.0002
698.401	0.0028
698.656	0.0016
698.911	0.0028
699.166	0.002
699.42	0.0013
699.675	0.0022
699.93	0.0009
700.185	0.0021
700.439	0.0034
700.694	0.0028
700.948	0.0029
701.203	0.0031
701.457	0.0027
701.711	0.0023
701.965	0.0005
702.22	0
702.474	0.0008
702.728	-0.001
702.982	-0.0007
703.236	-0.0002
703.49	0.0006
703.743	0.0001
703.997	0.0004
704.251	0.0009
704.504	0.002
704.758	0.0009
705.012	0.0012
705.265	0.0014
705.518	0.001
705.772	0.0002
706.025	-0.0005
706.278	-0
706.531	-0.0002
706.785	-0.0006
707.038	0.0003
707.291	0.0002
707.543	0.0006
707.796	0
708.049	0.0007
708.302	0.0001
708.555	-0.0003
708.807	0.0008
709.06	0.0007
709.312	-0.0016
709.565	-0.0007
709.817	-0.0005
710.069	-0.001
710.322	-0
710.574	0.0005
710.826	0.0001
711.078	0.0005
711.33	0.0006
711.582	0.0001
711.834	0.0022
712.086	0.0021
712.338	0.0026
712.59	0.0026
712.841	0.0028
713.093	0.0017
713.344	0.0025
713.596	0.0023
713.847	0.0029
714.099	0.0024
714.35	0.0031
714.601	0.0033
714.853	0.0041
715.104	0.0037
715.355	0.0022
715.606	0.0028
715.857	0.0028
716.108	0.0031
716.359	0.0027
716.609	0.0031
716.86	0.003
717.111	0.0015
717.361	0.0011
717.612	0.0007
717.863	0.0013
718.113	0.0014
718.363	0.001
718.614	0.0015
718.864	0.0014
719.114	0.0012
719.364	0.0008
719.614	-0.0003
719.865	-0.0011
720.114	0.0002
720.364	0.0007
720.614	0.0021
720.864	0.0024
721.114	0.0026
721.364	0.003
721.613	0.0035
721.863	0.0039
722.112	0.0035
722.362	0.0041
722.611	0.0033
722.86	0.0026
723.11	0.0014
723.359	0.0013
723.608	0.0021
723.857	0.0032
724.106	0.0048
724.355	0.0053
724.604	0.0054
724.853	0.0042
725.102	0.0038
725.351	0.0024
725.599	0.0024
725.848	0.0029
726.097	0.002
726.345	0.0015
726.594	0.002
726.842	0.0022
727.09	0.0017
727.339	0.0019
727.587	0.0013
727.835	-0.0001
728.083	-0.0001
728.331	-0.0001
728.579	-0.0008
728.827	0.0003
729.075	0.0005
729.323	0.0019
729.571	0.0021
729.818	0.0027
730.066	0.0028
730.314	0.0027
730.561	0.0012
730.809	0.0007
731.056	-0.0002
731.303	-0.0003
731.551	0.0009
731.798	0.0009
732.045	0.001
732.292	0.001
732.539	0.0021
732.786	0.0017
733.033	0.0022
733.28	0.0018
733.527	0.0038
733.774	0.0027
734.021	0.0037
734.267	0.0036
734.514	0.0035
734.76	0.0031
735.007	0.0047
735.253	0.0052
735.5	0.005
735.746	0.0051
735.992	0.0044
736.238	0.0044
736.485	0.0056
736.731	0.0055
736.977	0.0052
737.223	0.004
737.469	0.0052
737.715	0.0054
737.96	0.0072
738.206	0.0063
738.452	0.0086
738.697	0.0084
738.943	0.0077
739.189	0.0058
739.434	0.0035
739.679	0.0026
739.925	0.0032
740.17	0.0017
740.415	0.0022
740.66	0.0031
740.906	0.004
741.151	0.004
741.396	0.0038
741.641	0.0061
741.886	0.0063
742.13	0.0064
742.375	0.0063
742.62	0.0079
742.865	0.0051
743.109	0.005
743.354	0.0056
743.598	0.006
743.843	0.0054
744.087	0.0056
744.331	0.0057
744.576	0.0054
744.82	0.0056
745.064	0.0046
745.308	0.0044
745.552	0.0039
745.796	0.0044
746.04	0.0032
746.284	0.0024
746.528	0.0013
746.771	0.003
747.015	0.0018
747.259	0.0017
747.502	0.0017
747.746	0.0023
747.989	0.0037
748.233	0.0042
748.476	0.0045
748.719	0.0055
748.963	0.0057
749.206	0.0044
749.449	0.0056
749.692	0.004
749.935	0.0058
750.178	0.0048
750.421	0.0044
750.664	0.0048
750.906	0.0048
751.149	0.0036
751.392	0.0024
751.635	0.0013
751.877	0.0002
752.12	0.0004
752.362	0.0015
752.604	0.0008
752.847	0.0018
753.089	0.002
753.331	0.0018
753.573	0.0025
753.816	0.0034
754.058	0.0032
754.3	0.0042
754.542	0.0047
754.783	0.0035
755.025	0.0036
755.267	0.0024
755.509	0.0018
755.75	0.0019
755.992	0.003
756.234	0.0018
756.475	0.0008
756.716	0.0006
756.958	0.0006
757.199	0.0002
757.44	0.0021
757.682	0.0016
757.923	0.0002
758.164	-0.0001
758.405	-0.0003
758.646	0.0004
758.887	0
759.128	0.001
759.369	0.0001
759.609	-0.0002
759.85	-0.0004
760.091	0.0008
760.331	0.0002
760.572	-0.0005
760.812	-0.0014
761.053	-0.0008
761.293	0.0005
761.533	0.0008
761.774	0.0014
762.014	0.0015
762.254	0.0016
762.494	0.0014
762.734	0.001
762.974	0.0009
763.214	-0.0002
763.454	-0
763.694	-0.0003
763.933	-0.0008
764.173	0.0005
764.413	0.0001
764.652	0.0012
764.892	0.0008
765.131	0.0013
765.371	0.0013
765.61	0.0017
765.849	0.0014
766.089	0.0024
766.328	0.0039
766.567	0.0033
766.806	0.0039
767.045	0.0033
767.284	0.0034
767.523	0.0044
767.762	0.0047
768.001	0.0039
768.239	0.0031
768.478	0.0028
768.717	0.0025
768.955	0.0031
769.194	0.0016
769.432	0.0021
769.671	0.0031
769.909	0.0025
770.148	0.0037
770.386	0.003
770.624	0.003
770.862	0.0028
771.1	0.0029
771.338	0.0027
771.576	0.0031
771.814	0.0031
772.052	0.0025
772.29	0.004
772.528	0.0038
772.765	0.0034
773.003	0.004
773.24	0.0034
773.478	0.0031
773.716	0.0042
773.953	0.0046
774.19	0.0048
774.428	0.0044
774.665	0.0037
774.902	0.0047
775.139	0.003
775.376	0.0039
775.613	0.0032
775.85	0.0032
776.087	0.0033
776.324	0.0035
776.561	0.0042
776.798	0.0056
777.034	0.0069
777.271	0.0074
777.508	0.0077
777.744	0.0076
777.981	0.0064
778.217	0.0069
778.454	0.0059
778.69	0.0055
778.926	0.0059
779.162	0.0054
779.399	0.005
779.635	0.0045
779.871	0.0038
780.107	0.0051
780.343	0.0045
780.579	0.0058
780.814	0.0051
781.05	0.005
781.286	0.0046
781.522	0.0047
781.757	0.0065
781.993	0.006
782.228	0.0063
782.464	0.0065
782.699	0.0051
782.934	0.0043
783.17	0.0053
783.405	0.0047
783.64	0.0034
783.875	0.0042
784.11	0.0042
784.345	0.0042
784.58	0.0046
784.815	0.0042
785.05	0.0049
785.285	0.0033
785.52	0.0029
785.754	0.0033
785.989	0.0027
786.223	0.0021
786.458	0.0023
786.692	0.0023
786.927	0.0022
787.161	0.0025
787.396	0.0018
787.63	0.0015
787.864	0.0009
788.098	0.0008
788.332	0.002
788.566	0.0007
788.8	0.0003
789.034	0.0006
789.268	0.0008
789.502	0.0014
789.736	0.0021
789.969	0.0025
790.203	0.0027
790.437	0.002
790.67	0.0019
790.904	0.0022
791.137	0.0007
791.37	0.0009
791.604	0.0005
791.837	0.0003
792.07	0.0008
792.303	0.0009
792.537	0.0007
792.77	0.0005
793.003	0.0006
793.236	-0.0003
793.469	-0.0008
793.701	0.0004
793.934	0.0008
794.167	0.0002
794.4	0.0002
794.632	0.0006
794.865	0.0005
795.097	0.0008
795.33	0.0017
795.562	0.0013
795.795	0.0017
796.027	0.0017
796.259	0.0012
796.491	0.0009
796.724	0.0005
796.956	0.0012
797.188	0.0017
797.42	0.0015
797.652	0.0018
797.883	0.0008
798.115	0.0006
798.347	-0.0001
798.579	-0.001
798.81	-0.0021
799.042	-0.0016
799.274	-0.0021
799.505	-0.0019
799.737	-0.002
799.968	-0.0022
800.199	-0.0008
800.431	-0.0015
800.662	-0.0007
800.893	0.0007
801.124	0.0003
801.355	0.0005
801.586	0.0003
801.817	0.0007
802.048	0.0005
802.279	-0.0002
802.51	0.0004
802.741	-0.0004
802.971	-0.0005
803.202	-0.0017
803.433	-0.0014
803.663	-0.0011
803.894	-0.0002
804.124	0.0003
804.354	0
804.585	-0.0003
804.815	-0.0003
805.045	-0.0009
805.275	-0.0004
805.506	-0.0492
805.736	0.1232
805.966	0.025
806.196	0.1582
