Data from 03 0.2 mM BQDS 0.4 mM K2Cr2O7 1 M H2SO4 5 min_Absorbance_17-07-42-869.txt Node
Date: Wed Dec 08 17:07:42 EST 2021
User: kwabilab-user
Spectrometer: HDX00518
Trigger mode: 0
Integration Time (sec): 5.000000E-2
Scans to average: 50
Nonlinearity correction enabled: false
Boxcar width: 0
Storing dark spectrum: false
XAxis mode: Wavelengths
Number of Pixels in Spectrum: 2068
>>>>>Begin Spectral Data<<<<<
195.27	0.2843
195.642	0.0197
196.014	0.0583
196.386	-0.0168
196.758	0.0749
197.129	0.0333
197.501	0.0532
197.872	0.1051
198.244	0.1138
198.615	0.1188
198.986	0.1094
199.357	0.1056
199.728	0.1289
200.099	0.1051
200.47	0.1128
200.841	0.1145
201.212	0.1063
201.582	0.1244
201.953	0.124
202.323	0.1106
202.694	0.1035
203.064	0.1267
203.434	0.1108
203.804	0.1477
204.174	0.1252
204.544	0.1152
204.914	0.1162
205.284	0.1358
205.653	0.1472
206.023	0.1255
206.393	0.1364
206.762	0.1348
207.131	0.1317
207.501	0.1296
207.87	0.1468
208.239	0.1325
208.608	0.1238
208.977	0.1455
209.346	0.1613
209.715	0.135
210.083	0.1699
210.452	0.1445
210.82	0.1421
211.189	0.1682
211.557	0.1479
211.925	0.1735
212.294	0.1869
212.662	0.1812
213.03	0.1729
213.398	0.1627
213.766	0.1955
214.133	0.2038
214.501	0.2254
214.869	0.2205
215.236	0.2466
215.604	0.242
215.971	0.2534
216.338	0.2776
216.705	0.2835
217.072	0.2977
217.439	0.3301
217.806	0.3805
218.173	0.3818
218.54	0.4043
218.907	0.4565
219.273	0.4986
219.64	0.5129
220.006	0.5599
220.373	0.5875
220.739	0.6329
221.105	0.6642
221.471	0.6962
221.837	0.7406
222.203	0.7883
222.569	0.8172
222.935	0.8408
223.3	0.8633
223.666	0.8937
224.031	0.9293
224.397	0.9433
224.762	0.9552
225.127	0.9706
225.493	0.9858
225.858	0.9936
226.223	1.0046
226.588	1.0144
226.952	1.0226
227.317	1.0207
227.682	1.0124
228.046	1.0198
228.411	1.0199
228.775	1.0183
229.14	1.0165
229.504	1.0064
229.868	1.0077
230.232	0.9989
230.596	0.9894
230.96	0.9868
231.324	0.9785
231.688	0.9632
232.052	0.9583
232.415	0.9454
232.779	0.9419
233.142	0.9356
233.505	0.9179
233.869	0.9173
234.232	0.9026
234.595	0.8929
234.958	0.8877
235.321	0.8757
235.684	0.8646
236.047	0.857
236.409	0.8501
236.772	0.8388
237.134	0.8305
237.497	0.8201
237.859	0.8139
238.222	0.8054
238.584	0.7921
238.946	0.7864
239.308	0.7785
239.67	0.7704
240.032	0.7632
240.393	0.7532
240.755	0.7459
241.117	0.7385
241.478	0.7362
241.84	0.7259
242.201	0.718
242.562	0.7097
242.924	0.7057
243.285	0.6988
243.646	0.6924
244.007	0.6893
244.368	0.6806
244.728	0.6758
245.089	0.6716
245.45	0.667
245.81	0.6626
246.171	0.6579
246.531	0.6513
246.891	0.6485
247.252	0.6432
247.612	0.6392
247.972	0.6366
248.332	0.6329
248.692	0.6317
249.051	0.6259
249.411	0.6229
249.771	0.6178
250.13	0.6134
250.49	0.6122
250.849	0.6108
251.208	0.6069
251.568	0.6033
251.927	0.6011
252.286	0.6001
252.645	0.5968
253.004	0.5943
253.363	0.591
253.721	0.5906
254.08	0.5881
254.439	0.5845
254.797	0.5816
255.155	0.5797
255.514	0.5791
255.872	0.5759
256.23	0.5743
256.588	0.5729
256.946	0.5718
257.304	0.5699
257.662	0.5672
258.02	0.5659
258.377	0.563
258.735	0.5605
259.093	0.5588
259.45	0.5578
259.807	0.5566
260.165	0.5545
260.522	0.5524
260.879	0.5496
261.236	0.5477
261.593	0.5465
261.95	0.5422
262.306	0.5427
262.663	0.5399
263.02	0.5388
263.376	0.5369
263.733	0.5334
264.089	0.5319
264.445	0.53
264.802	0.5279
265.158	0.5249
265.514	0.5232
265.87	0.5211
266.226	0.5193
266.581	0.5173
266.937	0.515
267.293	0.5134
267.648	0.5116
268.004	0.5083
268.359	0.506
268.714	0.5026
269.07	0.5023
269.425	0.4972
269.78	0.4969
270.135	0.4947
270.49	0.4915
270.844	0.4902
271.199	0.4886
271.554	0.4837
271.908	0.4812
272.263	0.4785
272.617	0.4773
272.972	0.4742
273.326	0.472
273.68	0.4679
274.034	0.4658
274.388	0.4638
274.742	0.4588
275.096	0.4565
275.45	0.4554
275.803	0.4509
276.157	0.4475
276.51	0.4448
276.864	0.4416
277.217	0.4377
277.571	0.4341
277.924	0.4309
278.277	0.4283
278.63	0.4255
278.983	0.4213
279.336	0.4203
279.688	0.4158
280.041	0.413
280.394	0.4079
280.746	0.4049
281.099	0.4012
281.451	0.3969
281.803	0.3939
282.156	0.3923
282.508	0.3882
282.86	0.3842
283.212	0.38
283.564	0.3764
283.916	0.3727
284.267	0.3698
284.619	0.3667
284.971	0.3613
285.322	0.3578
285.673	0.3541
286.025	0.3531
286.376	0.348
286.727	0.3431
287.078	0.34
287.429	0.3377
287.78	0.3319
288.131	0.3291
288.482	0.3249
288.833	0.3219
289.183	0.3178
289.534	0.3141
289.884	0.3103
290.235	0.3067
290.585	0.3029
290.935	0.2998
291.285	0.2948
291.635	0.2915
291.985	0.2876
292.335	0.2842
292.685	0.2806
293.035	0.2771
293.384	0.2733
293.734	0.2701
294.083	0.2657
294.433	0.2615
294.782	0.2594
295.131	0.2555
295.48	0.2523
295.829	0.2484
296.179	0.2443
296.527	0.2419
296.876	0.2391
297.225	0.2364
297.574	0.2315
297.922	0.2294
298.271	0.2255
298.619	0.2225
298.968	0.2201
299.316	0.2168
299.664	0.2145
300.012	0.2118
300.36	0.2075
300.708	0.2056
301.056	0.2033
301.404	0.2012
301.752	0.1982
302.099	0.1958
302.447	0.1939
302.794	0.1907
303.142	0.1888
303.489	0.1868
303.836	0.1849
304.183	0.1823
304.531	0.1802
304.878	0.1785
305.224	0.1762
305.571	0.1748
305.918	0.1731
306.265	0.1715
306.611	0.1704
306.958	0.1689
307.304	0.1675
307.651	0.1664
307.997	0.1647
308.343	0.1636
308.689	0.163
309.035	0.1616
309.381	0.1606
309.727	0.1597
310.073	0.1594
310.419	0.1582
310.764	0.1568
311.11	0.157
311.455	0.1564
311.801	0.1553
312.146	0.155
312.491	0.1545
312.837	0.1541
313.182	0.1542
313.527	0.1534
313.872	0.1527
314.216	0.1531
314.561	0.1524
314.906	0.1531
315.251	0.1533
315.595	0.1525
315.94	0.1528
316.284	0.1526
316.628	0.1528
316.972	0.1521
317.317	0.1528
317.661	0.1537
318.005	0.1534
318.348	0.1541
318.692	0.1536
319.036	0.1536
319.38	0.1545
319.723	0.1552
320.067	0.1552
320.41	0.1558
320.754	0.1569
321.097	0.1573
321.44	0.1581
321.783	0.1587
322.126	0.159
322.469	0.1608
322.812	0.1606
323.155	0.1619
323.498	0.1629
323.84	0.164
324.183	0.1643
324.525	0.1658
324.868	0.166
325.21	0.1672
325.552	0.1681
325.894	0.1692
326.236	0.1702
326.578	0.1709
326.92	0.1725
327.262	0.1728
327.604	0.1739
327.946	0.1755
328.287	0.1768
328.629	0.1776
328.97	0.1785
329.312	0.1799
329.653	0.1808
329.994	0.1817
330.335	0.1832
330.676	0.1839
331.017	0.1853
331.358	0.1865
331.699	0.1879
332.04	0.1895
332.38	0.1903
332.721	0.1917
333.061	0.1924
333.402	0.1935
333.742	0.195
334.083	0.1965
334.423	0.1965
334.763	0.1973
335.103	0.1989
335.443	0.1997
335.783	0.2008
336.123	0.2009
336.462	0.2022
336.802	0.2042
337.141	0.2049
337.481	0.2052
337.82	0.2056
338.16	0.2067
338.499	0.2084
338.838	0.2089
339.177	0.2101
339.516	0.2109
339.855	0.2122
340.194	0.2126
340.533	0.2135
340.872	0.2135
341.21	0.216
341.549	0.2156
341.887	0.2167
342.226	0.216
342.564	0.2169
342.902	0.2168
343.24	0.2167
343.578	0.2175
343.916	0.2176
344.254	0.218
344.592	0.2185
344.93	0.2185
345.268	0.2183
345.605	0.2184
345.943	0.2186
346.28	0.2188
346.618	0.219
346.955	0.2195
347.292	0.219
347.629	0.2192
347.966	0.2193
348.303	0.2195
348.64	0.2199
348.977	0.2185
349.314	0.2194
349.65	0.2197
349.987	0.2194
350.324	0.2187
350.66	0.2185
350.996	0.2181
351.333	0.2171
351.669	0.2165
352.005	0.2169
352.341	0.2155
352.677	0.2148
353.013	0.2132
353.349	0.2133
353.685	0.212
354.02	0.2115
354.356	0.2109
354.691	0.2095
355.027	0.209
355.362	0.207
355.697	0.2067
356.033	0.2055
356.368	0.2045
356.703	0.2044
357.038	0.2032
357.373	0.2025
357.707	0.2022
358.042	0.2011
358.377	0.1995
358.711	0.1988
359.046	0.1976
359.38	0.1968
359.715	0.196
360.049	0.1945
360.383	0.1939
360.717	0.193
361.051	0.1911
361.385	0.1901
361.719	0.188
362.053	0.187
362.387	0.1844
362.72	0.1833
363.054	0.1817
363.387	0.1801
363.721	0.1785
364.054	0.1766
364.387	0.1758
364.721	0.1739
365.054	0.1724
365.387	0.1708
365.72	0.1695
366.053	0.1675
366.385	0.1665
366.718	0.1651
367.051	0.1634
367.383	0.1615
367.716	0.1605
368.048	0.16
368.381	0.158
368.713	0.1571
369.045	0.1565
369.377	0.1552
369.709	0.1536
370.041	0.1524
370.373	0.1512
370.705	0.1503
371.037	0.1477
371.368	0.1466
371.7	0.1454
372.031	0.1436
372.363	0.1421
372.694	0.1399
373.025	0.1378
373.356	0.1369
373.688	0.1345
374.019	0.1322
374.35	0.1309
374.68	0.1286
375.011	0.1266
375.342	0.125
375.673	0.1233
376.003	0.1219
376.334	0.1199
376.664	0.1187
376.995	0.1174
377.325	0.1164
377.655	0.115
377.985	0.1138
378.315	0.1125
378.645	0.1107
378.975	0.1095
379.305	0.1087
379.635	0.1074
379.964	0.1066
380.294	0.1047
380.623	0.104
380.953	0.103
381.282	0.1016
381.611	0.1001
381.941	0.0993
382.27	0.0972
382.599	0.0958
382.928	0.0947
383.257	0.0938
383.585	0.093
383.914	0.0914
384.243	0.0897
384.571	0.088
384.9	0.0865
385.228	0.0847
385.557	0.0839
385.885	0.0825
386.213	0.0807
386.541	0.0791
386.869	0.0778
387.197	0.0765
387.525	0.075
387.853	0.0737
388.181	0.0729
388.508	0.0725
388.836	0.0709
389.164	0.0701
389.491	0.0691
389.818	0.0678
390.146	0.0662
390.473	0.0652
390.8	0.0651
391.127	0.0635
391.454	0.0636
391.781	0.0617
392.108	0.0609
392.435	0.0593
392.761	0.0583
393.088	0.0583
393.415	0.0577
393.741	0.0574
394.067	0.0559
394.394	0.0558
394.72	0.0549
395.046	0.0541
395.372	0.0528
395.698	0.0518
396.024	0.0519
396.35	0.0502
396.676	0.0505
397.001	0.0497
397.327	0.0486
397.653	0.0474
397.978	0.0465
398.303	0.0457
398.629	0.0454
398.954	0.0451
399.279	0.0449
399.604	0.0444
399.929	0.0433
400.254	0.043
400.579	0.0427
400.904	0.0417
401.229	0.0414
401.553	0.0402
401.878	0.0396
402.202	0.0398
402.527	0.0392
402.851	0.0389
403.175	0.0376
403.5	0.0378
403.824	0.0382
404.148	0.0376
404.472	0.0373
404.796	0.0364
405.119	0.0366
405.443	0.0364
405.767	0.0358
406.09	0.0354
406.414	0.036
406.737	0.0355
407.061	0.0356
407.384	0.0354
407.707	0.0351
408.03	0.0355
408.353	0.0357
408.676	0.0356
408.999	0.0346
409.322	0.0349
409.645	0.0352
409.968	0.035
410.29	0.0348
410.613	0.0342
410.935	0.0342
411.258	0.0343
411.58	0.0343
411.902	0.0342
412.224	0.0345
412.546	0.0342
412.868	0.0338
413.19	0.0341
413.512	0.0338
413.834	0.0341
414.156	0.0347
414.477	0.034
414.799	0.034
415.121	0.0346
415.442	0.0343
415.763	0.0344
416.085	0.0342
416.406	0.0346
416.727	0.0344
417.048	0.0345
417.369	0.0346
417.69	0.0342
418.011	0.0342
418.331	0.0342
418.652	0.0341
418.973	0.0348
419.293	0.0343
419.614	0.0344
419.934	0.0347
420.254	0.0347
420.574	0.0345
420.895	0.0346
421.215	0.034
421.535	0.0336
421.855	0.034
422.174	0.0345
422.494	0.0349
422.814	0.0347
423.134	0.0351
423.453	0.0346
423.773	0.0352
424.092	0.0346
424.411	0.0349
424.731	0.0352
425.05	0.0354
425.369	0.035
425.688	0.0357
426.007	0.0359
426.326	0.036
426.644	0.0366
426.963	0.0361
427.282	0.0363
427.6	0.0359
427.919	0.0363
428.237	0.0361
428.556	0.0365
428.874	0.0361
429.192	0.0359
429.51	0.0361
429.828	0.0361
430.146	0.0358
430.464	0.0361
430.782	0.0363
431.1	0.0362
431.418	0.0357
431.735	0.0363
432.053	0.0366
432.37	0.0366
432.688	0.0367
433.005	0.0362
433.322	0.0373
433.639	0.0364
433.957	0.0367
434.274	0.0371
434.591	0.0368
434.907	0.0375
435.224	0.0369
435.541	0.0366
435.858	0.0373
436.174	0.0369
436.491	0.0368
436.807	0.0374
437.124	0.0367
437.44	0.0366
437.756	0.037
438.072	0.0361
438.388	0.0371
438.704	0.0369
439.02	0.0373
439.336	0.0371
439.652	0.0375
439.968	0.0371
440.283	0.0364
440.599	0.0364
440.914	0.0372
441.23	0.0367
441.545	0.0371
441.86	0.0367
442.175	0.0366
442.491	0.0372
442.806	0.0366
443.121	0.0369
443.435	0.0365
443.75	0.0366
444.065	0.0365
444.38	0.0368
444.694	0.0363
445.009	0.0365
445.323	0.0365
445.638	0.0361
445.952	0.037
446.266	0.0364
446.58	0.0367
446.894	0.0368
447.208	0.0372
447.522	0.0366
447.836	0.0357
448.15	0.0355
448.464	0.0356
448.777	0.0351
449.091	0.0352
449.404	0.0359
449.718	0.0361
450.031	0.0358
450.345	0.0354
450.658	0.0354
450.971	0.0352
451.284	0.0346
451.597	0.0353
451.91	0.0356
452.223	0.0346
452.535	0.0353
452.848	0.0348
453.161	0.035
453.473	0.035
453.786	0.0351
454.098	0.0347
454.411	0.0343
454.723	0.0345
455.035	0.0338
455.347	0.0347
455.659	0.0346
455.971	0.0347
456.283	0.0347
456.595	0.034
456.907	0.0347
457.218	0.0342
457.53	0.0337
457.841	0.0332
458.153	0.0327
458.464	0.0336
458.776	0.0318
459.087	0.0328
459.398	0.0324
459.709	0.0322
460.02	0.0329
460.331	0.0319
460.642	0.0323
460.953	0.0318
461.263	0.032
461.574	0.032
461.885	0.0317
462.195	0.0322
462.506	0.0321
462.816	0.0313
463.126	0.0303
463.437	0.031
463.747	0.0294
464.057	0.0302
464.367	0.0305
464.677	0.0291
464.987	0.0301
465.296	0.0295
465.606	0.0298
465.916	0.0288
466.225	0.0289
466.535	0.0292
466.844	0.0285
467.154	0.0287
467.463	0.0283
467.772	0.0284
468.081	0.0277
468.39	0.0279
468.699	0.0281
469.008	0.0281
469.317	0.0279
469.626	0.0282
469.935	0.0277
470.243	0.0278
470.552	0.0275
470.86	0.0273
471.169	0.0272
471.477	0.0274
471.785	0.0268
472.093	0.0271
472.402	0.0264
472.71	0.0263
473.018	0.0258
473.326	0.0256
473.633	0.0253
473.941	0.0259
474.249	0.0246
474.556	0.0257
474.864	0.0242
475.171	0.0243
475.479	0.0244
475.786	0.0244
476.094	0.025
476.401	0.0235
476.708	0.0239
477.015	0.0245
477.322	0.0244
477.629	0.024
477.936	0.0225
478.242	0.0229
478.549	0.0228
478.856	0.0229
479.162	0.0231
479.469	0.0225
479.775	0.0228
480.081	0.0213
480.388	0.0222
480.694	0.0215
481	0.0216
481.306	0.0216
481.612	0.0214
481.918	0.0205
482.224	0.0207
482.53	0.0207
482.835	0.021
483.141	0.0199
483.446	0.0196
483.752	0.0193
484.057	0.0185
484.363	0.0188
484.668	0.0188
484.973	0.0181
485.278	0.0183
485.583	0.0174
485.888	0.0178
486.193	0.0175
486.498	0.0173
486.803	0.0184
487.107	0.0175
487.412	0.0168
487.717	0.0169
488.021	0.0175
488.325	0.0168
488.63	0.0164
488.934	0.0169
489.238	0.0159
489.542	0.0166
489.846	0.0146
490.15	0.0163
490.454	0.0161
490.758	0.0158
491.062	0.0155
491.366	0.0152
491.669	0.0156
491.973	0.0149
492.276	0.0147
492.58	0.0141
492.883	0.0141
493.186	0.015
493.489	0.0145
493.792	0.0147
494.096	0.0137
494.399	0.0139
494.701	0.0145
495.004	0.0136
495.307	0.0132
495.61	0.0131
495.912	0.0127
496.215	0.0115
496.517	0.0122
496.82	0.0119
497.122	0.0129
497.424	0.0119
497.727	0.0113
498.029	0.013
498.331	0.0128
498.633	0.012
498.935	0.0117
499.237	0.0117
499.538	0.011
499.84	0.0111
500.142	0.0125
500.443	0.0109
500.745	0.0114
501.046	0.0118
501.348	0.0105
501.649	0.0113
501.95	0.0101
502.251	0.0106
502.552	0.0097
502.853	0.0093
503.154	0.0104
503.455	0.0091
503.756	0.0097
504.057	0.01
504.357	0.0092
504.658	0.0086
504.958	0.0097
505.259	0.01
505.559	0.0092
505.859	0.0086
506.16	0.0088
506.46	0.0095
506.76	0.0092
507.06	0.0086
507.36	0.009
507.66	0.0089
507.96	0.0089
508.259	0.0081
508.559	0.0078
508.859	0.008
509.158	0.0078
509.457	0.0079
509.757	0.009
510.056	0.0077
510.355	0.0074
510.655	0.0064
510.954	0.0077
511.253	0.007
511.552	0.0076
511.851	0.0071
512.149	0.0069
512.448	0.0068
512.747	0.0069
513.045	0.0066
513.344	0.0075
513.642	0.0062
513.941	0.0073
514.239	0.0068
514.537	0.0058
514.836	0.0065
515.134	0.0061
515.432	0.0066
515.73	0.0075
516.028	0.0056
516.326	0.0069
516.623	0.0058
516.921	0.0068
517.219	0.0069
517.516	0.0064
517.814	0.0062
518.111	0.0065
518.409	0.007
518.706	0.0068
519.003	0.0058
519.3	0.005
519.597	0.0047
519.894	0.0064
520.191	0.0069
520.488	0.006
520.785	0.0052
521.082	0.0051
521.378	0.0049
521.675	0.0039
521.971	0.0047
522.268	0.0052
522.564	0.0045
522.861	0.0055
523.157	0.0044
523.453	0.0052
523.749	0.0057
524.045	0.0059
524.341	0.0047
524.637	0.0041
524.933	0.0047
525.229	0.0051
525.524	0.0043
525.82	0.0042
526.115	0.0041
526.411	0.0041
526.706	0.0049
527.002	0.0046
527.297	0.0034
527.592	0.0051
527.887	0.0052
528.182	0.0046
528.477	0.005
528.772	0.0042
529.067	0.0056
529.362	0.0048
529.657	0.0039
529.951	0.0046
530.246	0.0036
530.54	0.0017
530.835	0.0023
531.129	0.0023
531.423	0.0043
531.718	0.0032
532.012	0.0035
532.306	0.0033
532.6	0.0032
532.894	0.0023
533.188	0.0041
533.482	0.0028
533.775	0.0034
534.069	0.0028
534.363	0.0014
534.656	0.0025
534.95	0.0021
535.243	0.0028
535.536	0.0028
535.83	0.0036
536.123	0.0023
536.416	0.0035
536.709	0.0037
537.002	0.0036
537.295	0.0034
537.588	0.0041
537.881	0.0024
538.173	0.0028
538.466	0.0023
538.759	0.0022
539.051	0.0015
539.344	0.0025
539.636	0.0024
539.928	0.0022
540.22	0.0027
540.513	0.0029
540.805	0.0029
541.097	0.0028
541.389	0.0027
541.681	0.0019
541.972	0.002
542.264	0.0014
542.556	0.0013
542.847	0.0023
543.139	0.0026
543.431	0.0032
543.722	0.0026
544.013	0.0037
544.305	0.0038
544.596	0.0037
544.887	0.0032
545.178	0.002
545.469	0.0031
545.76	0.0027
546.051	0.0032
546.342	0.0029
546.632	0.0008
546.923	0.0029
547.214	0.0019
547.504	0.0027
547.795	0.0028
548.085	0.0027
548.375	0.0017
548.666	0.0026
548.956	0.0013
549.246	0.0027
549.536	0.0021
549.826	0.0031
550.116	0.0032
550.406	0.0035
550.695	0.004
550.985	0.0035
551.275	0.0042
551.564	0.0037
551.854	0.0038
552.143	0.0026
552.433	0.0028
552.722	0.0032
553.011	0.0034
553.3	0.0041
553.589	0.0038
553.879	0.0026
554.167	0.0036
554.456	0.0027
554.745	0.0031
555.034	0.0028
555.323	0.0004
555.611	0.0026
555.9	0.0038
556.188	0.0033
556.477	0.0032
556.765	0.0031
557.053	0.0035
557.342	0.0026
557.63	0.0033
557.918	0.0031
558.206	0.0028
558.494	0.0041
558.782	0.0031
559.069	0.0028
559.357	0.0032
559.645	0.0028
559.932	0.0023
560.22	0.0032
560.507	0.0036
560.795	0.0028
561.082	0.002
561.37	0.0031
561.657	0.0028
561.944	0.0031
562.231	0.0031
562.518	0.0021
562.805	0.0032
563.092	0.0037
563.379	0.003
563.665	0.0026
563.952	0.0035
564.239	0.0035
564.525	0.0034
564.811	0.0041
565.098	0.0042
565.384	0.0041
565.67	0.0039
565.957	0.0038
566.243	0.0033
566.529	0.0041
566.815	0.0058
567.101	0.0033
567.387	0.003
567.672	0.0034
567.958	0.0035
568.244	0.0035
568.529	0.0032
568.815	0.0027
569.1	0.0035
569.386	0.0026
569.671	0.0028
569.956	0.0029
570.242	0.0028
570.527	0.0037
570.812	0.0037
571.097	0.004
571.382	0.0029
571.666	0.0023
571.951	0.0018
572.236	0.0029
572.521	0.003
572.805	0.0034
573.09	0.0024
573.374	0.0017
573.659	0.002
573.943	0.0031
574.227	0.0022
574.511	0.0029
574.795	0.0028
575.079	0.0025
575.363	0.0024
575.647	0.0032
575.931	0.0034
576.215	0.0026
576.499	0.0019
576.782	0.0027
577.066	0.0026
577.349	0.0027
577.633	0.0032
577.916	0.0028
578.2	0.0026
578.483	0.0031
578.766	0.0027
579.049	0.0034
579.332	0.0029
579.615	0.0021
579.898	0.0026
580.181	0.0028
580.464	0.0033
580.746	0.0018
581.029	0.0028
581.312	0.0015
581.594	0.0016
581.877	0.0024
582.159	0.0035
582.441	0.0028
582.724	0.0024
583.006	0.0027
583.288	0.0012
583.57	0.002
583.852	0.0017
584.134	0.0008
584.416	0.0029
584.697	0.0019
584.979	0.0016
585.261	0.0024
585.542	0.0023
585.824	0.0023
586.105	0.003
586.387	0.0024
586.668	0.0022
586.949	0.0019
587.231	0.0017
587.512	0.0028
587.793	0.0022
588.074	0.0029
588.355	0.0029
588.636	0.0032
588.916	0.003
589.197	0.0033
589.478	0.0033
589.758	0.0028
590.039	0.0025
590.319	0.0026
590.6	0.003
590.88	0.0026
591.16	0.003
591.441	0.0026
591.721	0.0026
592.001	0.003
592.281	0.0027
592.561	0.003
592.841	0.0023
593.12	0.0022
593.4	0.0018
593.68	0.0026
593.959	0.0022
594.239	0.0033
594.518	0.0024
594.798	0.0028
595.077	0.0025
595.356	0.0026
595.636	0.0029
595.915	0.0033
596.194	0.0035
596.473	0.0033
596.752	0.0025
597.031	0.0019
597.31	0.0017
597.588	0.0022
597.867	0.0011
598.146	0.0018
598.424	0.0024
598.703	0.0022
598.981	0.0013
599.259	0.0021
599.538	0.0032
599.816	0.0031
600.094	0.0021
600.372	0.0033
600.65	0.0029
600.928	0.0034
601.206	0.0033
601.484	0.0034
601.762	0.0036
602.04	0.0026
602.317	0.003
602.595	0.0032
602.872	0.0032
603.15	0.0022
603.427	0.0014
603.704	0.0009
603.982	0.002
604.259	0.0013
604.536	0.0015
604.813	0.002
605.09	0.0021
605.367	0.0017
605.644	0.0009
605.921	0.0014
606.197	0.0015
606.474	0.0022
606.751	0.0018
607.027	0.0019
607.304	0.0015
607.58	0.0015
607.856	0.0016
608.133	0.0025
608.409	0.0025
608.685	0.0021
608.961	0.0029
609.237	0.0029
609.513	0.0027
609.789	0.0028
610.065	0.0011
610.341	0.0022
610.616	0.0021
610.892	0.0031
611.167	0.002
611.443	0.0021
611.718	0.0015
611.994	0.0018
612.269	0.0019
612.544	0.0019
612.819	0.0011
613.095	0.0029
613.37	0.0024
613.645	0.0015
613.919	0.0011
614.194	0.0024
614.469	0.0015
614.744	0.0001
615.019	0.0004
615.293	0.0003
615.568	0.0007
615.842	0.0006
616.116	0.0009
616.391	0.001
616.665	0.0028
616.939	0.0018
617.213	0.0017
617.488	0.0018
617.762	0.0025
618.035	0.0016
618.309	0.0017
618.583	0.0015
618.857	0.0025
619.131	0.0021
619.404	0.0013
619.678	0.0019
619.951	0.0009
620.225	0.0012
620.498	0.0026
620.771	0.0021
621.045	0.0034
621.318	0.0035
621.591	0.0021
621.864	0.0007
622.137	0.0001
622.41	0.0016
622.683	0.0019
622.956	0.0026
623.228	0.0021
623.501	0.003
623.774	0.0029
624.046	0.0015
624.319	0.0021
624.591	0.0006
624.863	0.0025
625.136	0.0025
625.408	0.0027
625.68	0.0025
625.952	0.0024
626.224	0.0028
626.496	0.0023
626.768	0.0018
627.04	0.002
627.311	0.0023
627.583	0.0013
627.855	0.0021
628.126	0.0028
628.398	0.0027
628.669	0.0026
628.941	0.0018
629.212	0.0008
629.483	0.0013
629.755	0.0014
630.026	0.0017
630.297	0.0012
630.568	0.0009
630.839	0.001
631.11	0.0004
631.38	0.0005
631.651	0.0008
631.922	0.0003
632.192	-0.0001
632.463	0.0005
632.733	0.0013
633.004	0.0008
633.274	0.0012
633.545	0.0024
633.815	0.0034
634.085	0.0028
634.355	0.0026
634.625	0.0041
634.895	0.0023
635.165	0.0012
635.435	0.0027
635.705	0.002
635.974	0.0007
636.244	0.0018
636.514	0.002
636.783	0.0026
637.053	0.0025
637.322	0.0021
637.591	0.0014
637.861	0.0027
638.13	0.0029
638.399	0.0016
638.668	0.0031
638.937	0.0021
639.206	0.0031
639.475	0.0029
639.744	0.0025
640.013	0.0022
640.281	0.0048
640.55	0.0031
640.819	0.0035
641.087	0.0036
641.356	0.0025
641.624	0.0023
641.892	0.0032
642.161	0.0032
642.429	0.0033
642.697	0.0037
642.965	0.0045
643.233	0.0045
643.501	0.0024
643.769	0.0025
644.037	0.002
644.305	0.0015
644.572	0.0007
644.84	0.0013
645.108	0.0014
645.375	0.0004
645.643	0.0018
645.91	0.0016
646.177	0.0034
646.445	0.0047
646.712	0.0052
646.979	0.0048
647.246	0.004
647.513	0.0041
647.78	0.0047
648.047	0.0044
648.314	0.0029
648.58	0.0031
648.847	0.002
649.114	0.0008
649.38	0.001
649.647	0.0011
649.913	0.0007
650.18	0.0013
650.446	0.001
650.712	0.0025
650.978	0.0025
651.245	0.0031
651.511	0.0028
651.777	0.003
652.043	0.0036
652.309	0.0035
652.574	0.0042
652.84	0.0032
653.106	0.0025
653.371	0.0009
653.637	0.0017
653.903	0.0036
654.168	0.0039
654.433	0.0044
654.699	0.0041
654.964	0.0043
655.229	0.0042
655.494	0.0025
655.759	-0.0012
656.024	0.0003
656.289	-0
656.554	0.0006
656.819	0.0012
657.084	0.0025
657.349	0.004
657.613	0.0045
657.878	0.0037
658.142	0.0035
658.407	0.004
658.671	0.0032
658.936	0.002
659.2	0.0019
659.464	0.0023
659.728	0.0024
659.992	0.0023
660.256	0.0015
660.52	0.002
660.784	0.001
661.048	0.0004
661.312	0.0007
661.575	0.0005
661.839	-0.0008
662.103	-0.0014
662.366	-0.0008
662.63	0.0009
662.893	0.0012
663.156	0.0006
663.42	0.0001
663.683	0.0009
663.946	0.001
664.209	0.0032
664.472	0.002
664.735	0.0027
664.998	0.0019
665.261	0.002
665.524	0.0015
665.786	0.001
666.049	0.0013
666.312	0.0013
666.574	0.0027
666.837	0.002
667.099	0.0009
667.361	0.0007
667.624	0.0005
667.886	0.0011
668.148	0.0017
668.41	0.0033
668.672	0.0013
668.934	0.002
669.196	0.0015
669.458	0.0028
669.72	0.0025
669.982	0.0026
670.243	0.0038
670.505	0.0033
670.766	0.0033
671.028	0.0032
671.289	0.0026
671.551	0.0017
671.812	0
672.073	0.0017
672.334	0.0011
672.596	0.0016
672.857	0.0007
673.118	0.0018
673.379	0.0016
673.639	0.0005
673.9	0.0009
674.161	-0.0012
674.422	-0.0019
674.682	-0.0016
674.943	-0.001
675.203	-0.0002
675.464	0.0005
675.724	0.0012
675.985	0.0025
676.245	0.0023
676.505	0.003
676.765	0.0031
677.025	0.003
677.285	0.003
677.545	0.0044
677.805	0.0031
678.065	0.0039
678.325	0.0048
678.585	0.0022
678.844	0.0026
679.104	0.003
679.363	0.0028
679.623	0.0036
679.882	0.0036
680.142	0.0042
680.401	0.0041
680.66	0.0043
680.919	0.0045
681.178	0.0052
681.437	0.0046
681.696	0.0038
681.955	0.0051
682.214	0.0051
682.473	0.0049
682.732	0.003
682.99	0.0034
683.249	0.0035
683.508	0.0043
683.766	0.0038
684.024	0.0041
684.283	0.0039
684.541	0.0041
684.799	0.0038
685.058	0.0034
685.316	0.0023
685.574	0.0035
685.832	0.0038
686.09	0.0043
686.348	0.0046
686.606	0.0046
686.863	0.005
687.121	0.0052
687.379	0.0044
687.636	0.0044
687.894	0.0057
688.151	0.0056
688.409	0.0055
688.666	0.0042
688.923	0.0049
689.181	0.0042
689.438	0.0033
689.695	0.0034
689.952	0.0017
690.209	0.0019
690.466	0.0017
690.723	0.004
690.979	0.0026
691.236	0.0021
691.493	0.0014
691.75	0.0029
692.006	0.0037
692.263	0.0039
692.519	0.0039
692.775	0.0025
693.032	0.0019
693.288	0.003
693.544	0.0031
693.8	0.0028
694.056	0.0039
694.313	0.0039
694.568	0.0031
694.824	0.0039
695.08	0.0038
695.336	0.0042
695.592	0.0024
695.847	0.0039
696.103	0.0038
696.359	0.0036
696.614	0.0032
696.869	0.0021
697.125	0.0006
697.38	-0.0004
697.635	-0
697.891	0.0001
698.146	0.0003
698.401	0.0022
698.656	0.0015
698.911	0.0023
699.166	0.0015
699.42	0.0014
699.675	0.001
699.93	0.0001
700.185	0.0014
700.439	0.0026
700.694	0.0017
700.948	0.0024
701.203	0.0025
701.457	0.002
701.711	0.0016
701.965	0.0002
702.22	-0.0003
702.474	0.0005
702.728	-0.0005
702.982	-0.0006
703.236	0.0005
703.49	0.0006
703.743	0.0004
703.997	0.0007
704.251	0.0014
704.504	0.0015
704.758	0.0013
705.012	0.0013
705.265	0.0014
705.518	0.0005
705.772	0.0003
706.025	0.0008
706.278	0.0004
706.531	-0.0004
706.785	-0.0009
707.038	-0.0005
707.291	0.0001
707.543	0.0001
707.796	0.0006
708.049	-0.001
708.302	-0.0007
708.555	0.0008
708.807	0.0008
709.06	0.0002
709.312	-0.0015
709.565	-0.0006
709.817	-0.0014
710.069	-0.0014
710.322	0.0006
710.574	0.0001
710.826	-0.0001
711.078	0.0007
711.33	0.0012
711.582	0.0005
711.834	0.0012
712.086	0.0021
712.338	0.0031
712.59	0.0025
712.841	0.0015
713.093	0.0012
713.344	0.0017
713.596	0.0017
713.847	0.0024
714.099	0.0027
714.35	0.0026
714.601	0.0024
714.853	0.0042
715.104	0.0031
715.355	0.0018
715.606	0.0028
715.857	0.0029
716.108	0.0044
716.359	0.0036
716.609	0.0036
716.86	0.0029
717.111	0.0022
717.361	0.0015
717.612	0.0012
717.863	0.0012
718.113	0.0005
718.363	0.0008
718.614	0.0013
718.864	0.0017
719.114	0.0023
719.364	0.0009
719.614	0.0002
719.865	0.0003
720.114	0.0007
720.364	0.0012
720.614	0.0024
720.864	0.003
721.114	0.0027
721.364	0.0031
721.613	0.004
721.863	0.0039
722.112	0.0041
722.362	0.0042
722.611	0.0043
722.86	0.0033
723.11	0.0019
723.359	0.0018
723.608	0.0026
723.857	0.0032
724.106	0.0051
724.355	0.0064
724.604	0.0065
724.853	0.0044
725.102	0.0036
725.351	0.0032
725.599	0.0027
725.848	0.0022
726.097	0.002
726.345	0.0022
726.594	0.0025
726.842	0.0026
727.09	0.002
727.339	0.0023
727.587	0.0019
727.835	0.0006
728.083	-0.0002
728.331	-0.0006
728.579	-0.0008
728.827	0
729.075	0.0002
729.323	0.0018
729.571	0.0018
729.818	0.0024
730.066	0.0026
730.314	0.0023
730.561	0.0011
730.809	-0.0001
731.056	-0.0003
731.303	-0.0005
731.551	0.0015
731.798	0.001
732.045	0.0014
732.292	0.0017
732.539	0.0013
732.786	0.0013
733.033	0.0018
733.28	0.0023
733.527	0.0041
733.774	0.0026
734.021	0.0039
734.267	0.004
734.514	0.0037
734.76	0.0045
735.007	0.0058
735.253	0.0059
735.5	0.0057
735.746	0.0053
735.992	0.0055
736.238	0.0051
736.485	0.0068
736.731	0.0063
736.977	0.0056
737.223	0.0049
737.469	0.0065
737.715	0.0061
737.96	0.0081
738.206	0.0067
738.452	0.0087
738.697	0.0086
738.943	0.0068
739.189	0.0057
739.434	0.0028
739.679	0.0028
739.925	0.0026
740.17	0.0023
740.415	0.0026
740.66	0.0037
740.906	0.0038
741.151	0.0041
741.396	0.004
741.641	0.0058
741.886	0.0063
742.13	0.0059
742.375	0.0072
742.62	0.0074
742.865	0.0063
743.109	0.0064
743.354	0.0062
743.598	0.0057
743.843	0.0062
744.087	0.0064
744.331	0.0065
744.576	0.006
744.82	0.0064
745.064	0.0054
745.308	0.0054
745.552	0.0049
745.796	0.0046
746.04	0.0045
746.284	0.0034
746.528	0.0019
746.771	0.0031
747.015	0.0021
747.259	0.0024
747.502	0.002
747.746	0.0031
747.989	0.0031
748.233	0.0042
748.476	0.0046
748.719	0.0045
748.963	0.0048
749.206	0.0044
749.449	0.0048
749.692	0.0039
749.935	0.0053
750.178	0.0044
750.421	0.0044
750.664	0.0043
750.906	0.0051
751.149	0.004
751.392	0.0036
751.635	0.0015
751.877	0.0006
752.12	0.0004
752.362	0.0009
752.604	0.0017
752.847	0.002
753.089	0.0024
753.331	0.0024
753.573	0.0023
753.816	0.0025
754.058	0.0029
754.3	0.0039
754.542	0.0052
754.783	0.0038
755.025	0.0038
755.267	0.0028
755.509	0.0023
755.75	0.002
755.992	0.0029
756.234	0.0025
756.475	0.001
756.716	0.0004
756.958	0.0003
757.199	0.0006
757.44	0.0019
757.682	0.0011
757.923	0.0008
758.164	0.0006
758.405	0
758.646	0.0002
758.887	0.001
759.128	0.0007
759.369	0.0001
759.609	0.0002
759.85	0.0004
760.091	0.0007
760.331	0.0008
760.572	0
760.812	-0.0005
761.053	-0.0006
761.293	0.0009
761.533	0.0013
761.774	0.0016
762.014	0.0018
762.254	0.0011
762.494	0.001
762.734	0.0007
762.974	0.0009
763.214	-0.0002
763.454	0
763.694	0.0002
763.933	-0.0005
764.173	0.0005
764.413	0.0003
764.652	0.0005
764.892	0.0007
765.131	0.0019
765.371	0.0017
765.61	0.0028
765.849	0.0017
766.089	0.0026
766.328	0.0038
766.567	0.0043
766.806	0.0041
767.045	0.0049
767.284	0.0046
767.523	0.0046
767.762	0.0049
768.001	0.0042
768.239	0.0037
768.478	0.0027
768.717	0.003
768.955	0.0038
769.194	0.0025
769.432	0.0032
769.671	0.0034
769.909	0.0022
770.148	0.003
770.386	0.0031
770.624	0.0028
770.862	0.0039
771.1	0.0033
771.338	0.0032
771.576	0.003
771.814	0.0034
772.052	0.0029
772.29	0.0044
772.528	0.005
772.765	0.0033
773.003	0.0038
773.24	0.0039
773.478	0.0039
773.716	0.0048
773.953	0.0051
774.19	0.0053
774.428	0.0047
774.665	0.0056
774.902	0.0053
775.139	0.0041
775.376	0.0043
775.613	0.004
775.85	0.0044
776.087	0.0034
776.324	0.004
776.561	0.005
776.798	0.0056
777.034	0.007
777.271	0.0083
777.508	0.0086
777.744	0.0073
777.981	0.0073
778.217	0.0069
778.454	0.0063
778.69	0.0058
778.926	0.0059
779.162	0.0055
779.399	0.0048
779.635	0.0042
779.871	0.004
780.107	0.0052
780.343	0.0054
780.579	0.0061
780.814	0.0049
781.05	0.0056
781.286	0.0047
781.522	0.0048
781.757	0.0071
781.993	0.0067
782.228	0.0071
782.464	0.0062
782.699	0.0048
782.934	0.0042
783.17	0.0051
783.405	0.0042
783.64	0.0036
783.875	0.0046
784.11	0.0042
784.345	0.005
784.58	0.0046
784.815	0.0052
785.05	0.0049
785.285	0.003
785.52	0.0022
785.754	0.0028
785.989	0.0026
786.223	0.0023
786.458	0.0018
786.692	0.0023
786.927	0.0018
787.161	0.0018
787.396	0.0015
787.63	0.0015
787.864	0.0007
788.098	0.0007
788.332	0.0008
788.566	0.0009
788.8	0.0003
789.034	0.0006
789.268	0.0018
789.502	0.0024
789.736	0.0026
789.969	0.0032
790.203	0.0028
790.437	0.0029
790.67	0.0023
790.904	0.0026
791.137	0.0013
791.37	0.0008
791.604	0.0003
791.837	0.0006
792.07	0.0004
792.303	0.0009
792.537	0.0008
792.77	0.0006
793.003	0.0006
793.236	-0.0008
793.469	0
793.701	0.0004
793.934	0.0003
794.167	0.0004
794.4	0.0002
794.632	0.0004
794.865	0.0003
795.097	0.0007
795.33	0.0023
795.562	0.0013
795.795	0.0015
796.027	0.0019
796.259	0.002
796.491	0.0014
796.724	0.0012
796.956	0.0024
797.188	0.0034
797.42	0.002
797.652	0.0016
797.883	0.0017
798.115	0.0004
798.347	0.0003
798.579	-0.001
798.81	-0.0015
799.042	-0.0009
799.274	-0.0018
799.505	-0.0013
799.737	-0.002
799.968	-0.0005
800.199	-0.0008
800.431	0.0001
800.662	0.0012
800.893	0.001
801.124	0.0017
801.355	0.0019
801.586	0.0019
801.817	0.0021
802.048	0.0018
802.279	0.0018
802.51	0.0021
802.741	0.0006
802.971	0.0002
803.202	-0.0005
803.433	-0.0011
803.663	-0.0005
803.894	0.0001
804.124	0.0011
804.354	0
804.585	0
804.815	0.0003
805.045	-0.0005
805.275	-0.0013
805.506	-0.0197
805.736	0.0287
805.966	-0.046
806.196	0.0742
