Data from 03 0.2 mM BQDS 0.4 mM K2Cr2O7 1 M H2SO4 5 min_Absorbance_14-57-42-780.txt Node
Date: Wed Dec 08 14:57:42 EST 2021
User: kwabilab-user
Spectrometer: HDX00518
Trigger mode: 0
Integration Time (sec): 5.000000E-2
Scans to average: 50
Nonlinearity correction enabled: false
Boxcar width: 0
Storing dark spectrum: false
XAxis mode: Wavelengths
Number of Pixels in Spectrum: 2068
>>>>>Begin Spectral Data<<<<<
195.27	0.0504
195.642	-0.02
196.014	0.0259
196.386	-0.09
196.758	0.014
197.129	0.0124
197.501	0.0419
197.872	0.0841
198.244	0.1055
198.615	0.1097
198.986	0.0983
199.357	0.0902
199.728	0.1042
200.099	0.1038
200.47	0.1011
200.841	0.1049
201.212	0.1049
201.582	0.0927
201.953	0.1139
202.323	0.1064
202.694	0.1078
203.064	0.1054
203.434	0.0916
203.804	0.1208
204.174	0.0968
204.544	0.0945
204.914	0.1072
205.284	0.1024
205.653	0.1221
206.023	0.1062
206.393	0.1026
206.762	0.1165
207.131	0.1223
207.501	0.1088
207.87	0.1121
208.239	0.1123
208.608	0.1037
208.977	0.1084
209.346	0.1267
209.715	0.133
210.083	0.1348
210.452	0.1374
210.82	0.1278
211.189	0.1481
211.557	0.1289
211.925	0.1562
212.294	0.159
212.662	0.1655
213.03	0.1779
213.398	0.1636
213.766	0.1722
214.133	0.1797
214.501	0.2003
214.869	0.1931
215.236	0.2341
215.604	0.2258
215.971	0.2466
216.338	0.2493
216.705	0.2821
217.072	0.2931
217.439	0.3099
217.806	0.3479
218.173	0.3526
218.54	0.3994
218.907	0.4372
219.273	0.4793
219.64	0.5026
220.006	0.5469
220.373	0.5696
220.739	0.6176
221.105	0.647
221.471	0.6731
221.837	0.7205
222.203	0.7611
222.569	0.7971
222.935	0.8172
223.3	0.8498
223.666	0.8721
224.031	0.9102
224.397	0.9173
224.762	0.9344
225.127	0.949
225.493	0.9672
225.858	0.978
226.223	0.9922
226.588	0.9953
226.952	1.0003
227.317	1.0159
227.682	1.0006
228.046	0.9989
228.411	1.0074
228.775	1.0009
229.14	1.0057
229.504	0.993
229.868	0.9905
230.232	0.9899
230.596	0.9741
230.96	0.9738
231.324	0.9619
231.688	0.9555
232.052	0.9473
232.415	0.939
232.779	0.934
233.142	0.9232
233.505	0.919
233.869	0.9049
234.232	0.8983
234.595	0.8856
234.958	0.8785
235.321	0.8671
235.684	0.8572
236.047	0.8471
236.409	0.8384
236.772	0.8301
237.134	0.8219
237.497	0.8114
237.859	0.8034
238.222	0.7977
238.584	0.7866
238.946	0.7798
239.308	0.7696
239.67	0.7614
240.032	0.7542
240.393	0.7497
240.755	0.7388
241.117	0.7355
241.478	0.7255
241.84	0.7202
242.201	0.7102
242.562	0.7092
242.924	0.7004
243.285	0.6947
243.646	0.6873
244.007	0.6848
244.368	0.6786
244.728	0.6713
245.089	0.6654
245.45	0.6622
245.81	0.6584
246.171	0.6528
246.531	0.6486
246.891	0.6432
247.252	0.6397
247.612	0.6386
247.972	0.6321
248.332	0.6293
248.692	0.6242
249.051	0.6227
249.411	0.6207
249.771	0.6151
250.13	0.6115
250.49	0.6109
250.849	0.6076
251.208	0.6053
251.568	0.6007
251.927	0.5999
252.286	0.5984
252.645	0.5957
253.004	0.5946
253.363	0.5891
253.721	0.5897
254.08	0.5863
254.439	0.5834
254.797	0.5817
255.155	0.5775
255.514	0.5794
255.872	0.5763
256.23	0.5745
256.588	0.5726
256.946	0.569
257.304	0.5708
257.662	0.568
258.02	0.5667
258.377	0.5648
258.735	0.5623
259.093	0.5618
259.45	0.5579
259.807	0.5569
260.165	0.5553
260.522	0.5539
260.879	0.5491
261.236	0.5484
261.593	0.5469
261.95	0.5452
262.306	0.5458
262.663	0.5411
263.02	0.5414
263.376	0.5372
263.733	0.5358
264.089	0.5339
264.445	0.5307
264.802	0.5313
265.158	0.5279
265.514	0.5248
265.87	0.5236
266.226	0.5217
266.581	0.5187
266.937	0.5165
267.293	0.5153
267.648	0.5133
268.004	0.5099
268.359	0.5072
268.714	0.5051
269.07	0.503
269.425	0.4991
269.78	0.4986
270.135	0.497
270.49	0.494
270.844	0.4919
271.199	0.4897
271.554	0.4868
271.908	0.4814
272.263	0.4805
272.617	0.4791
272.972	0.4747
273.326	0.4725
273.68	0.47
274.034	0.4672
274.388	0.4658
274.742	0.4594
275.096	0.4578
275.45	0.4555
275.803	0.4517
276.157	0.449
276.51	0.446
276.864	0.4426
277.217	0.4395
277.571	0.4346
277.924	0.4308
278.277	0.429
278.63	0.426
278.983	0.4231
279.336	0.4194
279.688	0.415
280.041	0.4127
280.394	0.4083
280.746	0.4049
281.099	0.4019
281.451	0.3977
281.803	0.3931
282.156	0.3911
282.508	0.3869
282.86	0.3842
283.212	0.3811
283.564	0.3765
283.916	0.3727
284.267	0.3698
284.619	0.3649
284.971	0.3617
285.322	0.3587
285.673	0.3545
286.025	0.352
286.376	0.3482
286.727	0.3432
287.078	0.3386
287.429	0.3368
287.78	0.3327
288.131	0.3276
288.482	0.3243
288.833	0.3212
289.183	0.3171
289.534	0.3133
289.884	0.3092
290.235	0.3057
290.585	0.3015
290.935	0.2979
291.285	0.2946
291.635	0.2915
291.985	0.2868
292.335	0.2837
292.685	0.2798
293.035	0.2767
293.384	0.2723
293.734	0.2689
294.083	0.2652
294.433	0.2603
294.782	0.2581
295.131	0.2549
295.48	0.2522
295.829	0.2476
296.179	0.2433
296.527	0.2411
296.876	0.2383
297.225	0.2359
297.574	0.2308
297.922	0.2286
298.271	0.2261
298.619	0.2217
298.968	0.2192
299.316	0.2169
299.664	0.2135
300.012	0.2107
300.36	0.2079
300.708	0.2051
301.056	0.2026
301.404	0.2004
301.752	0.1976
302.099	0.195
302.447	0.1929
302.794	0.1908
303.142	0.189
303.489	0.1858
303.836	0.1847
304.183	0.1828
304.531	0.1808
304.878	0.1785
305.224	0.1764
305.571	0.1749
305.918	0.1737
306.265	0.1715
306.611	0.1708
306.958	0.1687
307.304	0.1681
307.651	0.1664
307.997	0.1652
308.343	0.1638
308.689	0.163
309.035	0.1613
309.381	0.1615
309.727	0.1596
310.073	0.1596
310.419	0.1583
310.764	0.1576
311.11	0.1572
311.455	0.1563
311.801	0.1554
312.146	0.1555
312.491	0.1548
312.837	0.1541
313.182	0.1544
313.527	0.1539
313.872	0.1532
314.216	0.1531
314.561	0.1534
314.906	0.1528
315.251	0.1529
315.595	0.1527
315.94	0.1529
316.284	0.1529
316.628	0.1528
316.972	0.1524
317.317	0.1536
317.661	0.1542
318.005	0.154
318.348	0.1543
318.692	0.1549
319.036	0.1549
319.38	0.1559
319.723	0.1563
320.067	0.1565
320.41	0.157
320.754	0.1576
321.097	0.1583
321.44	0.159
321.783	0.1596
322.126	0.1602
322.469	0.1614
322.812	0.1621
323.155	0.1633
323.498	0.1636
323.84	0.1649
324.183	0.1657
324.525	0.1662
324.868	0.1678
325.21	0.1689
325.552	0.1697
325.894	0.1699
326.236	0.1711
326.578	0.1726
326.92	0.1732
327.262	0.1739
327.604	0.1757
327.946	0.1769
328.287	0.1781
328.629	0.179
328.97	0.1796
329.312	0.1814
329.653	0.1822
329.994	0.1834
330.335	0.1845
330.676	0.1862
331.017	0.1862
331.358	0.1887
331.699	0.1896
332.04	0.1909
332.38	0.1914
332.721	0.1932
333.061	0.194
333.402	0.1955
333.742	0.1968
334.083	0.198
334.423	0.1989
334.763	0.1993
335.103	0.2008
335.443	0.2013
335.783	0.2025
336.123	0.2025
336.462	0.2041
336.802	0.2052
337.141	0.2066
337.481	0.2072
337.82	0.2078
338.16	0.2088
338.499	0.2096
338.838	0.2109
339.177	0.2128
339.516	0.213
339.855	0.2136
340.194	0.2147
340.533	0.2152
340.872	0.2158
341.21	0.2177
341.549	0.2177
341.887	0.2181
342.226	0.219
342.564	0.2184
342.902	0.2196
343.24	0.2192
343.578	0.2195
343.916	0.2204
344.254	0.2207
344.592	0.2206
344.93	0.2211
345.268	0.2211
345.605	0.2208
345.943	0.2214
346.28	0.2211
346.618	0.2206
346.955	0.2214
347.292	0.2212
347.629	0.2223
347.966	0.2216
348.303	0.2225
348.64	0.222
348.977	0.2215
349.314	0.2213
349.65	0.2217
349.987	0.2219
350.324	0.2212
350.66	0.2199
350.996	0.2205
351.333	0.2203
351.669	0.2188
352.005	0.2186
352.341	0.2179
352.677	0.2171
353.013	0.2157
353.349	0.2161
353.685	0.2143
354.02	0.2135
354.356	0.2124
354.691	0.2116
355.027	0.2108
355.362	0.2098
355.697	0.2089
356.033	0.2081
356.368	0.2071
356.703	0.2062
357.038	0.2052
357.373	0.2051
357.707	0.2039
358.042	0.2025
358.377	0.2024
358.711	0.2012
359.046	0.2004
359.38	0.1985
359.715	0.1985
360.049	0.1974
360.383	0.1964
360.717	0.195
361.051	0.1927
361.385	0.192
361.719	0.1906
362.053	0.1896
362.387	0.1868
362.72	0.1862
363.054	0.1837
363.387	0.1821
363.721	0.1809
364.054	0.1785
364.387	0.1774
364.721	0.1765
365.054	0.1745
365.387	0.1724
365.72	0.1709
366.053	0.1698
366.385	0.168
366.718	0.1674
367.051	0.1657
367.383	0.1641
367.716	0.1626
368.048	0.1615
368.381	0.1601
368.713	0.1595
369.045	0.1583
369.377	0.1566
369.709	0.1552
370.041	0.1539
370.373	0.1535
370.705	0.1519
371.037	0.1493
371.368	0.148
371.7	0.1471
372.031	0.1454
372.363	0.1435
372.694	0.1416
373.025	0.1401
373.356	0.1386
373.688	0.1362
374.019	0.1341
374.35	0.1329
374.68	0.131
375.011	0.1287
375.342	0.1273
375.673	0.1256
376.003	0.1238
376.334	0.1222
376.664	0.1209
376.995	0.1196
377.325	0.1179
377.655	0.1169
377.985	0.1152
378.315	0.1143
378.645	0.1127
378.975	0.1109
379.305	0.1101
379.635	0.1093
379.964	0.1071
380.294	0.1072
380.623	0.1052
380.953	0.1043
381.282	0.1028
381.611	0.1018
381.941	0.1005
382.27	0.0996
382.599	0.0976
382.928	0.0965
383.257	0.0952
383.585	0.0944
383.914	0.0931
384.243	0.0914
384.571	0.0898
384.9	0.0884
385.228	0.0868
385.557	0.0856
385.885	0.084
386.213	0.0822
386.541	0.081
386.869	0.0794
387.197	0.0781
387.525	0.0763
387.853	0.0754
388.181	0.0746
388.508	0.0737
388.836	0.0728
389.164	0.071
389.491	0.0702
389.818	0.0687
390.146	0.0679
390.473	0.0668
390.8	0.0659
391.127	0.0647
391.454	0.0643
391.781	0.0628
392.108	0.0618
392.435	0.0608
392.761	0.0598
393.088	0.0593
393.415	0.0587
393.741	0.0584
394.067	0.0573
394.394	0.0571
394.72	0.0564
395.046	0.0553
395.372	0.0542
395.698	0.0528
396.024	0.0526
396.35	0.0517
396.676	0.052
397.001	0.0513
397.327	0.0498
397.653	0.0488
397.978	0.0482
398.303	0.0469
398.629	0.0463
398.954	0.0461
399.279	0.0459
399.604	0.0451
399.929	0.0445
400.254	0.0438
400.579	0.0432
400.904	0.0428
401.229	0.0419
401.553	0.0412
401.878	0.0411
402.202	0.041
402.527	0.0403
402.851	0.04
403.175	0.0394
403.5	0.0393
403.824	0.0392
404.148	0.0386
404.472	0.0383
404.796	0.0376
405.119	0.0381
405.443	0.0377
405.767	0.0368
406.09	0.0366
406.414	0.0371
406.737	0.0366
407.061	0.0369
407.384	0.0363
407.707	0.0361
408.03	0.0362
408.353	0.0365
408.676	0.0357
408.999	0.0353
409.322	0.0356
409.645	0.0361
409.968	0.0352
410.29	0.0353
410.613	0.0348
410.935	0.0349
411.258	0.0356
411.58	0.0352
411.902	0.0351
412.224	0.0355
412.546	0.0352
412.868	0.0349
413.19	0.035
413.512	0.0353
413.834	0.0349
414.156	0.0356
414.477	0.0348
414.799	0.035
415.121	0.0356
415.442	0.0354
415.763	0.0358
416.085	0.0357
416.406	0.0353
416.727	0.0355
417.048	0.035
417.369	0.0357
417.69	0.0352
418.011	0.0353
418.331	0.0351
418.652	0.0362
418.973	0.0361
419.293	0.0352
419.614	0.0362
419.934	0.0352
420.254	0.0361
420.574	0.0354
420.895	0.0362
421.215	0.0353
421.535	0.035
421.855	0.0352
422.174	0.0353
422.494	0.035
422.814	0.0365
423.134	0.0359
423.453	0.0362
423.773	0.0359
424.092	0.0361
424.411	0.0362
424.731	0.036
425.05	0.0363
425.369	0.0356
425.688	0.0361
426.007	0.037
426.326	0.037
426.644	0.0376
426.963	0.0373
427.282	0.0375
427.6	0.0368
427.919	0.0369
428.237	0.0373
428.556	0.0375
428.874	0.0373
429.192	0.0363
429.51	0.0366
429.828	0.037
430.146	0.0374
430.464	0.0376
430.782	0.0371
431.1	0.0375
431.418	0.0372
431.735	0.0372
432.053	0.0378
432.37	0.0376
432.688	0.0375
433.005	0.0376
433.322	0.0377
433.639	0.0377
433.957	0.0382
434.274	0.0379
434.591	0.0374
434.907	0.0381
435.224	0.0373
435.541	0.0381
435.858	0.0388
436.174	0.0381
436.491	0.0386
436.807	0.0384
437.124	0.0377
437.44	0.0372
437.756	0.0373
438.072	0.037
438.388	0.0385
438.704	0.0371
439.02	0.0379
439.336	0.0376
439.652	0.0377
439.968	0.038
440.283	0.0373
440.599	0.038
440.914	0.0384
441.23	0.037
441.545	0.0374
441.86	0.0376
442.175	0.0376
442.491	0.0375
442.806	0.0373
443.121	0.0377
443.435	0.0374
443.75	0.0374
444.065	0.0371
444.38	0.0373
444.694	0.0372
445.009	0.0374
445.323	0.0372
445.638	0.0372
445.952	0.0371
446.266	0.0372
446.58	0.0375
446.894	0.0371
447.208	0.038
447.522	0.0377
447.836	0.0355
448.15	0.0364
448.464	0.0362
448.777	0.0364
449.091	0.0359
449.404	0.037
449.718	0.0368
450.031	0.0368
450.345	0.036
450.658	0.0363
450.971	0.0361
451.284	0.0353
451.597	0.0359
451.91	0.0368
452.223	0.0359
452.535	0.0357
452.848	0.0357
453.161	0.0359
453.473	0.0356
453.786	0.0359
454.098	0.0354
454.411	0.0349
454.723	0.035
455.035	0.0348
455.347	0.0355
455.659	0.0356
455.971	0.0353
456.283	0.0352
456.595	0.0352
456.907	0.0346
457.218	0.0353
457.53	0.0352
457.841	0.0345
458.153	0.0336
458.464	0.0339
458.776	0.0331
459.087	0.0332
459.398	0.0329
459.709	0.0333
460.02	0.0328
460.331	0.0329
460.642	0.0323
460.953	0.0325
461.263	0.0326
461.574	0.033
461.885	0.0323
462.195	0.0321
462.506	0.0326
462.816	0.0321
463.126	0.031
463.437	0.032
463.747	0.0307
464.057	0.0311
464.367	0.0318
464.677	0.0302
464.987	0.0306
465.296	0.0303
465.606	0.0302
465.916	0.0297
466.225	0.03
466.535	0.0294
466.844	0.029
467.154	0.0294
467.463	0.0285
467.772	0.029
468.081	0.0288
468.39	0.0287
468.699	0.0286
469.008	0.0288
469.317	0.0286
469.626	0.028
469.935	0.0279
470.243	0.0283
470.552	0.0284
470.86	0.0278
471.169	0.0264
471.477	0.0274
471.785	0.0278
472.093	0.0281
472.402	0.0272
472.71	0.0269
473.018	0.0262
473.326	0.026
473.633	0.0259
473.941	0.0262
474.249	0.026
474.556	0.0257
474.864	0.0256
475.171	0.0245
475.479	0.0258
475.786	0.0253
476.094	0.0254
476.401	0.0248
476.708	0.0241
477.015	0.0246
477.322	0.0242
477.629	0.024
477.936	0.0238
478.242	0.0243
478.549	0.0232
478.856	0.0231
479.162	0.0237
479.469	0.0236
479.775	0.0231
480.081	0.0223
480.388	0.0229
480.694	0.0216
481	0.0216
481.306	0.0217
481.612	0.0223
481.918	0.0217
482.224	0.0217
482.53	0.0209
482.835	0.0209
483.141	0.0203
483.446	0.02
483.752	0.0202
484.057	0.0193
484.363	0.0196
484.668	0.0193
484.973	0.0186
485.278	0.0185
485.583	0.0188
485.888	0.0184
486.193	0.0184
486.498	0.0188
486.803	0.0182
487.107	0.0176
487.412	0.0177
487.717	0.0172
488.021	0.0177
488.325	0.0169
488.63	0.0165
488.934	0.0172
489.238	0.0167
489.542	0.0166
489.846	0.0154
490.15	0.0174
490.454	0.016
490.758	0.0164
491.062	0.0156
491.366	0.0155
491.669	0.0163
491.973	0.0164
492.276	0.015
492.58	0.0143
492.883	0.0153
493.186	0.0157
493.489	0.015
493.792	0.0157
494.096	0.0146
494.399	0.0146
494.701	0.0149
495.004	0.0134
495.307	0.0131
495.61	0.0132
495.912	0.0132
496.215	0.0128
496.517	0.0131
496.82	0.0129
497.122	0.0131
497.424	0.0125
497.727	0.0122
498.029	0.0131
498.331	0.0129
498.633	0.0126
498.935	0.0113
499.237	0.0129
499.538	0.0123
499.84	0.0113
500.142	0.0121
500.443	0.0116
500.745	0.0122
501.046	0.0116
501.348	0.0111
501.649	0.0114
501.95	0.0102
502.251	0.0109
502.552	0.0097
502.853	0.0097
503.154	0.0105
503.455	0.0094
503.756	0.0095
504.057	0.0102
504.357	0.0093
504.658	0.0098
504.958	0.0099
505.259	0.0105
505.559	0.0097
505.859	0.0084
506.16	0.0091
506.46	0.0093
506.76	0.0095
507.06	0.0094
507.36	0.0095
507.66	0.0094
507.96	0.0092
508.259	0.0075
508.559	0.0082
508.859	0.0088
509.158	0.0083
509.457	0.0074
509.757	0.0091
510.056	0.0084
510.355	0.0069
510.655	0.0061
510.954	0.0073
511.253	0.0081
511.552	0.0075
511.851	0.0066
512.149	0.0064
512.448	0.0069
512.747	0.0081
513.045	0.006
513.344	0.0076
513.642	0.0073
513.941	0.008
514.239	0.0074
514.537	0.0072
514.836	0.0068
515.134	0.0062
515.432	0.0069
515.73	0.0074
516.028	0.0061
516.326	0.0061
516.623	0.0054
516.921	0.0056
517.219	0.0068
517.516	0.0066
517.814	0.0062
518.111	0.0067
518.409	0.0072
518.706	0.0065
519.003	0.0066
519.3	0.0055
519.597	0.0054
519.894	0.0056
520.191	0.0059
520.488	0.0075
520.785	0.0052
521.082	0.0063
521.378	0.0062
521.675	0.0047
521.971	0.0058
522.268	0.0062
522.564	0.0051
522.861	0.0052
523.157	0.0041
523.453	0.005
523.749	0.0059
524.045	0.0053
524.341	0.0053
524.637	0.0049
524.933	0.0043
525.229	0.0046
525.524	0.0036
525.82	0.006
526.115	0.0047
526.411	0.0041
526.706	0.0053
527.002	0.0057
527.297	0.0035
527.592	0.0061
527.887	0.0053
528.182	0.0046
528.477	0.0057
528.772	0.0054
529.067	0.0047
529.362	0.0042
529.657	0.0037
529.951	0.0043
530.246	0.0041
530.54	0.0033
530.835	0.0029
531.129	0.0028
531.423	0.0043
531.718	0.0033
532.012	0.0042
532.306	0.0037
532.6	0.0034
532.894	0.0038
533.188	0.0037
533.482	0.0036
533.775	0.0039
534.069	0.0031
534.363	0.0024
534.656	0.0022
534.95	0.003
535.243	0.0028
535.536	0.0036
535.83	0.0031
536.123	0.002
536.416	0.0035
536.709	0.004
537.002	0.0045
537.295	0.0029
537.588	0.0041
537.881	0.0031
538.173	0.0017
538.466	0.0035
538.759	0.0019
539.051	0.0029
539.344	0.0016
539.636	0.0025
539.928	0.0025
540.22	0.0029
540.513	0.0026
540.805	0.0028
541.097	0.0031
541.389	0.0034
541.681	0.0019
541.972	0.0023
542.264	0.0017
542.556	0.0023
542.847	0.002
543.139	0.0027
543.431	0.0042
543.722	0.0025
544.013	0.0043
544.305	0.0046
544.596	0.0043
544.887	0.0026
545.178	0.003
545.469	0.0033
545.76	0.0019
546.051	0.0022
546.342	0.0031
546.632	0.0023
546.923	0.0033
547.214	0.0033
547.504	0.0023
547.795	0.0038
548.085	0.0043
548.375	0.0029
548.666	0.0034
548.956	0.0022
549.246	0.0027
549.536	0.0026
549.826	0.0034
550.116	0.0036
550.406	0.0036
550.695	0.0045
550.985	0.003
551.275	0.0045
551.564	0.0028
551.854	0.0033
552.143	0.0034
552.433	0.0033
552.722	0.0036
553.011	0.0024
553.3	0.0045
553.589	0.0025
553.879	0.0019
554.167	0.0035
554.456	0.0028
554.745	0.0023
555.034	0.0033
555.323	0.0018
555.611	0.0024
555.9	0.0028
556.188	0.0024
556.477	0.002
556.765	0.0022
557.053	0.0027
557.342	0.0017
557.63	0.0028
557.918	0.0024
558.206	0.0026
558.494	0.0041
558.782	0.003
559.069	0.004
559.357	0.0043
559.645	0.0025
559.932	0.0031
560.22	0.0041
560.507	0.0033
560.795	0.0027
561.082	0.0026
561.37	0.0025
561.657	0.0028
561.944	0.0034
562.231	0.0038
562.518	0.0022
562.805	0.003
563.092	0.0035
563.379	0.0041
563.665	0.0025
563.952	0.0034
564.239	0.003
564.525	0.0047
564.811	0.0044
565.098	0.0037
565.384	0.0049
565.67	0.0033
565.957	0.0031
566.243	0.0046
566.529	0.0042
566.815	0.0051
567.101	0.0024
567.387	0.0024
567.672	0.0034
567.958	0.0038
568.244	0.0032
568.529	0.0034
568.815	0.0027
569.1	0.0038
569.386	0.0019
569.671	0.0021
569.956	0.0024
570.242	0.0023
570.527	0.003
570.812	0.0028
571.097	0.0031
571.382	0.0027
571.666	0.0021
571.951	0.0028
572.236	0.0028
572.521	0.0022
572.805	0.003
573.09	0.0027
573.374	0.0029
573.659	0.0014
573.943	0.0027
574.227	0.0019
574.511	0.0023
574.795	0.0026
575.079	0.0025
575.363	0.0017
575.647	0.0031
575.931	0.0032
576.215	0.0023
576.499	0.0022
576.782	0.002
577.066	0.0021
577.349	0.0033
577.633	0.0034
577.916	0.0035
578.2	0.0032
578.483	0.0023
578.766	0.0023
579.049	0.0035
579.332	0.0028
579.615	0.0029
579.898	0.0029
580.181	0.003
580.464	0.0028
580.746	0.0026
581.029	0.0032
581.312	0.0025
581.594	0.0025
581.877	0.0022
582.159	0.0026
582.441	0.0027
582.724	0.0018
583.006	0.0024
583.288	0.0013
583.57	0.0019
583.852	0.0016
584.134	0.0022
584.416	0.003
584.697	0.0022
584.979	0.0025
585.261	0.0029
585.542	0.0025
585.824	0.0029
586.105	0.0031
586.387	0.0019
586.668	0.003
586.949	0.0031
587.231	0.002
587.512	0.0033
587.793	0.002
588.074	0.0027
588.355	0.0029
588.636	0.0035
588.916	0.0026
589.197	0.0027
589.478	0.0033
589.758	0.0035
590.039	0.0024
590.319	0.0031
590.6	0.0023
590.88	0.0027
591.16	0.0027
591.441	0.0031
591.721	0.0029
592.001	0.003
592.281	0.003
592.561	0.0036
592.841	0.0032
593.12	0.0029
593.4	0.0018
593.68	0.0031
593.959	0.002
594.239	0.0035
594.518	0.0024
594.798	0.0027
595.077	0.0035
595.356	0.0028
595.636	0.0029
595.915	0.0035
596.194	0.0035
596.473	0.004
596.752	0.003
597.031	0.0026
597.31	0.0022
597.588	0.0028
597.867	0.0019
598.146	0.0028
598.424	0.0021
598.703	0.0023
598.981	0.0021
599.259	0.0023
599.538	0.0025
599.816	0.0029
600.094	0.0021
600.372	0.0031
600.65	0.0026
600.928	0.0035
601.206	0.0032
601.484	0.0028
601.762	0.0034
602.04	0.0029
602.317	0.003
602.595	0.0024
602.872	0.0027
603.15	0.003
603.427	0.002
603.704	0.0019
603.982	0.0021
604.259	0.0017
604.536	0.0018
604.813	0.0015
605.09	0.0025
605.367	0.0025
605.644	0.0023
605.921	0.0021
606.197	0.0022
606.474	0.0021
606.751	0.003
607.027	0.0032
607.304	0.0026
607.58	0.0023
607.856	0.0014
608.133	0.0027
608.409	0.0036
608.685	0.0022
608.961	0.0032
609.237	0.0029
609.513	0.0028
609.789	0.0028
610.065	0.0021
610.341	0.0026
610.616	0.0022
610.892	0.0028
611.167	0.0028
611.443	0.0015
611.718	0.0014
611.994	0.0016
612.269	0.0022
612.544	0.0027
612.819	0.0018
613.095	0.0029
613.37	0.0026
613.645	0.0022
613.919	0.0017
614.194	0.0019
614.469	0.0018
614.744	0.0015
615.019	0.0017
615.293	0.0009
615.568	0.0013
615.842	0.0016
616.116	0.0013
616.391	0.001
616.665	0.0022
616.939	0.0023
617.213	0.0023
617.488	0.0018
617.762	0.0023
618.035	0.0017
618.309	0.0019
618.583	0.0021
618.857	0.002
619.131	0.0031
619.404	0.0018
619.678	0.002
619.951	0.0014
620.225	0.0014
620.498	0.0012
620.771	0.0018
621.045	0.0025
621.318	0.0028
621.591	0.0025
621.864	0.0017
622.137	0.0002
622.41	0.0008
622.683	0.0003
622.956	0.0021
623.228	0.0026
623.501	0.0029
623.774	0.0028
624.046	0.0028
624.319	0.0027
624.591	0.0021
624.863	0.0026
625.136	0.002
625.408	0.0024
625.68	0.0032
625.952	0.0021
626.224	0.0036
626.496	0.0029
626.768	0.0032
627.04	0.0029
627.311	0.0026
627.583	0.0019
627.855	0.0029
628.126	0.0026
628.398	0.0032
628.669	0.0033
628.941	0.0024
629.212	0.0018
629.483	0.0013
629.755	0.0018
630.026	0.0016
630.297	0.0028
630.568	0.0019
630.839	0.0009
631.11	0.0015
631.38	0.0004
631.651	0.0003
631.922	0.0005
632.192	-0.0001
632.463	-0.0003
632.733	0.0007
633.004	0.0002
633.274	-0.0001
633.545	0.0012
633.815	0.003
634.085	0.0023
634.355	0.0013
634.625	0.0041
634.895	0.0012
635.165	0.0009
635.435	0.0009
635.705	0.001
635.974	-0.0001
636.244	0.0026
636.514	0.0019
636.783	0.0015
637.053	0.0028
637.322	0.0013
637.591	0.0028
637.861	0.0017
638.13	0.0026
638.399	0.0017
638.668	0.0024
638.937	0.0006
639.206	0.0018
639.475	0.0026
639.744	0.0023
640.013	0.0035
640.281	0.0038
640.55	0.0037
640.819	0.0032
641.087	0.0038
641.356	0.0023
641.624	0.0025
641.892	0.0028
642.161	0.0037
642.429	0.0039
642.697	0.0026
642.965	0.0039
643.233	0.0039
643.501	0.0038
643.769	0.0023
644.037	0.0021
644.305	0.0028
644.572	0.0016
644.84	0.0014
645.108	0.0027
645.375	0.0013
645.643	0.0016
645.91	0.0007
646.177	0.0025
646.445	0.0041
646.712	0.0048
646.979	0.0049
647.246	0.0047
647.513	0.0046
647.78	0.0039
648.047	0.0042
648.314	0.0032
648.58	0.0028
648.847	0.0017
649.114	0.0023
649.38	0.0018
649.647	0.0018
649.913	0.0017
650.18	0.0019
650.446	0.0022
650.712	0.0027
650.978	0.0034
651.245	0.0039
651.511	0.0032
651.777	0.0022
652.043	0.0035
652.309	0.0034
652.574	0.004
652.84	0.002
653.106	0.001
653.371	0.0006
653.637	0.0009
653.903	0.0025
654.168	0.0026
654.433	0.0034
654.699	0.0034
654.964	0.0041
655.229	0.0034
655.494	0.0034
655.759	0.0024
656.024	0.0008
656.289	-0
656.554	-0.0018
656.819	-0.0005
657.084	0.0021
657.349	0.0036
657.613	0.0033
657.878	0.0036
658.142	0.0031
658.407	0.0032
658.671	0.0026
658.936	0.0018
659.2	0.0011
659.464	0.0022
659.728	0.0021
659.992	0.0022
660.256	0.0024
660.52	0.0019
660.784	0.0022
661.048	0.0015
661.312	0.001
661.575	0.001
661.839	-0.0005
662.103	0
662.366	-0
662.63	0.0005
662.893	0.0013
663.156	0.0011
663.42	-0.0002
663.683	0.0008
663.946	0.0015
664.209	0.003
664.472	0.0022
664.735	0.003
664.998	0.0018
665.261	0.0019
665.524	0.0025
665.786	0.0011
666.049	0.0009
666.312	0.0019
666.574	0.001
666.837	0.0003
667.099	0
667.361	-0.0006
667.624	-0.0003
667.886	0.0008
668.148	0.0009
668.41	0.0025
668.672	0.0006
668.934	0.0008
669.196	0.0013
669.458	0.0017
669.72	0.0021
669.982	0.0024
670.243	0.0019
670.505	0.0015
670.766	0.0016
671.028	0.0025
671.289	0.0022
671.551	0.0016
671.812	0.0006
672.073	0.0008
672.334	0.0003
672.596	0.0006
672.857	0.0001
673.118	0.0008
673.379	-0.0006
673.639	-0.0011
673.9	0.0003
674.161	-0.0006
674.422	-0.0014
674.682	-0.0009
674.943	-0.001
675.203	0.0002
675.464	0.0004
675.724	0.0005
675.985	0.0019
676.245	0.0021
676.505	0.0036
676.765	0.0026
677.025	0.003
677.285	0.0031
677.545	0.0042
677.805	0.0037
678.065	0.0035
678.325	0.0038
678.585	0.0027
678.844	0.0028
679.104	0.002
679.363	0.002
679.623	0.0036
679.882	0.0027
680.142	0.0036
680.401	0.0041
680.66	0.005
680.919	0.0041
681.178	0.0056
681.437	0.0052
681.696	0.0046
681.955	0.0044
682.214	0.0054
682.473	0.0048
682.732	0.0032
682.99	0.0031
683.249	0.0031
683.508	0.0034
683.766	0.0027
684.024	0.0028
684.283	0.0033
684.541	0.0026
684.799	0.0035
685.058	0.0039
685.316	0.0023
685.574	0.0036
685.832	0.0037
686.09	0.0035
686.348	0.0045
686.606	0.0051
686.863	0.0049
687.121	0.0051
687.379	0.0045
687.636	0.0047
687.894	0.0045
688.151	0.0049
688.409	0.0054
688.666	0.0044
688.923	0.005
689.181	0.0034
689.438	0.0035
689.695	0.0036
689.952	0.0011
690.209	0.0019
690.466	0.0013
690.723	0.0028
690.979	0.0027
691.236	0.0025
691.493	0.0019
691.75	0.0025
692.006	0.0042
692.263	0.0049
692.519	0.0047
692.775	0.0029
693.032	0.0023
693.288	0.0041
693.544	0.0032
693.8	0.0029
694.056	0.0033
694.313	0.0038
694.568	0.0031
694.824	0.003
695.08	0.0042
695.336	0.0046
695.592	0.0028
695.847	0.0036
696.103	0.004
696.359	0.004
696.614	0.0033
696.869	0.0026
697.125	0.0011
697.38	0.0004
697.635	0.0004
697.891	0.0008
698.146	0.0013
698.401	0.0036
698.656	0.0014
698.911	0.002
699.166	0.0016
699.42	0.0013
699.675	0.0014
699.93	0.0003
700.185	0.0016
700.439	0.002
700.694	0.0015
700.948	0.002
701.203	0.002
701.457	0.002
701.711	0.0012
701.965	0.0006
702.22	0.0011
702.474	0.001
702.728	0.0005
702.982	0.0001
703.236	0.0005
703.49	0.0009
703.743	0.0006
703.997	0.0014
704.251	0.0018
704.504	0.0019
704.758	0.0015
705.012	0.0015
705.265	0.0012
705.518	0.0013
705.772	0.0009
706.025	0.001
706.278	0.0012
706.531	0.0007
706.785	0.0003
707.038	0.0001
707.291	-0.0002
707.543	0.0004
707.796	-0.0004
708.049	-0.0008
708.302	-0.0009
708.555	-0.0003
708.807	0.0007
709.06	-0.0003
709.312	-0.0016
709.565	-0.0012
709.817	-0.0017
710.069	-0.0015
710.322	-0.0009
710.574	-0.0015
710.826	0.0001
711.078	0.0001
711.33	-0.0004
711.582	-0.0003
711.834	0.0014
712.086	0.0008
712.338	0.0014
712.59	0.0012
712.841	0.0024
713.093	0.0011
713.344	0.0015
713.596	0.0019
713.847	0.0019
714.099	0.0016
714.35	0.0021
714.601	0.0028
714.853	0.0027
715.104	0.0033
715.355	0.0015
715.606	0.0024
715.857	0.0024
716.108	0.0037
716.359	0.003
716.609	0.0039
716.86	0.0022
717.111	0.0013
717.361	0.0001
717.612	0.0002
717.863	0.0007
718.113	0.0002
718.363	0.001
718.614	0.0006
718.864	0.0014
719.114	0.002
719.364	0.0019
719.614	0.0007
719.865	-0.0009
720.114	0.0007
720.364	0.0006
720.614	0.0021
720.864	0.003
721.114	0.0023
721.364	0.003
721.613	0.0031
721.863	0.0035
722.112	0.003
722.362	0.0032
722.611	0.0032
722.86	0.0021
723.11	0.0017
723.359	0.0023
723.608	0.0037
723.857	0.004
724.106	0.0054
724.355	0.0053
724.604	0.0063
724.853	0.0058
725.102	0.0043
725.351	0.0038
725.599	0.0036
725.848	0.0035
726.097	0.0033
726.345	0.0028
726.594	0.0029
726.842	0.003
727.09	0.0023
727.339	0.0024
727.587	0.0022
727.835	0.0006
728.083	-0.0002
728.331	-0
728.579	-0.0016
728.827	-0.0005
729.075	0.0003
729.323	0.0008
729.571	0.0014
729.818	0.0019
730.066	0.0012
730.314	0.0025
730.561	0.0002
730.809	0.0007
731.056	-0.0003
731.303	-0.0013
731.551	0.0001
731.798	0.0005
732.045	-0.0003
732.292	-0.0009
732.539	0.0004
732.786	0.0005
733.033	0.0013
733.28	0.0017
733.527	0.004
733.774	0.0029
734.021	0.0032
734.267	0.0038
734.514	0.0039
734.76	0.0036
735.007	0.0051
735.253	0.0061
735.5	0.0058
735.746	0.0062
735.992	0.0047
736.238	0.0046
736.485	0.0056
736.731	0.005
736.977	0.0049
737.223	0.0041
737.469	0.0046
737.715	0.0052
737.96	0.0071
738.206	0.0067
738.452	0.0074
738.697	0.0078
738.943	0.0066
739.189	0.005
739.434	0.0027
739.679	0.0012
739.925	0.0015
740.17	0.0016
740.415	0.0015
740.66	0.0026
740.906	0.0031
741.151	0.0024
741.396	0.0026
741.641	0.0048
741.886	0.0053
742.13	0.0054
742.375	0.0063
742.62	0.0066
742.865	0.0052
743.109	0.0051
743.354	0.0049
743.598	0.0045
743.843	0.0047
744.087	0.0039
744.331	0.0045
744.576	0.0035
744.82	0.0039
745.064	0.0032
745.308	0.0029
745.552	0.0036
745.796	0.0038
746.04	0.0038
746.284	0.0021
746.528	-0.0001
746.771	0.0006
747.015	0.0018
747.259	0.0017
747.502	0.0013
747.746	0.0025
747.989	0.0027
748.233	0.003
748.476	0.0029
748.719	0.0042
748.963	0.0046
749.206	0.0037
749.449	0.0046
749.692	0.003
749.935	0.0051
750.178	0.0036
750.421	0.003
750.664	0.0038
750.906	0.0046
751.149	0.0039
751.392	0.0034
751.635	0.0014
751.877	0.0006
752.12	-0.0003
752.362	0.0021
752.604	0.0013
752.847	0.002
753.089	0.0032
753.331	0.002
753.573	0.0029
753.816	0.0024
754.058	0.0031
754.3	0.0029
754.542	0.0036
754.783	0.0037
755.025	0.0036
755.267	0.0021
755.509	0.0021
755.75	0.0015
755.992	0.002
756.234	0.0007
756.475	0.0002
756.716	0.0005
756.958	-0.0001
757.199	0.0001
757.44	0.0018
757.682	0.0021
757.923	0.0001
758.164	-0.0002
758.405	0.0001
758.646	0.0007
758.887	0.0003
759.128	0.0009
759.369	0.0004
759.609	0.0006
759.85	-0.0002
760.091	0.0007
760.331	0.0002
760.572	0.0004
760.812	-0.0003
761.053	-0.0006
761.293	0.0001
761.533	0.0004
761.774	0.0003
762.014	0.0004
762.254	0.0013
762.494	-0.0004
762.734	-0.0004
762.974	-0.0001
763.214	-0.0008
763.454	-0.0005
763.694	0.0001
763.933	-0.0007
764.173	0.0004
764.413	0.001
764.652	0.001
764.892	0.0014
765.131	0.0013
765.371	0.0017
765.61	0.0029
765.849	0.0022
766.089	0.0023
766.328	0.003
766.567	0.0035
766.806	0.0038
767.045	0.0039
767.284	0.0031
767.523	0.0034
767.762	0.0035
768.001	0.0031
768.239	0.0032
768.478	0.0022
768.717	0.0019
768.955	0.0027
769.194	0.0012
769.432	0.0024
769.671	0.0029
769.909	0.0019
770.148	0.003
770.386	0.0032
770.624	0.0022
770.862	0.003
771.1	0.0029
771.338	0.0022
771.576	0.0026
771.814	0.0021
772.052	0.0019
772.29	0.0025
772.528	0.0038
772.765	0.0029
773.003	0.0035
773.24	0.0033
773.478	0.0038
773.716	0.0043
773.953	0.0044
774.19	0.0051
774.428	0.0056
774.665	0.0055
774.902	0.0052
775.139	0.0031
775.376	0.0039
775.613	0.0028
775.85	0.0033
776.087	0.0022
776.324	0.0027
776.561	0.0031
776.798	0.0046
777.034	0.0052
777.271	0.0066
777.508	0.0069
777.744	0.0065
777.981	0.0049
778.217	0.0055
778.454	0.0044
778.69	0.0042
778.926	0.0046
779.162	0.0043
779.399	0.0045
779.635	0.0039
779.871	0.0032
780.107	0.0046
780.343	0.0045
780.579	0.0049
780.814	0.0039
781.05	0.0049
781.286	0.004
781.522	0.0036
781.757	0.0043
781.993	0.0045
782.228	0.005
782.464	0.0053
782.699	0.0043
782.934	0.0031
783.17	0.0031
783.405	0.0031
783.64	0.0026
783.875	0.0027
784.11	0.0024
784.345	0.0039
784.58	0.0032
784.815	0.0032
785.05	0.004
785.285	0.0025
785.52	0.0009
785.754	0.0028
785.989	0.002
786.223	0.0006
786.458	0.0004
786.692	0.0003
786.927	-0.0004
787.161	0.0005
787.396	-0
787.63	-0
787.864	-0.0017
788.098	-0.0006
788.332	0.0008
788.566	0.0002
788.8	-0
789.034	-0
789.268	0.0014
789.502	0.0021
789.736	0.0026
789.969	0.0033
790.203	0.0032
790.437	0.0032
790.67	0.0023
790.904	0.0029
791.137	0.0014
791.37	0.0005
791.604	0.0001
791.837	0.0008
792.07	0.0001
792.303	0.001
792.537	0.0004
792.77	0.0006
793.003	-0.0001
793.236	-0.0013
793.469	-0.0014
793.701	-0.0006
793.934	0.0003
794.167	0.0004
794.4	-0.0001
794.632	-0
794.865	-0.0011
795.097	0.0003
795.33	0.0022
795.562	0.0007
795.795	0.0011
796.027	0.0007
796.259	0.0011
796.491	0.0003
796.724	0.0009
796.956	0.0016
797.188	0.0013
797.42	0.001
797.652	0.0011
797.883	0.0002
798.115	-0.0002
798.347	-0.0006
798.579	-0.0015
798.81	-0.002
799.042	-0.0026
799.274	-0.003
799.505	-0.002
799.737	-0.003
799.968	-0.0018
800.199	-0.0009
800.431	-0.0014
800.662	-0.0002
800.893	-0.0003
801.124	0.0003
801.355	0.0008
801.586	0.0012
801.817	0.001
802.048	0.001
802.279	0.0012
802.51	0.0019
802.741	0
802.971	0.0004
803.202	-0.0003
803.433	-0.0007
803.663	-0.0004
803.894	0.0001
804.124	0.0011
804.354	0.0001
804.585	0.0007
804.815	-0.0002
805.045	0.0004
805.275	-0.0003
805.506	0.003
805.736	0.0263
805.966	-0.0734
806.196	0.0563
