Data from 03 0.2 mM BQDS 0.4 mM K2Cr2O7 1 M H2SO4 5 min_Absorbance_00-32-42-363.txt Node
Date: Wed Dec 08 00:32:42 EST 2021
User: kwabilab-user
Spectrometer: HDX00518
Trigger mode: 0
Integration Time (sec): 5.000000E-2
Scans to average: 50
Nonlinearity correction enabled: false
Boxcar width: 0
Storing dark spectrum: false
XAxis mode: Wavelengths
Number of Pixels in Spectrum: 2068
>>>>>Begin Spectral Data<<<<<
195.27	0.1217
195.642	0.1201
196.014	0.083
196.386	0.0547
196.758	0.0311
197.129	0.0222
197.501	0.0584
197.872	0.0941
198.244	0.108
198.615	0.1179
198.986	0.1024
199.357	0.0991
199.728	0.1194
200.099	0.1083
200.47	0.1137
200.841	0.1149
201.212	0.1071
201.582	0.1038
201.953	0.1105
202.323	0.1232
202.694	0.1192
203.064	0.1176
203.434	0.101
203.804	0.1351
204.174	0.1161
204.544	0.1125
204.914	0.1214
205.284	0.1133
205.653	0.1241
206.023	0.1065
206.393	0.1193
206.762	0.1158
207.131	0.1191
207.501	0.1371
207.87	0.1359
208.239	0.1276
208.608	0.1279
208.977	0.1351
209.346	0.1304
209.715	0.1208
210.083	0.1455
210.452	0.1277
210.82	0.1482
211.189	0.1576
211.557	0.1411
211.925	0.1595
212.294	0.1675
212.662	0.1626
213.03	0.167
213.398	0.1617
213.766	0.1886
214.133	0.1835
214.501	0.206
214.869	0.2117
215.236	0.2185
215.604	0.2251
215.971	0.2463
216.338	0.2609
216.705	0.31
217.072	0.3191
217.439	0.3241
217.806	0.3626
218.173	0.3664
218.54	0.422
218.907	0.4389
219.273	0.4828
219.64	0.5181
220.006	0.5524
220.373	0.5794
220.739	0.6266
221.105	0.6586
221.471	0.6854
221.837	0.7323
222.203	0.7624
222.569	0.7919
222.935	0.8313
223.3	0.8512
223.666	0.8907
224.031	0.9054
224.397	0.9197
224.762	0.9331
225.127	0.9607
225.493	0.9765
225.858	0.9802
226.223	0.9955
226.588	0.9957
226.952	1.0027
227.317	1.0162
227.682	1.0034
228.046	1.0096
228.411	1.0072
228.775	1.0029
229.14	0.9967
229.504	0.9939
229.868	0.9849
230.232	0.9852
230.596	0.9765
230.96	0.9699
231.324	0.9566
231.688	0.9492
232.052	0.9415
232.415	0.934
232.779	0.9247
233.142	0.9156
233.505	0.9053
233.869	0.8984
234.232	0.8914
234.595	0.8761
234.958	0.8699
235.321	0.8637
235.684	0.8513
236.047	0.8403
236.409	0.8326
236.772	0.8223
237.134	0.8148
237.497	0.8054
237.859	0.7989
238.222	0.7901
238.584	0.7819
238.946	0.7717
239.308	0.7626
239.67	0.7575
240.032	0.7532
240.393	0.7478
240.755	0.7389
241.117	0.7328
241.478	0.7295
241.84	0.7202
242.201	0.7133
242.562	0.7096
242.924	0.7007
243.285	0.6971
243.646	0.6919
244.007	0.6893
244.368	0.684
244.728	0.6789
245.089	0.6765
245.45	0.6718
245.81	0.6689
246.171	0.6664
246.531	0.6623
246.891	0.6576
247.252	0.6558
247.612	0.6526
247.972	0.6484
248.332	0.6481
248.692	0.6436
249.051	0.6424
249.411	0.6413
249.771	0.6363
250.13	0.6349
250.49	0.6362
250.849	0.632
251.208	0.6327
251.568	0.6288
251.927	0.6286
252.286	0.6268
252.645	0.6269
253.004	0.6242
253.363	0.6232
253.721	0.6217
254.08	0.6207
254.439	0.6186
254.797	0.6176
255.155	0.6167
255.514	0.6163
255.872	0.6165
256.23	0.6149
256.588	0.613
256.946	0.6119
257.304	0.6126
257.662	0.6111
258.02	0.61
258.377	0.6076
258.735	0.6069
259.093	0.6074
259.45	0.608
259.807	0.6045
260.165	0.6031
260.522	0.6025
260.879	0.6017
261.236	0.6001
261.593	0.598
261.95	0.5982
262.306	0.5962
262.663	0.5943
263.02	0.5931
263.376	0.5919
263.733	0.5883
264.089	0.5866
264.445	0.5866
264.802	0.5845
265.158	0.5822
265.514	0.5808
265.87	0.5773
266.226	0.5746
266.581	0.5734
266.937	0.5711
267.293	0.5692
267.648	0.5666
268.004	0.564
268.359	0.5617
268.714	0.5582
269.07	0.557
269.425	0.5526
269.78	0.552
270.135	0.5475
270.49	0.5466
270.844	0.5448
271.199	0.5406
271.554	0.5371
271.908	0.5345
272.263	0.53
272.617	0.5293
272.972	0.5246
273.326	0.5218
273.68	0.5173
274.034	0.5129
274.388	0.5109
274.742	0.5069
275.096	0.5043
275.45	0.5003
275.803	0.4968
276.157	0.4922
276.51	0.4878
276.864	0.4843
277.217	0.4811
277.571	0.4754
277.924	0.4723
278.277	0.4676
278.63	0.465
278.983	0.4598
279.336	0.4563
279.688	0.4513
280.041	0.4476
280.394	0.4437
280.746	0.4395
281.099	0.4343
281.451	0.4301
281.803	0.4254
282.156	0.4222
282.508	0.4173
282.86	0.4131
283.212	0.4091
283.564	0.4053
283.916	0.4008
284.267	0.3967
284.619	0.3923
284.971	0.3889
285.322	0.3834
285.673	0.3796
286.025	0.3772
286.376	0.3713
286.727	0.3668
287.078	0.3636
287.429	0.3604
287.78	0.3546
288.131	0.3507
288.482	0.3463
288.833	0.3441
289.183	0.3381
289.534	0.3342
289.884	0.3313
290.235	0.3265
290.585	0.3218
290.935	0.3185
291.285	0.3141
291.635	0.3114
291.985	0.3063
292.335	0.3036
292.685	0.2985
293.035	0.2952
293.384	0.291
293.734	0.2874
294.083	0.2837
294.433	0.2788
294.782	0.2757
295.131	0.2729
295.48	0.2688
295.829	0.265
296.179	0.2605
296.527	0.258
296.876	0.2549
297.225	0.2521
297.574	0.2468
297.922	0.2448
298.271	0.2412
298.619	0.2372
298.968	0.2348
299.316	0.2316
299.664	0.229
300.012	0.2251
300.36	0.2223
300.708	0.2195
301.056	0.2166
301.404	0.2144
301.752	0.2112
302.099	0.209
302.447	0.2073
302.794	0.2037
303.142	0.202
303.489	0.1995
303.836	0.1973
304.183	0.1958
304.531	0.1936
304.878	0.1913
305.224	0.1888
305.571	0.1872
305.918	0.186
306.265	0.1836
306.611	0.1827
306.958	0.1812
307.304	0.1797
307.651	0.1783
307.997	0.1776
308.343	0.1753
308.689	0.1746
309.035	0.1737
309.381	0.1729
309.727	0.1714
310.073	0.1709
310.419	0.17
310.764	0.1689
311.11	0.1688
311.455	0.1681
311.801	0.1675
312.146	0.1672
312.491	0.1671
312.837	0.1661
313.182	0.1661
313.527	0.1654
313.872	0.1653
314.216	0.1655
314.561	0.1654
314.906	0.1655
315.251	0.1653
315.595	0.1656
315.94	0.1656
316.284	0.166
316.628	0.1654
316.972	0.1659
317.317	0.1659
317.661	0.1671
318.005	0.1668
318.348	0.1673
318.692	0.1679
319.036	0.1678
319.38	0.1684
319.723	0.1698
320.067	0.1696
320.41	0.1707
320.754	0.1711
321.097	0.1724
321.44	0.1733
321.783	0.1735
322.126	0.1749
322.469	0.1761
322.812	0.177
323.155	0.1774
323.498	0.1787
323.84	0.1801
324.183	0.181
324.525	0.1819
324.868	0.1829
325.21	0.1842
325.552	0.186
325.894	0.1869
326.236	0.188
326.578	0.1895
326.92	0.1906
327.262	0.1911
327.604	0.1928
327.946	0.1944
328.287	0.1952
328.629	0.1966
328.97	0.1982
329.312	0.1999
329.653	0.201
329.994	0.202
330.335	0.2034
330.676	0.2052
331.017	0.2059
331.358	0.2072
331.699	0.2095
332.04	0.2106
332.38	0.2116
332.721	0.2141
333.061	0.2142
333.402	0.2156
333.742	0.2181
334.083	0.2193
334.423	0.22
334.763	0.2204
335.103	0.2226
335.443	0.2234
335.783	0.2245
336.123	0.2254
336.462	0.2271
336.802	0.228
337.141	0.2286
337.481	0.2299
337.82	0.2306
338.16	0.2324
338.499	0.2334
338.838	0.234
339.177	0.2361
339.516	0.2363
339.855	0.2381
340.194	0.239
340.533	0.2394
340.872	0.2407
341.21	0.2418
341.549	0.2427
341.887	0.2432
342.226	0.2441
342.564	0.2436
342.902	0.2448
343.24	0.2448
343.578	0.2446
343.916	0.2455
344.254	0.2459
344.592	0.2462
344.93	0.2464
345.268	0.2468
345.605	0.2465
345.943	0.2468
346.28	0.2471
346.618	0.2473
346.955	0.2469
347.292	0.2478
347.629	0.2479
347.966	0.2486
348.303	0.2484
348.64	0.2478
348.977	0.2473
349.314	0.2482
349.65	0.2487
349.987	0.2486
350.324	0.2474
350.66	0.247
350.996	0.2477
351.333	0.2462
351.669	0.2457
352.005	0.2454
352.341	0.2447
352.677	0.2439
353.013	0.2421
353.349	0.242
353.685	0.2405
354.02	0.2391
354.356	0.2388
354.691	0.2375
355.027	0.2368
355.362	0.2351
355.697	0.2346
356.033	0.2337
356.368	0.2321
356.703	0.2318
357.038	0.2314
357.373	0.2295
357.707	0.2292
358.042	0.2281
358.377	0.2275
358.711	0.2262
359.046	0.2253
359.38	0.2238
359.715	0.2227
360.049	0.2217
360.383	0.2206
360.717	0.2193
361.051	0.2171
361.385	0.2163
361.719	0.2144
362.053	0.2132
362.387	0.211
362.72	0.2096
363.054	0.2075
363.387	0.206
363.721	0.2036
364.054	0.2022
364.387	0.2001
364.721	0.1991
365.054	0.1967
365.387	0.1951
365.72	0.1936
366.053	0.192
366.385	0.1897
366.718	0.1889
367.051	0.1869
367.383	0.1859
367.716	0.1841
368.048	0.183
368.381	0.1814
368.713	0.1808
369.045	0.1792
369.377	0.1774
369.709	0.1762
370.041	0.175
370.373	0.1737
370.705	0.1719
371.037	0.1705
371.368	0.168
371.7	0.1674
372.031	0.1654
372.363	0.1632
372.694	0.1617
373.025	0.1598
373.356	0.1574
373.688	0.1554
374.019	0.1533
374.35	0.1513
374.68	0.1491
375.011	0.1476
375.342	0.1458
375.673	0.1439
376.003	0.1417
376.334	0.1396
376.664	0.1378
376.995	0.136
377.325	0.1354
377.655	0.1336
377.985	0.1319
378.315	0.1311
378.645	0.129
378.975	0.1276
379.305	0.1268
379.635	0.1259
379.964	0.1238
380.294	0.1225
380.623	0.1208
380.953	0.1206
381.282	0.1185
381.611	0.1168
381.941	0.1164
382.27	0.1148
382.599	0.113
382.928	0.1117
383.257	0.11
383.585	0.1093
383.914	0.1072
384.243	0.1054
384.571	0.1036
384.9	0.1024
385.228	0.1007
385.557	0.0994
385.885	0.0973
386.213	0.0961
386.541	0.0941
386.869	0.0926
387.197	0.0905
387.525	0.0893
387.853	0.0876
388.181	0.0873
388.508	0.0859
388.836	0.0848
389.164	0.0838
389.491	0.0824
389.818	0.0803
390.146	0.0796
390.473	0.0773
390.8	0.0772
391.127	0.0762
391.454	0.0753
391.781	0.0743
392.108	0.0728
392.435	0.0712
392.761	0.0706
393.088	0.0702
393.415	0.0692
393.741	0.0694
394.067	0.0672
394.394	0.0672
394.72	0.0661
395.046	0.0651
395.372	0.0635
395.698	0.0626
396.024	0.0628
396.35	0.0612
396.676	0.0607
397.001	0.0599
397.327	0.0585
397.653	0.0578
397.978	0.0571
398.303	0.0557
398.629	0.0551
398.954	0.0554
399.279	0.0545
399.604	0.0535
399.929	0.0528
400.254	0.0521
400.579	0.052
400.904	0.051
401.229	0.0504
401.553	0.0488
401.878	0.0486
402.202	0.0487
402.527	0.048
402.851	0.0478
403.175	0.0466
403.5	0.0469
403.824	0.0467
404.148	0.0458
404.472	0.0458
404.796	0.0446
405.119	0.0446
405.443	0.0439
405.767	0.0441
406.09	0.0432
406.414	0.0438
406.737	0.043
407.061	0.0433
407.384	0.0429
407.707	0.0427
408.03	0.043
408.353	0.043
408.676	0.0425
408.999	0.0422
409.322	0.0421
409.645	0.0424
409.968	0.0413
410.29	0.0417
410.613	0.0413
410.935	0.0411
411.258	0.0424
411.58	0.0413
411.902	0.0416
412.224	0.0412
412.546	0.041
412.868	0.0411
413.19	0.0411
413.512	0.041
413.834	0.0408
414.156	0.0415
414.477	0.0408
414.799	0.0406
415.121	0.0415
415.442	0.0414
415.763	0.0412
416.085	0.0411
416.406	0.0414
416.727	0.0414
417.048	0.0413
417.369	0.0414
417.69	0.0412
418.011	0.0413
418.331	0.0411
418.652	0.0412
418.973	0.0418
419.293	0.0413
419.614	0.0416
419.934	0.0414
420.254	0.042
420.574	0.0411
420.895	0.0409
421.215	0.041
421.535	0.0402
421.855	0.0413
422.174	0.041
422.494	0.0416
422.814	0.0421
423.134	0.0417
423.453	0.0415
423.773	0.0421
424.092	0.041
424.411	0.0406
424.731	0.0419
425.05	0.0418
425.369	0.0419
425.688	0.0422
426.007	0.0417
426.326	0.0424
426.644	0.0429
426.963	0.0426
427.282	0.0428
427.6	0.0426
427.919	0.0425
428.237	0.0428
428.556	0.0432
428.874	0.0424
429.192	0.0422
429.51	0.0425
429.828	0.0426
430.146	0.0428
430.464	0.043
430.782	0.0426
431.1	0.0429
431.418	0.0427
431.735	0.0428
432.053	0.0431
432.37	0.0429
432.688	0.0432
433.005	0.0431
433.322	0.043
433.639	0.0422
433.957	0.0436
434.274	0.0436
434.591	0.0433
434.907	0.044
435.224	0.0431
435.541	0.0435
435.858	0.0438
436.174	0.0438
436.491	0.0437
436.807	0.0434
437.124	0.0427
437.44	0.043
437.756	0.043
438.072	0.0426
438.388	0.0439
438.704	0.0433
439.02	0.0434
439.336	0.0429
439.652	0.0431
439.968	0.0432
440.283	0.0432
440.599	0.043
440.914	0.0434
441.23	0.043
441.545	0.043
441.86	0.043
442.175	0.0439
442.491	0.0429
442.806	0.0425
443.121	0.0427
443.435	0.0424
443.75	0.0428
444.065	0.0428
444.38	0.0427
444.694	0.0427
445.009	0.0426
445.323	0.0428
445.638	0.0428
445.952	0.0432
446.266	0.0417
446.58	0.0428
446.894	0.043
447.208	0.0431
447.522	0.0431
447.836	0.0417
448.15	0.0413
448.464	0.0417
448.777	0.0415
449.091	0.0414
449.404	0.0423
449.718	0.0416
450.031	0.0414
450.345	0.041
450.658	0.0412
450.971	0.0409
451.284	0.0406
451.597	0.0403
451.91	0.0418
452.223	0.0412
452.535	0.0412
452.848	0.0415
453.161	0.0409
453.473	0.0411
453.786	0.0414
454.098	0.0405
454.411	0.0405
454.723	0.0402
455.035	0.0402
455.347	0.0406
455.659	0.04
455.971	0.0403
456.283	0.0404
456.595	0.0396
456.907	0.04
457.218	0.0397
457.53	0.0393
457.841	0.0388
458.153	0.0391
458.464	0.0389
458.776	0.0379
459.087	0.0383
459.398	0.0384
459.709	0.0382
460.02	0.0382
460.331	0.0375
460.642	0.0371
460.953	0.0373
461.263	0.0375
461.574	0.0373
461.885	0.0372
462.195	0.0369
462.506	0.037
462.816	0.0368
463.126	0.036
463.437	0.036
463.747	0.0357
464.057	0.0356
464.367	0.0355
464.677	0.0357
464.987	0.0364
465.296	0.0349
465.606	0.0345
465.916	0.0349
466.225	0.034
466.535	0.0336
466.844	0.0329
467.154	0.0332
467.463	0.0331
467.772	0.0339
468.081	0.0326
468.39	0.0328
468.699	0.0328
469.008	0.0326
469.317	0.0322
469.626	0.0324
469.935	0.0326
470.243	0.0325
470.552	0.0326
470.86	0.032
471.169	0.0318
471.477	0.0318
471.785	0.032
472.093	0.0317
472.402	0.0311
472.71	0.0306
473.018	0.0312
473.326	0.0299
473.633	0.0302
473.941	0.0304
474.249	0.0296
474.556	0.0295
474.864	0.0288
475.171	0.0287
475.479	0.0294
475.786	0.0293
476.094	0.0296
476.401	0.0284
476.708	0.0274
477.015	0.0291
477.322	0.028
477.629	0.0282
477.936	0.0269
478.242	0.0272
478.549	0.0271
478.856	0.0268
479.162	0.0275
479.469	0.0264
479.775	0.0266
480.081	0.0258
480.388	0.0261
480.694	0.0251
481	0.0254
481.306	0.0255
481.612	0.0254
481.918	0.0245
482.224	0.0243
482.53	0.0244
482.835	0.0244
483.141	0.0231
483.446	0.0236
483.752	0.0233
484.057	0.0223
484.363	0.0219
484.668	0.0223
484.973	0.0214
485.278	0.0212
485.583	0.0211
485.888	0.0209
486.193	0.0212
486.498	0.021
486.803	0.0217
487.107	0.0219
487.412	0.0206
487.717	0.0207
488.021	0.021
488.325	0.0199
488.63	0.0199
488.934	0.0197
489.238	0.0208
489.542	0.0204
489.846	0.018
490.15	0.0198
490.454	0.0194
490.758	0.0197
491.062	0.0187
491.366	0.0176
491.669	0.0184
491.973	0.0183
492.276	0.0186
492.58	0.0163
492.883	0.0184
493.186	0.0183
493.489	0.0175
493.792	0.0172
494.096	0.0174
494.399	0.0175
494.701	0.0171
495.004	0.0169
495.307	0.0163
495.61	0.0154
495.912	0.0152
496.215	0.0155
496.517	0.0155
496.82	0.0148
497.122	0.0157
497.424	0.0148
497.727	0.0144
498.029	0.015
498.331	0.0149
498.633	0.0149
498.935	0.0142
499.237	0.0146
499.538	0.0136
499.84	0.0139
500.142	0.0149
500.443	0.0132
500.745	0.0135
501.046	0.0135
501.348	0.0126
501.649	0.0132
501.95	0.0126
502.251	0.0134
502.552	0.0114
502.853	0.012
503.154	0.0118
503.455	0.0115
503.756	0.013
504.057	0.0123
504.357	0.0114
504.658	0.0106
504.958	0.0116
505.259	0.0127
505.559	0.0118
505.859	0.0114
506.16	0.0107
506.46	0.011
506.76	0.0111
507.06	0.0101
507.36	0.011
507.66	0.0117
507.96	0.0099
508.259	0.0098
508.559	0.0091
508.859	0.0103
509.158	0.0099
509.457	0.0097
509.757	0.0099
510.056	0.0092
510.355	0.0088
510.655	0.0081
510.954	0.0094
511.253	0.01
511.552	0.0098
511.851	0.0079
512.149	0.0082
512.448	0.0082
512.747	0.0082
513.045	0.0076
513.344	0.0092
513.642	0.0093
513.941	0.0077
514.239	0.0084
514.537	0.0081
514.836	0.0081
515.134	0.0073
515.432	0.0076
515.73	0.008
516.028	0.008
516.326	0.0076
516.623	0.0071
516.921	0.0076
517.219	0.0083
517.516	0.0077
517.814	0.0069
518.111	0.0079
518.409	0.0086
518.706	0.0075
519.003	0.0076
519.3	0.006
519.597	0.0063
519.894	0.0064
520.191	0.0081
520.488	0.0069
520.785	0.0055
521.082	0.0061
521.378	0.0068
521.675	0.004
521.971	0.0062
522.268	0.0054
522.564	0.0062
522.861	0.0062
523.157	0.0042
523.453	0.0064
523.749	0.0061
524.045	0.0065
524.341	0.0053
524.637	0.0051
524.933	0.0051
525.229	0.0058
525.524	0.0037
525.82	0.0065
526.115	0.0039
526.411	0.0051
526.706	0.0052
527.002	0.0062
527.297	0.0038
527.592	0.0058
527.887	0.0063
528.182	0.0049
528.477	0.0065
528.772	0.0043
529.067	0.0048
529.362	0.0056
529.657	0.005
529.951	0.0048
530.246	0.0041
530.54	0.0029
530.835	0.0034
531.129	0.0039
531.423	0.0053
531.718	0.0035
532.012	0.0043
532.306	0.004
532.6	0.0041
532.894	0.0037
533.188	0.0045
533.482	0.0041
533.775	0.0053
534.069	0.0035
534.363	0.0028
534.656	0.0029
534.95	0.0026
535.243	0.0032
535.536	0.0035
535.83	0.0039
536.123	0.0027
536.416	0.0038
536.709	0.0029
537.002	0.0042
537.295	0.0032
537.588	0.0039
537.881	0.0031
538.173	0.0029
538.466	0.003
538.759	0.0026
539.051	0.0019
539.344	0.0025
539.636	0.003
539.928	0.0029
540.22	0.003
540.513	0.0031
540.805	0.0034
541.097	0.0036
541.389	0.0027
541.681	0.0031
541.972	0.0032
542.264	0.0025
542.556	0.0034
542.847	0.004
543.139	0.0031
543.431	0.0046
543.722	0.0029
544.013	0.0049
544.305	0.005
544.596	0.0052
544.887	0.0038
545.178	0.0037
545.469	0.0036
545.76	0.003
546.051	0.0032
546.342	0.0054
546.632	0.0027
546.923	0.0029
547.214	0.0024
547.504	0.0036
547.795	0.0038
548.085	0.0035
548.375	0.0031
548.666	0.0037
548.956	0.0025
549.246	0.0034
549.536	0.0021
549.826	0.0032
550.116	0.0036
550.406	0.0034
550.695	0.0039
550.985	0.0034
551.275	0.0043
551.564	0.0031
551.854	0.0033
552.143	0.0037
552.433	0.0032
552.722	0.0035
553.011	0.0035
553.3	0.0042
553.589	0.0033
553.879	0.0038
554.167	0.0035
554.456	0.0035
554.745	0.0024
555.034	0.0021
555.323	0.0021
555.611	0.0033
555.9	0.0037
556.188	0.0032
556.477	0.0032
556.765	0.0027
557.053	0.0032
557.342	0.0019
557.63	0.0038
557.918	0.0023
558.206	0.0024
558.494	0.0035
558.782	0.0029
559.069	0.0031
559.357	0.0033
559.645	0.0028
559.932	0.003
560.22	0.004
560.507	0.0029
560.795	0.0032
561.082	0.0025
561.37	0.0034
561.657	0.0028
561.944	0.003
562.231	0.0032
562.518	0.0016
562.805	0.0027
563.092	0.0044
563.379	0.003
563.665	0.0029
563.952	0.0036
564.239	0.0045
564.525	0.0037
564.811	0.0039
565.098	0.0029
565.384	0.0042
565.67	0.0029
565.957	0.004
566.243	0.0029
566.529	0.0034
566.815	0.0044
567.101	0.0033
567.387	0.0021
567.672	0.003
567.958	0.0035
568.244	0.0031
568.529	0.0038
568.815	0.0031
569.1	0.0032
569.386	0.0025
569.671	0.0035
569.956	0.0029
570.242	0.0038
570.527	0.0036
570.812	0.0028
571.097	0.004
571.382	0.0026
571.666	0.0031
571.951	0.0027
572.236	0.0042
572.521	0.0026
572.805	0.0034
573.09	0.0026
573.374	0.0028
573.659	0.0029
573.943	0.0032
574.227	0.003
574.511	0.0038
574.795	0.0031
575.079	0.0029
575.363	0.0033
575.647	0.0039
575.931	0.0039
576.215	0.0031
576.499	0.0027
576.782	0.0031
577.066	0.0028
577.349	0.0031
577.633	0.0038
577.916	0.0036
578.2	0.0042
578.483	0.0035
578.766	0.0032
579.049	0.0038
579.332	0.0037
579.615	0.0032
579.898	0.0032
580.181	0.0031
580.464	0.0034
580.746	0.0018
581.029	0.0027
581.312	0.0021
581.594	0.0028
581.877	0.0035
582.159	0.0037
582.441	0.0033
582.724	0.0031
583.006	0.0024
583.288	0.0021
583.57	0.0025
583.852	0.0025
584.134	0.002
584.416	0.0027
584.697	0.0026
584.979	0.0022
585.261	0.0032
585.542	0.0027
585.824	0.0033
586.105	0.0034
586.387	0.0025
586.668	0.0026
586.949	0.0031
587.231	0.0025
587.512	0.0023
587.793	0.0029
588.074	0.0032
588.355	0.0032
588.636	0.0033
588.916	0.0043
589.197	0.0032
589.478	0.0034
589.758	0.0029
590.039	0.0029
590.319	0.0027
590.6	0.0029
590.88	0.0019
591.16	0.0028
591.441	0.0029
591.721	0.0031
592.001	0.0026
592.281	0.0029
592.561	0.0031
592.841	0.0028
593.12	0.0029
593.4	0.0034
593.68	0.0034
593.959	0.0026
594.239	0.0041
594.518	0.0022
594.798	0.0025
595.077	0.0031
595.356	0.003
595.636	0.0032
595.915	0.003
596.194	0.0034
596.473	0.0035
596.752	0.0023
597.031	0.0011
597.31	0.0017
597.588	0.0022
597.867	0.0024
598.146	0.0021
598.424	0.0027
598.703	0.0028
598.981	0.0018
599.259	0.0032
599.538	0.0033
599.816	0.0039
600.094	0.0028
600.372	0.003
600.65	0.0038
600.928	0.0034
601.206	0.0036
601.484	0.0029
601.762	0.003
602.04	0.0032
602.317	0.0036
602.595	0.0024
602.872	0.0032
603.15	0.0022
603.427	0.0019
603.704	0.0019
603.982	0.0026
604.259	0.0017
604.536	0.0018
604.813	0.0022
605.09	0.0026
605.367	0.0018
605.644	0.0024
605.921	0.0021
606.197	0.0026
606.474	0.0026
606.751	0.0023
607.027	0.003
607.304	0.0021
607.58	0.002
607.856	0.0019
608.133	0.0029
608.409	0.0026
608.685	0.0027
608.961	0.0028
609.237	0.0028
609.513	0.0024
609.789	0.0024
610.065	0.0017
610.341	0.0025
610.616	0.0029
610.892	0.003
611.167	0.0036
611.443	0.003
611.718	0.0022
611.994	0.0028
612.269	0.0033
612.544	0.0023
612.819	0.0029
613.095	0.0032
613.37	0.0027
613.645	0.0022
613.919	0.0017
614.194	0.002
614.469	0.0021
614.744	0.0017
615.019	0.0012
615.293	0.0007
615.568	0.0015
615.842	0.0008
616.116	0.0012
616.391	0.0008
616.665	0.0022
616.939	0.0011
617.213	0.0015
617.488	0.0017
617.762	0.0014
618.035	0.0012
618.309	0.0013
618.583	0.0017
618.857	0.0014
619.131	0.0024
619.404	0.0011
619.678	0.0009
619.951	0.0006
620.225	0.001
620.498	0.0016
620.771	0.0016
621.045	0.0024
621.318	0.0016
621.591	0.0021
621.864	0.0017
622.137	0.0011
622.41	0.0017
622.683	0.0009
622.956	0.0021
623.228	0.0017
623.501	0.0027
623.774	0.0023
624.046	0.0018
624.319	0.0016
624.591	0.0001
624.863	0.0021
625.136	0.0012
625.408	0.001
625.68	0.0019
625.952	0.002
626.224	0.0019
626.496	0.0009
626.768	0.0002
627.04	0.0012
627.311	0.0013
627.583	0.0014
627.855	0.0018
628.126	0.0016
628.398	0.0025
628.669	0.0013
628.941	0.0008
629.212	0.0013
629.483	0.0012
629.755	0.0007
630.026	-0.0002
630.297	-0
630.568	0.0001
630.839	-0.0005
631.11	0.0001
631.38	-0.0007
631.651	0.0009
631.922	-0.001
632.192	-0.0001
632.463	-0.0004
632.733	0.0002
633.004	0.0009
633.274	-0.0006
633.545	0.002
633.815	0.0028
634.085	0.0029
634.355	0.0006
634.625	0.003
634.895	0.0012
635.165	-0.0001
635.435	0.0014
635.705	0.0016
635.974	0
636.244	0.0016
636.514	0.002
636.783	0.0012
637.053	0.0021
637.322	0.0017
637.591	0.002
637.861	0.0013
638.13	0.0021
638.399	0.0016
638.668	0.0021
638.937	0.0003
639.206	0.001
639.475	0.0008
639.744	0.0011
640.013	0.0018
640.281	0.0024
640.55	0.0028
640.819	0.0021
641.087	0.003
641.356	0.0016
641.624	0.0005
641.892	0.0013
642.161	0.0026
642.429	0.002
642.697	0.0013
642.965	0.003
643.233	0.0024
643.501	0.0009
643.769	0.001
644.037	0.0013
644.305	0.0005
644.572	-0.0002
644.84	0.0002
645.108	0.0001
645.375	-0.0007
645.643	-0
645.91	0.0001
646.177	0.0023
646.445	0.0035
646.712	0.0041
646.979	0.0035
647.246	0.0021
647.513	0.0035
647.78	0.0034
648.047	0.0034
648.314	0.0026
648.58	0.0032
648.847	0.0016
649.114	-0.0007
649.38	0.0004
649.647	0.0003
649.913	0.0008
650.18	0.0008
650.446	0.0007
650.712	0.0012
650.978	0.0009
651.245	0.0025
651.511	0.0021
651.777	0.0015
652.043	0.0024
652.309	0.0022
652.574	0.0028
652.84	0.0019
653.106	0.0009
653.371	0.0004
653.637	0.0014
653.903	0.0025
654.168	0.0017
654.433	0.0023
654.699	0.0031
654.964	0.0029
655.229	0.0025
655.494	0.0019
655.759	0.0002
656.024	0.0003
656.289	-0
656.554	0.0007
656.819	0.0011
657.084	0.0019
657.349	0.0031
657.613	0.0028
657.878	0.0026
658.142	0.0037
658.407	0.0021
658.671	0.0022
658.936	0.001
659.2	0.0007
659.464	0.0011
659.728	0.0012
659.992	0.0017
660.256	-0.0004
660.52	-0.0005
660.784	-0.0006
661.048	-0.0015
661.312	-0.0009
661.575	-0.0008
661.839	-0.0022
662.103	-0.0022
662.366	-0.002
662.63	-0.0013
662.893	-0.0008
663.156	-0.0004
663.42	-0.0005
663.683	-0.0005
663.946	0.0007
664.209	0.0031
664.472	0.0021
664.735	0.0021
664.998	0.0016
665.261	0.0006
665.524	0.0008
665.786	0.0006
666.049	-0.0004
666.312	0.0007
666.574	0.0012
666.837	0.0003
667.099	-0.0005
667.361	-0.0004
667.624	-0.0007
667.886	-0.0008
668.148	-0.0002
668.41	0.0018
668.672	0.0001
668.934	0.0003
669.196	0.0007
669.458	0.001
669.72	0.0015
669.982	0.0011
670.243	0.0027
670.505	0.0025
670.766	0.0016
671.028	0.0018
671.289	0.001
671.551	0.0003
671.812	-0.0003
672.073	0.0012
672.334	-0.0001
672.596	0.001
672.857	0.0004
673.118	-0.0001
673.379	-0.0009
673.639	-0.0012
673.9	-0.0017
674.161	-0.0021
674.422	-0.0028
674.682	-0.0026
674.943	-0.0031
675.203	-0.0008
675.464	-0.0013
675.724	-0
675.985	-0.0001
676.245	0.001
676.505	0.0012
676.765	0.0011
677.025	0.0015
677.285	0.0011
677.545	0.0021
677.805	0.0023
678.065	0.0024
678.325	0.0026
678.585	0.0021
678.844	0.0013
679.104	0.0013
679.363	0.0018
679.623	0.0026
679.882	0.0029
680.142	0.0031
680.401	0.0025
680.66	0.004
680.919	0.0033
681.178	0.0039
681.437	0.0037
681.696	0.0025
681.955	0.0037
682.214	0.0038
682.473	0.0038
682.732	0.0034
682.99	0.0017
683.249	0.0024
683.508	0.0023
683.766	0.0024
684.024	0.0031
684.283	0.0033
684.541	0.0028
684.799	0.0036
685.058	0.0024
685.316	0.0024
685.574	0.0027
685.832	0.0027
686.09	0.0026
686.348	0.003
686.606	0.0027
686.863	0.0028
687.121	0.004
687.379	0.0027
687.636	0.0027
687.894	0.0037
688.151	0.0041
688.409	0.0043
688.666	0.0032
688.923	0.004
689.181	0.0027
689.438	0.0014
689.695	0.0013
689.952	0.0008
690.209	0.0014
690.466	0.0014
690.723	0.0031
690.979	0.0026
691.236	0.0017
691.493	0.0017
691.75	0.0029
692.006	0.0021
692.263	0.0028
692.519	0.0021
692.775	0.0009
693.032	-0.0004
693.288	0.0009
693.544	0.0015
693.8	0.0012
694.056	0.0017
694.313	0.0016
694.568	0.0013
694.824	0.0021
695.08	0.0026
695.336	0.0027
695.592	0.0018
695.847	0.0029
696.103	0.0023
696.359	0.0022
696.614	0.0018
696.869	0.0012
697.125	0.0007
697.38	0.0007
697.635	-0.0001
697.891	-0.0001
698.146	0.0006
698.401	0.0017
698.656	0.0015
698.911	0.0021
699.166	0.0014
699.42	0.0014
699.675	0.0015
699.93	0.0008
700.185	0.001
700.439	0.0025
700.694	0.002
700.948	0.0021
701.203	0.0028
701.457	0.0014
701.711	0.0008
701.965	-0.0003
702.22	-0.0002
702.474	-0.0005
702.728	-0.0013
702.982	-0.0005
703.236	-0.0012
703.49	-0
703.743	-0.001
703.997	-0.0006
704.251	0.0002
704.504	0.0004
704.758	0.0001
705.012	-0.0005
705.265	-0.0002
705.518	-0.0003
705.772	-0.0012
706.025	-0.001
706.278	-0.0004
706.531	-0.0015
706.785	-0.002
707.038	-0.0004
707.291	-0.0001
707.543	-0.0003
707.796	0.0005
708.049	-0.0007
708.302	-0.001
708.555	-0.0003
708.807	0.0002
709.06	-0.001
709.312	-0.0015
709.565	-0.0012
709.817	-0.0024
710.069	-0.0013
710.322	-0.0011
710.574	-0.0004
710.826	-0.0005
711.078	0.0007
711.33	0.0001
711.582	-0.0006
711.834	0.0007
712.086	0.0013
712.338	0.0024
712.59	0.0024
712.841	0.0017
713.093	0.0016
713.344	0.001
713.596	0.0014
713.847	0.0022
714.099	0.0022
714.35	0.0027
714.601	0.0025
714.853	0.004
715.104	0.0028
715.355	0.0018
715.606	0.0018
715.857	0.0019
716.108	0.0027
716.359	0.002
716.609	0.0029
716.86	0.0014
717.111	0.001
717.361	-0.0001
717.612	0.0006
717.863	-0.0005
718.113	-0.0002
718.363	0.0008
718.614	0.0001
718.864	0.001
719.114	0.0004
719.364	-0.0001
719.614	-0.0003
719.865	-0.0019
720.114	-0.0004
720.364	-0.0008
720.614	0.0014
720.864	0.0018
721.114	0.0015
721.364	0.0027
721.613	0.0031
721.863	0.0034
722.112	0.003
722.362	0.0028
722.611	0.0026
722.86	0.0012
723.11	0.0006
723.359	0.0008
723.608	0.0017
723.857	0.0022
724.106	0.004
724.355	0.0045
724.604	0.0043
724.853	0.0037
725.102	0.003
725.351	0.0019
725.599	0.0017
725.848	0.0023
726.097	0.0011
726.345	0.0018
726.594	0.0009
726.842	0.0004
727.09	0.0006
727.339	-0.0003
727.587	0.0001
727.835	-0.001
728.083	-0.0008
728.331	-0.0011
728.579	-0.0018
728.827	-0.0004
729.075	0.0001
729.323	0.0013
729.571	0.0016
729.818	0.0016
730.066	0.0019
730.314	0.0027
730.561	0.0007
730.809	0.0001
731.056	-0.0002
731.303	0.0003
731.551	0.0003
731.798	-0.0003
732.045	0.0007
732.292	0.0006
732.539	0.0002
732.786	0.0009
733.033	0.0018
733.28	0.0023
733.527	0.0035
733.774	0.002
734.021	0.0028
734.267	0.0037
734.514	0.003
734.76	0.0032
735.007	0.0043
735.253	0.0044
735.5	0.004
735.746	0.0051
735.992	0.0044
736.238	0.0042
736.485	0.0055
736.731	0.0052
736.977	0.0042
737.223	0.0038
737.469	0.0049
737.715	0.0047
737.96	0.006
738.206	0.0056
738.452	0.0073
738.697	0.0071
738.943	0.0068
739.189	0.0051
739.434	0.0029
739.679	0.0029
739.925	0.0026
740.17	0.0016
740.415	0.0017
740.66	0.0027
740.906	0.0028
741.151	0.0028
741.396	0.0026
741.641	0.0049
741.886	0.0051
742.13	0.0052
742.375	0.0059
742.62	0.0059
742.865	0.0048
743.109	0.0039
743.354	0.005
743.598	0.0039
743.843	0.0044
744.087	0.0045
744.331	0.005
744.576	0.0045
744.82	0.0049
745.064	0.004
745.308	0.0025
745.552	0.0031
745.796	0.0023
746.04	0.002
746.284	0.0019
746.528	-0
746.771	0.0004
747.015	0.0011
747.259	0.0007
747.502	0.0001
747.746	0.0014
747.989	0.0019
748.233	0.0024
748.476	0.0028
748.719	0.0037
748.963	0.0041
749.206	0.004
749.449	0.0038
749.692	0.003
749.935	0.0044
750.178	0.0037
750.421	0.0038
750.664	0.0043
750.906	0.0038
751.149	0.0023
751.392	0.0015
751.635	0.0006
751.877	-0.0007
752.12	-0.001
752.362	-0
752.604	-0.0002
752.847	0.0002
753.089	0.0007
753.331	0.0011
753.573	0.0013
753.816	0.0021
754.058	0.0036
754.3	0.0033
754.542	0.0035
754.783	0.0033
755.025	0.0024
755.267	0.0014
755.509	0.0005
755.75	0.0007
755.992	0.0024
756.234	0.0006
756.475	-0.0005
756.716	-0.0002
756.958	-0.0006
757.199	0.0004
757.44	0.0015
757.682	0.0006
757.923	0.0002
758.164	0.0003
758.405	-0.0002
758.646	0.0002
758.887	0.0002
759.128	0.0004
759.369	-0.0009
759.609	-0.0009
759.85	-0.0007
760.091	0.0003
760.331	-0.0006
760.572	-0.0009
760.812	-0.001
761.053	-0.001
761.293	0.0009
761.533	0.0013
761.774	0.0005
762.014	-0.0001
762.254	0.0006
762.494	0.0004
762.734	-0.0002
762.974	0.0004
763.214	-0.0004
763.454	-0.0007
763.694	-0.0005
763.933	-0.0011
764.173	0.0001
764.413	-0.0002
764.652	0.0001
764.892	0.0003
765.131	0.0011
765.371	0.0007
765.61	0.0017
765.849	0.0004
766.089	0.0017
766.328	0.0016
766.567	0.0017
766.806	0.003
767.045	0.002
767.284	0.0028
767.523	0.0035
767.762	0.0035
768.001	0.0029
768.239	0.0028
768.478	0.0013
768.717	0.0023
768.955	0.0026
769.194	0.0019
769.432	0.0021
769.671	0.0024
769.909	0.0022
770.148	0.0032
770.386	0.0024
770.624	0.0021
770.862	0.0023
771.1	0.0019
771.338	0.0021
771.576	0.0022
771.814	0.0025
772.052	0.0015
772.29	0.0023
772.528	0.0034
772.765	0.0024
773.003	0.0032
773.24	0.0028
773.478	0.0019
773.716	0.0024
773.953	0.0028
774.19	0.003
774.428	0.0019
774.665	0.0027
774.902	0.0023
775.139	0.0014
775.376	0.0023
775.613	0.0017
775.85	0.0023
776.087	0.0019
776.324	0.0016
776.561	0.0034
776.798	0.0044
777.034	0.0049
777.271	0.0053
777.508	0.0064
777.744	0.0059
777.981	0.0053
778.217	0.0052
778.454	0.0045
778.69	0.0036
778.926	0.0045
779.162	0.0043
779.399	0.0037
779.635	0.0033
779.871	0.0031
780.107	0.0047
780.343	0.0042
780.579	0.0055
780.814	0.0044
781.05	0.0041
781.286	0.0043
781.522	0.0042
781.757	0.0056
781.993	0.0058
782.228	0.0054
782.464	0.0055
782.699	0.0045
782.934	0.0035
783.17	0.0043
783.405	0.0035
783.64	0.0033
783.875	0.0034
784.11	0.0038
784.345	0.0043
784.58	0.0038
784.815	0.0039
785.05	0.0043
785.285	0.0029
785.52	0.0016
785.754	0.0026
785.989	0.0014
786.223	0.0017
786.458	0.0018
786.692	0.0018
786.927	0.0011
787.161	0.0017
787.396	0.0012
787.63	0.0003
787.864	-0.0002
788.098	0.001
788.332	0.0012
788.566	0.001
788.8	-0.0002
789.034	0.001
789.268	0.0017
789.502	0.0019
789.736	0.0016
789.969	0.0024
790.203	0.0023
790.437	0.0014
790.67	0.001
790.904	0.0019
791.137	0.0008
791.37	-0.0004
791.604	-0.0005
791.837	-0.0003
792.07	-0.0002
792.303	0.0005
792.537	-0.0006
792.77	0.0004
793.003	0
793.236	-0.0003
793.469	-0.0013
793.701	-0.0003
793.934	0.0001
794.167	0.0001
794.4	-0.0005
794.632	0.0011
794.865	-0.0001
795.097	0.0007
795.33	0.0016
795.562	0
795.795	0.0013
796.027	0.0012
796.259	0.0012
796.491	0.0007
796.724	-0.0003
796.956	0.0011
797.188	0.0013
797.42	0.0003
797.652	0.0009
797.883	0.0005
798.115	0.0003
798.347	-0.0006
798.579	-0.0016
798.81	-0.0018
799.042	-0.0018
799.274	-0.0024
799.505	-0.0028
799.737	-0.0025
799.968	-0.0018
800.199	-0.0012
800.431	-0.0021
800.662	-0.0002
800.893	-0.0009
801.124	-0.0003
801.355	-0.0003
801.586	-0.0001
801.817	0.0005
802.048	0.0003
802.279	-0.0007
802.51	0
802.741	-0.0016
802.971	-0.001
803.202	-0.0024
803.433	-0.0022
803.663	-0.0021
803.894	-0.001
804.124	0
804.354	-0.0004
804.585	-0.0001
804.815	-0.0011
805.045	-0.0011
805.275	-0.0011
805.506	-0.0704
805.736	0.0585
805.966	0.0072
806.196	0.0455
