Data from 03 0.2 mM BQDS 0.4 mM K2Cr2O7 1 M H2SO4 5 min_Absorbance_04-37-42-625.txt Node
Date: Wed Dec 08 04:37:42 EST 2021
User: kwabilab-user
Spectrometer: HDX00518
Trigger mode: 0
Integration Time (sec): 5.000000E-2
Scans to average: 50
Nonlinearity correction enabled: false
Boxcar width: 0
Storing dark spectrum: false
XAxis mode: Wavelengths
Number of Pixels in Spectrum: 2068
>>>>>Begin Spectral Data<<<<<
195.27	-0
195.642	-0.0303
196.014	-0.0532
196.386	-0.077
196.758	0.0111
197.129	0.0127
197.501	0.0277
197.872	0.0857
198.244	0.1026
198.615	0.0975
198.986	0.0964
199.357	0.0911
199.728	0.108
200.099	0.088
200.47	0.1006
200.841	0.099
201.212	0.1055
201.582	0.0866
201.953	0.0961
202.323	0.0983
202.694	0.09
203.064	0.101
203.434	0.0996
203.804	0.1155
204.174	0.1011
204.544	0.0982
204.914	0.0993
205.284	0.0904
205.653	0.0977
206.023	0.0949
206.393	0.0978
206.762	0.1093
207.131	0.1201
207.501	0.1182
207.87	0.1098
208.239	0.0973
208.608	0.101
208.977	0.1019
209.346	0.1149
209.715	0.111
210.083	0.1301
210.452	0.1205
210.82	0.1278
211.189	0.1418
211.557	0.1203
211.925	0.1271
212.294	0.1558
212.662	0.1502
213.03	0.1468
213.398	0.1559
213.766	0.1715
214.133	0.1778
214.501	0.1965
214.869	0.1895
215.236	0.2122
215.604	0.2147
215.971	0.2301
216.338	0.2506
216.705	0.2622
217.072	0.2949
217.439	0.3002
217.806	0.3325
218.173	0.3533
218.54	0.3786
218.907	0.4235
219.273	0.4582
219.64	0.4893
220.006	0.5294
220.373	0.5556
220.739	0.5871
221.105	0.6539
221.471	0.6615
221.837	0.7107
222.203	0.7452
222.569	0.7655
222.935	0.8109
223.3	0.8342
223.666	0.8655
224.031	0.8953
224.397	0.9099
224.762	0.9263
225.127	0.9473
225.493	0.965
225.858	0.9677
226.223	0.971
226.588	0.9833
226.952	0.9843
227.317	1.0028
227.682	0.9869
228.046	0.9852
228.411	0.9911
228.775	0.9882
229.14	0.9847
229.504	0.9826
229.868	0.9753
230.232	0.9695
230.596	0.9611
230.96	0.9569
231.324	0.9445
231.688	0.9336
232.052	0.9271
232.415	0.9179
232.779	0.916
233.142	0.9059
233.505	0.8953
233.869	0.8853
234.232	0.8764
234.595	0.8667
234.958	0.8561
235.321	0.848
235.684	0.838
236.047	0.8314
236.409	0.8197
236.772	0.8117
237.134	0.8048
237.497	0.7912
237.859	0.7881
238.222	0.7775
238.584	0.7698
238.946	0.7604
239.308	0.7535
239.67	0.7459
240.032	0.7377
240.393	0.7293
240.755	0.7242
241.117	0.7187
241.478	0.7153
241.84	0.705
242.201	0.699
242.562	0.6944
242.924	0.6879
243.285	0.6823
243.646	0.6758
244.007	0.6743
244.368	0.6676
244.728	0.6636
245.089	0.6622
245.45	0.6564
245.81	0.6516
246.171	0.6473
246.531	0.6444
246.891	0.642
247.252	0.6357
247.612	0.6333
247.972	0.6327
248.332	0.6296
248.692	0.6246
249.051	0.6231
249.411	0.6244
249.771	0.6176
250.13	0.6148
250.49	0.6151
250.849	0.612
251.208	0.6097
251.568	0.6097
251.927	0.6057
252.286	0.6058
252.645	0.604
253.004	0.6017
253.363	0.6007
253.721	0.5995
254.08	0.5985
254.439	0.5971
254.797	0.5939
255.155	0.5934
255.514	0.5937
255.872	0.5914
256.23	0.5884
256.588	0.588
256.946	0.5881
257.304	0.5878
257.662	0.5853
258.02	0.5863
258.377	0.5839
258.735	0.5819
259.093	0.5821
259.45	0.58
259.807	0.5802
260.165	0.5791
260.522	0.5758
260.879	0.5729
261.236	0.5735
261.593	0.5726
261.95	0.5693
262.306	0.5701
262.663	0.5655
263.02	0.5653
263.376	0.5639
263.733	0.5597
264.089	0.5599
264.445	0.5595
264.802	0.557
265.158	0.5547
265.514	0.553
265.87	0.549
266.226	0.5478
266.581	0.5476
266.937	0.543
267.293	0.5416
267.648	0.5404
268.004	0.5369
268.359	0.5354
268.714	0.5323
269.07	0.5286
269.425	0.5253
269.78	0.5244
270.135	0.5215
270.49	0.5204
270.844	0.5175
271.199	0.5141
271.554	0.5113
271.908	0.5092
272.263	0.5053
272.617	0.5026
272.972	0.4998
273.326	0.4967
273.68	0.4927
274.034	0.4896
274.388	0.4856
274.742	0.4823
275.096	0.4784
275.45	0.4759
275.803	0.4723
276.157	0.4694
276.51	0.4652
276.864	0.4626
277.217	0.4588
277.571	0.4546
277.924	0.4493
278.277	0.4468
278.63	0.442
278.983	0.4385
279.336	0.435
279.688	0.4319
280.041	0.4279
280.394	0.4238
280.746	0.4188
281.099	0.4153
281.451	0.4104
281.803	0.4064
282.156	0.4036
282.508	0.3996
282.86	0.3951
283.212	0.3907
283.564	0.3864
283.916	0.3837
284.267	0.3797
284.619	0.3754
284.971	0.3716
285.322	0.3687
285.673	0.3639
286.025	0.3597
286.376	0.3563
286.727	0.3523
287.078	0.3489
287.429	0.345
287.78	0.34
288.131	0.3373
288.482	0.3315
288.833	0.3287
289.183	0.3242
289.534	0.3212
289.884	0.317
290.235	0.3134
290.585	0.3085
290.935	0.3058
291.285	0.3017
291.635	0.298
291.985	0.2941
292.335	0.2903
292.685	0.2868
293.035	0.2837
293.384	0.2791
293.734	0.2756
294.083	0.2716
294.433	0.2687
294.782	0.2641
295.131	0.2614
295.48	0.2571
295.829	0.255
296.179	0.2495
296.527	0.2469
296.876	0.2441
297.225	0.2413
297.574	0.2378
297.922	0.2342
298.271	0.2314
298.619	0.2273
298.968	0.2251
299.316	0.2219
299.664	0.2189
300.012	0.2168
300.36	0.2126
300.708	0.2111
301.056	0.2081
301.404	0.2065
301.752	0.203
302.099	0.2006
302.447	0.1987
302.794	0.1956
303.142	0.1935
303.489	0.1916
303.836	0.1896
304.183	0.1872
304.531	0.1865
304.878	0.1835
305.224	0.1821
305.571	0.1803
305.918	0.1783
306.265	0.1767
306.611	0.1751
306.958	0.1737
307.304	0.1728
307.651	0.1709
307.997	0.1693
308.343	0.1689
308.689	0.1682
309.035	0.1665
309.381	0.1663
309.727	0.1652
310.073	0.1644
310.419	0.1634
310.764	0.1627
311.11	0.1621
311.455	0.1617
311.801	0.1611
312.146	0.1606
312.491	0.1603
312.837	0.16
313.182	0.1601
313.527	0.1595
313.872	0.1589
314.216	0.1588
314.561	0.159
314.906	0.159
315.251	0.1589
315.595	0.1588
315.94	0.1587
316.284	0.1591
316.628	0.1591
316.972	0.1595
317.317	0.1596
317.661	0.1603
318.005	0.161
318.348	0.1609
318.692	0.1614
319.036	0.162
319.38	0.1623
319.723	0.1634
320.067	0.1635
320.41	0.1637
320.754	0.1646
321.097	0.1655
321.44	0.1665
321.783	0.1669
322.126	0.1675
322.469	0.1691
322.812	0.1697
323.155	0.1709
323.498	0.1726
323.84	0.1731
324.183	0.1742
324.525	0.1746
324.868	0.176
325.21	0.1773
325.552	0.1784
325.894	0.1792
326.236	0.1805
326.578	0.1826
326.92	0.1831
327.262	0.1842
327.604	0.1851
327.946	0.1861
328.287	0.1879
328.629	0.1883
328.97	0.1899
329.312	0.1909
329.653	0.1926
329.994	0.1935
330.335	0.1957
330.676	0.1962
331.017	0.1976
331.358	0.1996
331.699	0.2004
332.04	0.202
332.38	0.2029
332.721	0.2052
333.061	0.2056
333.402	0.2073
333.742	0.2081
334.083	0.21
334.423	0.2107
334.763	0.2119
335.103	0.2135
335.443	0.2136
335.783	0.2151
336.123	0.2156
336.462	0.2175
336.802	0.2185
337.141	0.2192
337.481	0.2204
337.82	0.2211
338.16	0.2226
338.499	0.2235
338.838	0.2247
339.177	0.2254
339.516	0.2266
339.855	0.2279
340.194	0.2286
340.533	0.2295
340.872	0.2301
341.21	0.2316
341.549	0.2321
341.887	0.2323
342.226	0.2329
342.564	0.2334
342.902	0.2339
343.24	0.2342
343.578	0.2343
343.916	0.235
344.254	0.2349
344.592	0.2357
344.93	0.2352
345.268	0.2361
345.605	0.2357
345.943	0.2361
346.28	0.2357
346.618	0.2361
346.955	0.2364
347.292	0.2371
347.629	0.2369
347.966	0.2375
348.303	0.2374
348.64	0.2371
348.977	0.2371
349.314	0.2372
349.65	0.2372
349.987	0.2379
350.324	0.2363
350.66	0.2362
350.996	0.2358
351.333	0.235
351.669	0.2345
352.005	0.2341
352.341	0.2333
352.677	0.2327
353.013	0.2314
353.349	0.2311
353.685	0.2297
354.02	0.2288
354.356	0.2278
354.691	0.2268
355.027	0.2267
355.362	0.2245
355.697	0.2236
356.033	0.2233
356.368	0.2219
356.703	0.2217
357.038	0.2209
357.373	0.2189
357.707	0.219
358.042	0.2182
358.377	0.217
358.711	0.2162
359.046	0.2145
359.38	0.2135
359.715	0.2131
360.049	0.2121
360.383	0.2107
360.717	0.2097
361.051	0.2076
361.385	0.2065
361.719	0.205
362.053	0.2038
362.387	0.2016
362.72	0.1997
363.054	0.1975
363.387	0.1965
363.721	0.1948
364.054	0.193
364.387	0.1908
364.721	0.19
365.054	0.1881
365.387	0.1859
365.72	0.1844
366.053	0.1825
366.385	0.1813
366.718	0.1804
367.051	0.1785
367.383	0.1774
367.716	0.1767
368.048	0.1747
368.381	0.1735
368.713	0.1721
369.045	0.1706
369.377	0.169
369.709	0.168
370.041	0.1664
370.373	0.1659
370.705	0.1642
371.037	0.162
371.368	0.1608
371.7	0.1593
372.031	0.1578
372.363	0.1563
372.694	0.1543
373.025	0.1522
373.356	0.1504
373.688	0.1474
374.019	0.1457
374.35	0.1444
374.68	0.1422
375.011	0.1396
375.342	0.1384
375.673	0.1365
376.003	0.1342
376.334	0.1328
376.664	0.1313
376.995	0.1299
377.325	0.1285
377.655	0.1274
377.985	0.1253
378.315	0.1244
378.645	0.1234
378.975	0.1216
379.305	0.1204
379.635	0.1195
379.964	0.118
380.294	0.1164
380.623	0.1151
380.953	0.1143
381.282	0.1131
381.611	0.1109
381.941	0.1101
382.27	0.1089
382.599	0.1072
382.928	0.1058
383.257	0.1046
383.585	0.104
383.914	0.1023
384.243	0.1005
384.571	0.0992
384.9	0.0968
385.228	0.0954
385.557	0.0946
385.885	0.0926
386.213	0.0912
386.541	0.0899
386.869	0.0879
387.197	0.0864
387.525	0.0849
387.853	0.0833
388.181	0.0821
388.508	0.0816
388.836	0.0807
389.164	0.079
389.491	0.0775
389.818	0.0757
390.146	0.0752
390.473	0.0735
390.8	0.0729
391.127	0.0717
391.454	0.0714
391.781	0.0704
392.108	0.0691
392.435	0.0679
392.761	0.0666
393.088	0.0661
393.415	0.0653
393.741	0.066
394.067	0.0638
394.394	0.0633
394.72	0.0627
395.046	0.0618
395.372	0.0604
395.698	0.0596
396.024	0.059
396.35	0.0579
396.676	0.0578
397.001	0.057
397.327	0.0557
397.653	0.0549
397.978	0.0532
398.303	0.0527
398.629	0.052
398.954	0.0515
399.279	0.051
399.604	0.051
399.929	0.0499
400.254	0.049
400.579	0.0486
400.904	0.0479
401.229	0.0481
401.553	0.0464
401.878	0.0459
402.202	0.0454
402.527	0.045
402.851	0.0449
403.175	0.0446
403.5	0.0441
403.824	0.0443
404.148	0.0436
404.472	0.0435
404.796	0.0428
405.119	0.0423
405.443	0.0418
405.767	0.0413
406.09	0.0412
406.414	0.0418
406.737	0.0412
407.061	0.0411
407.384	0.0405
407.707	0.0405
408.03	0.0403
408.353	0.0405
408.676	0.0407
408.999	0.0401
409.322	0.04
409.645	0.0403
409.968	0.0391
410.29	0.0398
410.613	0.0392
410.935	0.0395
411.258	0.04
411.58	0.0396
411.902	0.0399
412.224	0.04
412.546	0.0394
412.868	0.039
413.19	0.0392
413.512	0.0391
413.834	0.0394
414.156	0.0397
414.477	0.0391
414.799	0.0394
415.121	0.0399
415.442	0.0393
415.763	0.0405
416.085	0.0393
416.406	0.0394
416.727	0.0396
417.048	0.0396
417.369	0.0395
417.69	0.0391
418.011	0.0393
418.331	0.0393
418.652	0.0397
418.973	0.0394
419.293	0.0398
419.614	0.0391
419.934	0.0388
420.254	0.0395
420.574	0.0394
420.895	0.04
421.215	0.0393
421.535	0.0384
421.855	0.0397
422.174	0.0398
422.494	0.0392
422.814	0.0401
423.134	0.0396
423.453	0.0396
423.773	0.0404
424.092	0.0398
424.411	0.0398
424.731	0.0401
425.05	0.04
425.369	0.0404
425.688	0.0401
426.007	0.0401
426.326	0.0402
426.644	0.0411
426.963	0.0412
427.282	0.0411
427.6	0.0411
427.919	0.0406
428.237	0.0404
428.556	0.0412
428.874	0.0409
429.192	0.0406
429.51	0.0414
429.828	0.041
430.146	0.0413
430.464	0.0412
430.782	0.0415
431.1	0.0417
431.418	0.0407
431.735	0.041
432.053	0.0416
432.37	0.0416
432.688	0.0413
433.005	0.0419
433.322	0.0418
433.639	0.041
433.957	0.0416
434.274	0.0416
434.591	0.0417
434.907	0.0421
435.224	0.0411
435.541	0.0423
435.858	0.0428
436.174	0.0422
436.491	0.042
436.807	0.042
437.124	0.041
437.44	0.0407
437.756	0.0413
438.072	0.0411
438.388	0.0422
438.704	0.0418
439.02	0.0418
439.336	0.0415
439.652	0.0423
439.968	0.0417
440.283	0.0413
440.599	0.0413
440.914	0.0409
441.23	0.0413
441.545	0.0413
441.86	0.0415
442.175	0.0416
442.491	0.0412
442.806	0.0411
443.121	0.0413
443.435	0.041
443.75	0.041
444.065	0.0411
444.38	0.0415
444.694	0.0406
445.009	0.0409
445.323	0.0411
445.638	0.0405
445.952	0.0409
446.266	0.0405
446.58	0.0409
446.894	0.0406
447.208	0.0414
447.522	0.041
447.836	0.0396
448.15	0.0395
448.464	0.0398
448.777	0.0401
449.091	0.0398
449.404	0.0399
449.718	0.0407
450.031	0.0401
450.345	0.0394
450.658	0.0393
450.971	0.0396
451.284	0.0395
451.597	0.0398
451.91	0.0398
452.223	0.0393
452.535	0.0393
452.848	0.0398
453.161	0.0397
453.473	0.0395
453.786	0.0393
454.098	0.039
454.411	0.0385
454.723	0.0381
455.035	0.0388
455.347	0.039
455.659	0.0391
455.971	0.0392
456.283	0.0389
456.595	0.0379
456.907	0.0384
457.218	0.0386
457.53	0.038
457.841	0.0372
458.153	0.0373
458.464	0.0369
458.776	0.0362
459.087	0.0358
459.398	0.0369
459.709	0.0361
460.02	0.0361
460.331	0.036
460.642	0.0357
460.953	0.036
461.263	0.0362
461.574	0.036
461.885	0.0358
462.195	0.0359
462.506	0.0357
462.816	0.0348
463.126	0.0348
463.437	0.0349
463.747	0.0347
464.057	0.0338
464.367	0.0344
464.677	0.0335
464.987	0.0337
465.296	0.0327
465.606	0.0329
465.916	0.0328
466.225	0.033
466.535	0.0322
466.844	0.0319
467.154	0.0326
467.463	0.0323
467.772	0.0324
468.081	0.0316
468.39	0.0317
468.699	0.0314
469.008	0.0317
469.317	0.031
469.626	0.0316
469.935	0.0311
470.243	0.0311
470.552	0.0309
470.86	0.031
471.169	0.0303
471.477	0.0302
471.785	0.0308
472.093	0.0302
472.402	0.0301
472.71	0.0295
473.018	0.0289
473.326	0.0286
473.633	0.029
473.941	0.0287
474.249	0.0284
474.556	0.0281
474.864	0.0281
475.171	0.0277
475.479	0.0276
475.786	0.0283
476.094	0.0279
476.401	0.0268
476.708	0.0272
477.015	0.0281
477.322	0.0264
477.629	0.0269
477.936	0.0262
478.242	0.0261
478.549	0.0256
478.856	0.0255
479.162	0.0261
479.469	0.0257
479.775	0.0261
480.081	0.025
480.388	0.0255
480.694	0.0241
481	0.0246
481.306	0.0249
481.612	0.0244
481.918	0.0235
482.224	0.0243
482.53	0.0232
482.835	0.023
483.141	0.0228
483.446	0.0231
483.752	0.0228
484.057	0.0212
484.363	0.0219
484.668	0.0213
484.973	0.0219
485.278	0.0217
485.583	0.0206
485.888	0.0208
486.193	0.0197
486.498	0.0202
486.803	0.0207
487.107	0.0202
487.412	0.0199
487.717	0.0193
488.021	0.0195
488.325	0.0186
488.63	0.0188
488.934	0.0198
489.238	0.0199
489.542	0.0192
489.846	0.0178
490.15	0.0193
490.454	0.0191
490.758	0.0182
491.062	0.0178
491.366	0.0181
491.669	0.0179
491.973	0.018
492.276	0.0172
492.58	0.0164
492.883	0.0174
493.186	0.0171
493.489	0.0162
493.792	0.0169
494.096	0.016
494.399	0.0168
494.701	0.0164
495.004	0.0165
495.307	0.015
495.61	0.0155
495.912	0.0147
496.215	0.0147
496.517	0.0153
496.82	0.015
497.122	0.0146
497.424	0.0148
497.727	0.0144
498.029	0.0149
498.331	0.0145
498.633	0.0148
498.935	0.0137
499.237	0.0145
499.538	0.0135
499.84	0.0141
500.142	0.0132
500.443	0.0139
500.745	0.0132
501.046	0.0132
501.348	0.0128
501.649	0.0128
501.95	0.0119
502.251	0.0122
502.552	0.0117
502.853	0.0115
503.154	0.011
503.455	0.012
503.756	0.0113
504.057	0.0122
504.357	0.0105
504.658	0.011
504.958	0.011
505.259	0.0112
505.559	0.0117
505.859	0.0112
506.16	0.0104
506.46	0.0108
506.76	0.0108
507.06	0.0098
507.36	0.0109
507.66	0.0104
507.96	0.0102
508.259	0.0103
508.559	0.0089
508.859	0.0097
509.158	0.0097
509.457	0.0098
509.757	0.0105
510.056	0.0091
510.355	0.009
510.655	0.008
510.954	0.0085
511.253	0.0089
511.552	0.0097
511.851	0.0089
512.149	0.0081
512.448	0.0078
512.747	0.0085
513.045	0.0068
513.344	0.0087
513.642	0.0086
513.941	0.0077
514.239	0.0076
514.537	0.0079
514.836	0.0074
515.134	0.0075
515.432	0.008
515.73	0.008
516.028	0.0068
516.326	0.0078
516.623	0.007
516.921	0.007
517.219	0.0074
517.516	0.0075
517.814	0.008
518.111	0.0072
518.409	0.0083
518.706	0.0076
519.003	0.0071
519.3	0.006
519.597	0.0057
519.894	0.0072
520.191	0.008
520.488	0.0071
520.785	0.0067
521.082	0.0063
521.378	0.0067
521.675	0.004
521.971	0.0062
522.268	0.0057
522.564	0.0055
522.861	0.0055
523.157	0.0043
523.453	0.0052
523.749	0.0059
524.045	0.0055
524.341	0.0053
524.637	0.0049
524.933	0.0057
525.229	0.0057
525.524	0.0047
525.82	0.0053
526.115	0.0049
526.411	0.0055
526.706	0.0049
527.002	0.0049
527.297	0.0033
527.592	0.0068
527.887	0.0047
528.182	0.0062
528.477	0.005
528.772	0.0047
529.067	0.0054
529.362	0.0056
529.657	0.005
529.951	0.0054
530.246	0.0047
530.54	0.0036
530.835	0.0039
531.129	0.0032
531.423	0.0049
531.718	0.0048
532.012	0.0038
532.306	0.0036
532.6	0.0041
532.894	0.0034
533.188	0.0043
533.482	0.0033
533.775	0.0036
534.069	0.0042
534.363	0.0035
534.656	0.003
534.95	0.0026
535.243	0.0033
535.536	0.0042
535.83	0.0038
536.123	0.0029
536.416	0.0034
536.709	0.0035
537.002	0.0039
537.295	0.0039
537.588	0.0034
537.881	0.0039
538.173	0.0032
538.466	0.0032
538.759	0.0029
539.051	0.0024
539.344	0.003
539.636	0.0036
539.928	0.0031
540.22	0.0037
540.513	0.0035
540.805	0.0039
541.097	0.0031
541.389	0.0035
541.681	0.0039
541.972	0.0025
542.264	0.0027
542.556	0.0038
542.847	0.0025
543.139	0.0042
543.431	0.0032
543.722	0.0034
544.013	0.0058
544.305	0.0049
544.596	0.0056
544.887	0.0042
545.178	0.0039
545.469	0.0034
545.76	0.0033
546.051	0.0043
546.342	0.0041
546.632	0.0031
546.923	0.0032
547.214	0.0041
547.504	0.0036
547.795	0.0042
548.085	0.0042
548.375	0.0036
548.666	0.0044
548.956	0.0036
549.246	0.004
549.536	0.0029
549.826	0.0033
550.116	0.0038
550.406	0.004
550.695	0.0046
550.985	0.0037
551.275	0.0042
551.564	0.003
551.854	0.004
552.143	0.0035
552.433	0.0032
552.722	0.003
553.011	0.0028
553.3	0.004
553.589	0.0033
553.879	0.0033
554.167	0.0019
554.456	0.0021
554.745	0.0024
555.034	0.002
555.323	0.0017
555.611	0.0021
555.9	0.0036
556.188	0.0036
556.477	0.0029
556.765	0.0028
557.053	0.0017
557.342	0.0015
557.63	0.0024
557.918	0.0027
558.206	0.0022
558.494	0.0034
558.782	0.0026
559.069	0.0041
559.357	0.0038
559.645	0.0022
559.932	0.0027
560.22	0.0031
560.507	0.0033
560.795	0.0032
561.082	0.003
561.37	0.0033
561.657	0.0026
561.944	0.0034
562.231	0.0031
562.518	0.0024
562.805	0.0032
563.092	0.003
563.379	0.004
563.665	0.0025
563.952	0.0032
564.239	0.0031
564.525	0.004
564.811	0.0036
565.098	0.004
565.384	0.0038
565.67	0.0032
565.957	0.0033
566.243	0.0027
566.529	0.0043
566.815	0.0046
567.101	0.0027
567.387	0.0025
567.672	0.0026
567.958	0.0031
568.244	0.0034
568.529	0.0036
568.815	0.003
569.1	0.0027
569.386	0.0029
569.671	0.0021
569.956	0.002
570.242	0.0023
570.527	0.0041
570.812	0.0031
571.097	0.0036
571.382	0.003
571.666	0.0032
571.951	0.0032
572.236	0.0027
572.521	0.002
572.805	0.0025
573.09	0.0026
573.374	0.0035
573.659	0.0026
573.943	0.0032
574.227	0.0025
574.511	0.0033
574.795	0.003
575.079	0.0024
575.363	0.0027
575.647	0.0033
575.931	0.0034
576.215	0.0033
576.499	0.0026
576.782	0.0026
577.066	0.0026
577.349	0.0027
577.633	0.0046
577.916	0.0035
578.2	0.0039
578.483	0.0035
578.766	0.0026
579.049	0.0041
579.332	0.0034
579.615	0.0033
579.898	0.0034
580.181	0.003
580.464	0.0037
580.746	0.0027
581.029	0.0037
581.312	0.0032
581.594	0.0029
581.877	0.0036
582.159	0.0036
582.441	0.0035
582.724	0.0031
583.006	0.0025
583.288	0.0024
583.57	0.0022
583.852	0.0024
584.134	0.0025
584.416	0.0037
584.697	0.0032
584.979	0.0033
585.261	0.0034
585.542	0.0029
585.824	0.0029
586.105	0.0034
586.387	0.0025
586.668	0.0026
586.949	0.0027
587.231	0.0024
587.512	0.0034
587.793	0.0028
588.074	0.0037
588.355	0.0032
588.636	0.0041
588.916	0.0035
589.197	0.0038
589.478	0.0031
589.758	0.0028
590.039	0.0038
590.319	0.0028
590.6	0.0025
590.88	0.0027
591.16	0.0025
591.441	0.003
591.721	0.0031
592.001	0.0028
592.281	0.003
592.561	0.0039
592.841	0.0034
593.12	0.0029
593.4	0.0027
593.68	0.0032
593.959	0.0029
594.239	0.003
594.518	0.0026
594.798	0.0025
595.077	0.0028
595.356	0.0029
595.636	0.002
595.915	0.0029
596.194	0.0024
596.473	0.0036
596.752	0.0025
597.031	0.0023
597.31	0.0024
597.588	0.0023
597.867	0.0018
598.146	0.0026
598.424	0.0024
598.703	0.0028
598.981	0.0026
599.259	0.0025
599.538	0.0032
599.816	0.0035
600.094	0.0031
600.372	0.0036
600.65	0.0034
600.928	0.0035
601.206	0.0037
601.484	0.0034
601.762	0.0035
602.04	0.0028
602.317	0.003
602.595	0.0021
602.872	0.0021
603.15	0.0024
603.427	0.0025
603.704	0.0016
603.982	0.0027
604.259	0.0016
604.536	0.0022
604.813	0.0027
605.09	0.0025
605.367	0.0027
605.644	0.0022
605.921	0.0026
606.197	0.0021
606.474	0.003
606.751	0.0036
607.027	0.0031
607.304	0.0024
607.58	0.0024
607.856	0.0024
608.133	0.0029
608.409	0.0026
608.685	0.0021
608.961	0.0032
609.237	0.0027
609.513	0.0027
609.789	0.0035
610.065	0.0015
610.341	0.0026
610.616	0.0021
610.892	0.0038
611.167	0.0031
611.443	0.0034
611.718	0.0028
611.994	0.0016
612.269	0.0025
612.544	0.0017
612.819	0.0019
613.095	0.0027
613.37	0.0023
613.645	0.0022
613.919	0.0021
614.194	0.0026
614.469	0.0025
614.744	0.0018
615.019	0.0022
615.293	0.0016
615.568	0.0013
615.842	0.0017
616.116	0.0015
616.391	0.0012
616.665	0.0027
616.939	0.002
617.213	0.0018
617.488	0.0013
617.762	0.0025
618.035	0.0024
618.309	0.0019
618.583	0.0013
618.857	0.0022
619.131	0.0023
619.404	0.0019
619.678	0.002
619.951	0.0011
620.225	0.0011
620.498	0.001
620.771	0.0015
621.045	0.003
621.318	0.0014
621.591	0.0009
621.864	0.0005
622.137	-0.0002
622.41	0.0006
622.683	0.001
622.956	0.001
623.228	0.0022
623.501	0.0025
623.774	0.0024
624.046	0.0019
624.319	0.0021
624.591	0.0012
624.863	0.0011
625.136	0.0007
625.408	0.0024
625.68	0.002
625.952	0.0026
626.224	0.0025
626.496	0.0024
626.768	0.0009
627.04	0.0023
627.311	0.0021
627.583	0.0024
627.855	0.0029
628.126	0.0027
628.398	0.0031
628.669	0.0016
628.941	0.0015
629.212	0.0011
629.483	0.002
629.755	0.0018
630.026	0.002
630.297	0.0014
630.568	0.001
630.839	-0.0004
631.11	-0.0009
631.38	-0.001
631.651	-0.0001
631.922	-0.0009
632.192	-0.0009
632.463	-0.0009
632.733	0.0004
633.004	-0.0004
633.274	-0.0013
633.545	-0.0002
633.815	0.0008
634.085	0.0013
634.355	-0.0002
634.625	0.0025
634.895	0.001
635.165	-0.0002
635.435	0.0006
635.705	0.0009
635.974	0.0002
636.244	0.0011
636.514	0.0024
636.783	0.0013
637.053	0.0027
637.322	0.0018
637.591	0.0022
637.861	0.0012
638.13	0.0017
638.399	0.0017
638.668	0.0015
638.937	0.0001
639.206	0.002
639.475	0.0014
639.744	0.0021
640.013	0.0016
640.281	0.0034
640.55	0.0025
640.819	0.0016
641.087	0.0028
641.356	0.0007
641.624	0.0012
641.892	0.0025
642.161	0.0017
642.429	0.0021
642.697	0.0006
642.965	0.0016
643.233	0.0018
643.501	0.001
643.769	0.0007
644.037	0.0017
644.305	0.001
644.572	0.0001
644.84	0.0005
645.108	0.0002
645.375	0.0002
645.643	0.0007
645.91	0.0013
646.177	0.0023
646.445	0.0041
646.712	0.0054
646.979	0.0041
647.246	0.0034
647.513	0.0036
647.78	0.0046
648.047	0.0043
648.314	0.004
648.58	0.0025
648.847	0.0011
649.114	0.0004
649.38	0.0005
649.647	0.0004
649.913	0.0004
650.18	0.0004
650.446	0.0014
650.712	0.0022
650.978	0.0021
651.245	0.0026
651.511	0.0021
651.777	0.0009
652.043	0.002
652.309	0.0019
652.574	0.0024
652.84	0.0009
653.106	0.0002
653.371	0.0001
653.637	0.0008
653.903	0.0016
654.168	0.0016
654.433	0.0022
654.699	0.0017
654.964	0.0021
655.229	0.0015
655.494	0.0024
655.759	0.0022
656.024	0.001
656.289	-0
656.554	-0.0003
656.819	-0.0002
657.084	0.0011
657.349	0.0024
657.613	0.0015
657.878	0.0015
658.142	0.0014
658.407	0.0015
658.671	0.0008
658.936	-0.0001
659.2	-0.0003
659.464	-0.0001
659.728	-0.0002
659.992	0.0012
660.256	-0.0002
660.52	0.0001
660.784	0.0007
661.048	0.0006
661.312	-0.0007
661.575	-0.001
661.839	-0.0016
662.103	-0.0014
662.366	-0.0018
662.63	-0.0005
662.893	-0.0001
663.156	-0.0002
663.42	0
663.683	0.0002
663.946	0.0008
664.209	0.0026
664.472	0.0015
664.735	0.0013
664.998	0.0002
665.261	-0.0006
665.524	0.0003
665.786	0.0002
666.049	0.0006
666.312	-0
666.574	0.0005
666.837	-0.0006
667.099	-0.0013
667.361	-0.0011
667.624	-0.0015
667.886	-0.0009
668.148	0.0006
668.41	0.0014
668.672	0.0009
668.934	0.0011
669.196	0.0009
669.458	0.0004
669.72	0.0002
669.982	0.0004
670.243	0.0014
670.505	0.001
670.766	0.0004
671.028	0.0007
671.289	0.0009
671.551	0.0006
671.812	0.0002
672.073	0.0012
672.334	0
672.596	-0.0006
672.857	-0.0008
673.118	-0.0009
673.379	-0.0004
673.639	-0.001
673.9	-0.0001
674.161	-0.002
674.422	-0.0024
674.682	-0.0011
674.943	-0.002
675.203	-0.0006
675.464	0.0004
675.724	-0.0004
675.985	0.0006
676.245	0.0016
676.505	0.0032
676.765	0.0027
677.025	0.002
677.285	0.0016
677.545	0.0023
677.805	0.0031
678.065	0.0026
678.325	0.0027
678.585	0.002
678.844	0.0023
679.104	0.0007
679.363	0.0013
679.623	0.0015
679.882	0.0022
680.142	0.0024
680.401	0.0025
680.66	0.0032
680.919	0.0029
681.178	0.0046
681.437	0.0043
681.696	0.0042
681.955	0.0037
682.214	0.0036
682.473	0.0042
682.732	0.0033
682.99	0.0027
683.249	0.0035
683.508	0.0031
683.766	0.0034
684.024	0.003
684.283	0.0032
684.541	0.0028
684.799	0.0035
685.058	0.0023
685.316	0.0016
685.574	0.0033
685.832	0.0038
686.09	0.0033
686.348	0.0052
686.606	0.0041
686.863	0.0041
687.121	0.0045
687.379	0.0039
687.636	0.0038
687.894	0.0036
688.151	0.0039
688.409	0.0034
688.666	0.0026
688.923	0.0025
689.181	0.0019
689.438	0.0012
689.695	0.0018
689.952	0.0002
690.209	0.0006
690.466	0.0005
690.723	0.0013
690.979	0.0008
691.236	0.0009
691.493	0.0007
691.75	0.0022
692.006	0.0029
692.263	0.0033
692.519	0.0035
692.775	0.0025
693.032	0.0021
693.288	0.0031
693.544	0.003
693.8	0.0027
694.056	0.0023
694.313	0.0015
694.568	0.0011
694.824	0.0025
695.08	0.003
695.336	0.0029
695.592	0.0025
695.847	0.002
696.103	0.0013
696.359	0.0021
696.614	0.0015
696.869	0.0009
697.125	0
697.38	-0.0001
697.635	-0.001
697.891	-0.0009
698.146	-0.001
698.401	0.0003
698.656	-0.0013
698.911	-0.0002
699.166	-0.0014
699.42	-0.0005
699.675	-0.0005
699.93	-0.0015
700.185	0
700.439	0.0008
700.694	0.0001
700.948	0.0005
701.203	0.0009
701.457	-0.0003
701.711	-0.0004
701.965	-0.0009
702.22	-0.0006
702.474	0.0003
702.728	-0.0001
702.982	0
703.236	-0.0004
703.49	0.0005
703.743	0.0002
703.997	0.0009
704.251	0.001
704.504	0.0007
704.758	0.0007
705.012	-0
705.265	-0.0011
705.518	-0.0013
705.772	-0.0016
706.025	-0.0006
706.278	-0.0007
706.531	-0.0012
706.785	-0.0013
707.038	-0.0003
707.291	-0.0011
707.543	-0.0013
707.796	-0.0011
708.049	-0.0022
708.302	-0.0028
708.555	-0.0015
708.807	-0.0015
709.06	-0.0016
709.312	-0.0027
709.565	-0.0019
709.817	-0.0028
710.069	-0.0025
710.322	-0.0019
710.574	-0.0018
710.826	-0.0014
711.078	-0.001
711.33	-0.0021
711.582	-0.002
711.834	-0.0006
712.086	-0.0007
712.338	-0.0001
712.59	-0.0005
712.841	-0.0002
713.093	-0.0011
713.344	-0.0003
713.596	0.0002
713.847	0.0009
714.099	0.0002
714.35	0.0009
714.601	0.0011
714.853	0.0013
715.104	0.0012
715.355	0.0004
715.606	0.0004
715.857	0.0015
716.108	0.0018
716.359	0.0022
716.609	0.0014
716.86	0.0003
717.111	-0.0007
717.361	-0.0012
717.612	-0.0011
717.863	-0.001
718.113	-0.001
718.363	-0.0002
718.614	0.0005
718.864	0.0008
719.114	0.0002
719.364	0.0006
719.614	-0.0008
719.865	-0.0016
720.114	-0.0011
720.364	-0.0006
720.614	0.0008
720.864	0.001
721.114	0.0004
721.364	0.0016
721.613	0.0015
721.863	0.0024
722.112	0.0023
722.362	0.0036
722.611	0.002
722.86	0.0008
723.11	0.0005
723.359	0.0008
723.608	0.0019
723.857	0.0028
724.106	0.004
724.355	0.0044
724.604	0.0048
724.853	0.003
725.102	0.0026
725.351	0.002
725.599	0.0018
725.848	0.0021
726.097	0.0025
726.345	0.0019
726.594	0.0024
726.842	0.0015
727.09	0.0006
727.339	-0.0001
727.587	0.0001
727.835	-0.0015
728.083	-0.0018
728.331	-0.002
728.579	-0.0023
728.827	-0.002
729.075	-0.0017
729.323	-0.0015
729.571	-0.0014
729.818	-0.0002
730.066	0.0001
730.314	-0.0001
730.561	-0.0014
730.809	-0.0011
731.056	-0.0008
731.303	-0.0015
731.551	-0.0005
731.798	-0.0005
732.045	-0.0003
732.292	-0.0013
732.539	-0.0011
732.786	-0.0003
733.033	0.0005
733.28	0.0013
733.527	0.0027
733.774	0.0011
734.021	0.0025
734.267	0.0027
734.514	0.0028
734.76	0.0031
735.007	0.0043
735.253	0.0051
735.5	0.0053
735.746	0.005
735.992	0.0042
736.238	0.0038
736.485	0.0044
736.731	0.0035
736.977	0.0034
737.223	0.0024
737.469	0.0025
737.715	0.0025
737.96	0.0032
738.206	0.0035
738.452	0.0048
738.697	0.0051
738.943	0.0036
739.189	0.0021
739.434	0.0002
739.679	-0
739.925	-0.001
740.17	-0.0006
740.415	-0.0003
740.66	0.0004
740.906	0.001
741.151	0.0007
741.396	0.0008
741.641	0.0033
741.886	0.0042
742.13	0.0034
742.375	0.0044
742.62	0.0058
742.865	0.004
743.109	0.0037
743.354	0.0032
743.598	0.0039
743.843	0.0042
744.087	0.0034
744.331	0.0039
744.576	0.0033
744.82	0.004
745.064	0.0033
745.308	0.0023
745.552	0.0031
745.796	0.003
746.04	0.0028
746.284	0.0012
746.528	0.0002
746.771	0.0012
747.015	0.0014
747.259	0.0013
747.502	0.0015
747.746	0.0022
747.989	0.0018
748.233	0.0028
748.476	0.0022
748.719	0.0033
748.963	0.003
749.206	0.0017
749.449	0.0025
749.692	0.0021
749.935	0.0031
750.178	0.0021
750.421	0.0024
750.664	0.0022
750.906	0.0021
751.149	0.0017
751.392	0.0018
751.635	0.0008
751.877	-0.0002
752.12	0
752.362	0.0007
752.604	-0.0002
752.847	0.0003
753.089	0.0011
753.331	0.0009
753.573	0.0007
753.816	0.0013
754.058	0.0016
754.3	0.002
754.542	0.0027
754.783	0.0024
755.025	0.0019
755.267	0.0006
755.509	0.0008
755.75	0.0012
755.992	0.0019
756.234	0.0011
756.475	0.0001
756.716	-0.0001
756.958	-0
757.199	0.0007
757.44	0.0012
757.682	0.002
757.923	0.0009
758.164	0.0002
758.405	0.0006
758.646	0.0007
758.887	0.0003
759.128	0.0001
759.369	0.0003
759.609	-0.0005
759.85	-0.0003
760.091	-0
760.331	0.0009
760.572	-0
760.812	-0.0007
761.053	-0.0008
761.293	-0.0011
761.533	-0.0003
761.774	-0.001
762.014	-0.0011
762.254	-0.001
762.494	-0.0017
762.734	-0.0013
762.974	-0.001
763.214	-0.0018
763.454	-0.0013
763.694	-0.0009
763.933	-0.0011
764.173	-0.0002
764.413	-0.0005
764.652	0.0004
764.892	-0.0004
765.131	0.0007
765.371	0.0007
765.61	0.0015
765.849	0.0013
766.089	0.002
766.328	0.0028
766.567	0.0021
766.806	0.0024
767.045	0.0019
767.284	0.0016
767.523	0.0028
767.762	0.0025
768.001	0.0018
768.239	0.0016
768.478	0.0008
768.717	0.0009
768.955	0.0014
769.194	0.0001
769.432	0.0002
769.671	0.0013
769.909	-0.0003
770.148	0.0005
770.386	0.001
770.624	0.0018
770.862	0.0017
771.1	0.0007
771.338	0.0007
771.576	0.0016
771.814	0.0007
772.052	0.0005
772.29	0.0014
772.528	0.0014
772.765	0.0014
773.003	0.0021
773.24	0.0023
773.478	0.0014
773.716	0.0028
773.953	0.0027
774.19	0.0038
774.428	0.0034
774.665	0.0035
774.902	0.004
775.139	0.0018
775.376	0.0021
775.613	0.002
775.85	0.0027
776.087	0.0013
776.324	0.0019
776.561	0.0025
776.798	0.0042
777.034	0.0047
777.271	0.0058
777.508	0.0056
777.744	0.0051
777.981	0.0038
778.217	0.0045
778.454	0.0043
778.69	0.0034
778.926	0.0039
779.162	0.0028
779.399	0.0029
779.635	0.0022
779.871	0.0016
780.107	0.0025
780.343	0.0021
780.579	0.002
780.814	0.0019
781.05	0.0025
781.286	0.0026
781.522	0.0027
781.757	0.0037
781.993	0.003
782.228	0.0027
782.464	0.0029
782.699	0.0014
782.934	0.0006
783.17	0.0012
783.405	0.0008
783.64	0.0013
783.875	0.0016
784.11	0.002
784.345	0.0031
784.58	0.0025
784.815	0.0024
785.05	0.0024
785.285	0.0019
785.52	0.0007
785.754	0.0022
785.989	0.0006
786.223	-0.0002
786.458	-0.0006
786.692	-0.001
786.927	-0.0016
787.161	-0.0016
787.396	-0.0023
787.63	-0.003
787.864	-0.0026
788.098	-0.0019
788.332	-0.0005
788.566	-0.0009
788.8	-0.0011
789.034	-0.0004
789.268	0.0004
789.502	0.001
789.736	0.0016
789.969	0.0019
790.203	0.0015
790.437	0.0014
790.67	0.0011
790.904	0.0011
791.137	-0.0006
791.37	-0.0009
791.604	-0.0017
791.837	-0.0006
792.07	-0.0012
792.303	-0.0006
792.537	-0.0008
792.77	-0.0007
793.003	-0.0011
793.236	-0.0019
793.469	-0.0018
793.701	-0.0017
793.934	-0.0011
794.167	-0.0012
794.4	-0.0002
794.632	-0
794.865	-0.0015
795.097	-0.0012
795.33	0.0014
795.562	0.0005
795.795	0.0003
796.027	-0.0002
796.259	0.0008
796.491	0
796.724	-0.0012
796.956	0.0005
797.188	0.0008
797.42	0.0004
797.652	0.0004
797.883	-0.0004
798.115	-0.0007
798.347	-0.001
798.579	-0.0023
798.81	-0.0033
799.042	-0.0031
799.274	-0.0043
799.505	-0.0039
799.737	-0.0041
799.968	-0.0038
800.199	-0.0024
800.431	-0.003
800.662	-0.0018
800.893	-0.0022
801.124	-0.0015
801.355	-0.0006
801.586	-0.0006
801.817	-0.0007
802.048	-0.0007
802.279	-0.0005
802.51	0.0002
802.741	-0.0015
802.971	-0.0009
803.202	-0.0017
803.433	-0.0022
803.663	-0.0019
803.894	-0.0016
804.124	-0.0015
804.354	-0.0009
804.585	-0.001
804.815	-0.0018
805.045	-0.0011
805.275	-0.0024
805.506	-0.0236
805.736	0.0879
805.966	-0.106
806.196	0.0267
