Data from 03 0.2 mM BQDS 0.4 mM K2Cr2O7 1 M H2SO4 5 min_Absorbance_00-12-42-383.txt Node
Date: Wed Dec 08 00:12:42 EST 2021
User: kwabilab-user
Spectrometer: HDX00518
Trigger mode: 0
Integration Time (sec): 5.000000E-2
Scans to average: 50
Nonlinearity correction enabled: false
Boxcar width: 0
Storing dark spectrum: false
XAxis mode: Wavelengths
Number of Pixels in Spectrum: 2068
>>>>>Begin Spectral Data<<<<<
195.27	-0.0168
195.642	-0.0479
196.014	-0.0185
196.386	-0.0396
196.758	-0.0136
197.129	-0.0035
197.501	0.044
197.872	0.0639
198.244	0.0918
198.615	0.0988
198.986	0.0908
199.357	0.0778
199.728	0.0981
200.099	0.0899
200.47	0.0852
200.841	0.0942
201.212	0.0995
201.582	0.0843
201.953	0.0919
202.323	0.0949
202.694	0.0935
203.064	0.1045
203.434	0.0821
203.804	0.1022
204.174	0.094
204.544	0.0995
204.914	0.0859
205.284	0.1013
205.653	0.1096
206.023	0.0862
206.393	0.1034
206.762	0.097
207.131	0.1085
207.501	0.0994
207.87	0.1072
208.239	0.1061
208.608	0.0887
208.977	0.1108
209.346	0.1104
209.715	0.1198
210.083	0.1289
210.452	0.1207
210.82	0.1241
211.189	0.1174
211.557	0.1297
211.925	0.139
212.294	0.1418
212.662	0.1381
213.03	0.1475
213.398	0.1455
213.766	0.16
214.133	0.1787
214.501	0.1777
214.869	0.1762
215.236	0.2105
215.604	0.2136
215.971	0.2246
216.338	0.2547
216.705	0.2724
217.072	0.2818
217.439	0.302
217.806	0.3377
218.173	0.3618
218.54	0.3856
218.907	0.4268
219.273	0.4759
219.64	0.4894
220.006	0.5239
220.373	0.5592
220.739	0.6079
221.105	0.6397
221.471	0.6687
221.837	0.719
222.203	0.7648
222.569	0.7859
222.935	0.8198
223.3	0.8424
223.666	0.8639
224.031	0.8971
224.397	0.9064
224.762	0.9223
225.127	0.945
225.493	0.9641
225.858	0.9709
226.223	0.9785
226.588	0.9916
226.952	1.0023
227.317	1.0009
227.682	0.999
228.046	0.9923
228.411	0.9952
228.775	0.9971
229.14	0.9997
229.504	0.9864
229.868	0.9847
230.232	0.9737
230.596	0.9645
230.96	0.9602
231.324	0.9545
231.688	0.9431
232.052	0.9384
232.415	0.9269
232.779	0.9233
233.142	0.9136
233.505	0.9053
233.869	0.8965
234.232	0.8855
234.595	0.8756
234.958	0.8677
235.321	0.8561
235.684	0.8461
236.047	0.8408
236.409	0.8303
236.772	0.8219
237.134	0.8169
237.497	0.8
237.859	0.7976
238.222	0.7871
238.584	0.7809
238.946	0.7746
239.308	0.7656
239.67	0.7584
240.032	0.7545
240.393	0.7457
240.755	0.7394
241.117	0.732
241.478	0.7272
241.84	0.7206
242.201	0.7147
242.562	0.7081
242.924	0.703
243.285	0.6993
243.646	0.6945
244.007	0.6904
244.368	0.6851
244.728	0.6824
245.089	0.6768
245.45	0.6728
245.81	0.6693
246.171	0.6645
246.531	0.6614
246.891	0.6586
247.252	0.6558
247.612	0.6545
247.972	0.6513
248.332	0.6496
248.692	0.6456
249.051	0.6436
249.411	0.6428
249.771	0.6381
250.13	0.6393
250.49	0.6383
250.849	0.6363
251.208	0.6322
251.568	0.6304
251.927	0.6301
252.286	0.6305
252.645	0.6271
253.004	0.6258
253.363	0.625
253.721	0.6247
254.08	0.6245
254.439	0.6213
254.797	0.6195
255.155	0.6192
255.514	0.6182
255.872	0.6185
256.23	0.6175
256.588	0.6151
256.946	0.6144
257.304	0.6136
257.662	0.613
258.02	0.6111
258.377	0.611
258.735	0.6097
259.093	0.6086
259.45	0.6069
259.807	0.6062
260.165	0.6071
260.522	0.6034
260.879	0.6034
261.236	0.6014
261.593	0.6011
261.95	0.597
262.306	0.5986
262.663	0.597
263.02	0.5966
263.376	0.593
263.733	0.5919
264.089	0.5916
264.445	0.5883
264.802	0.5877
265.158	0.5841
265.514	0.5823
265.87	0.5807
266.226	0.5783
266.581	0.5765
266.937	0.573
267.293	0.5721
267.648	0.5698
268.004	0.5666
268.359	0.5641
268.714	0.5625
269.07	0.5587
269.425	0.5564
269.78	0.5554
270.135	0.5521
270.49	0.5496
270.844	0.5458
271.199	0.5436
271.554	0.5404
271.908	0.5363
272.263	0.5332
272.617	0.5331
272.972	0.5284
273.326	0.5227
273.68	0.5195
274.034	0.5177
274.388	0.5133
274.742	0.5097
275.096	0.5062
275.45	0.5036
275.803	0.4988
276.157	0.4943
276.51	0.4913
276.864	0.489
277.217	0.4835
277.571	0.4788
277.924	0.4757
278.277	0.4699
278.63	0.4675
278.983	0.4617
279.336	0.4584
279.688	0.4548
280.041	0.4501
280.394	0.4453
280.746	0.4422
281.099	0.437
281.451	0.4328
281.803	0.428
282.156	0.4245
282.508	0.4204
282.86	0.4152
283.212	0.4117
283.564	0.4082
283.916	0.4033
284.267	0.3995
284.619	0.395
284.971	0.3903
285.322	0.3873
285.673	0.382
286.025	0.379
286.376	0.3739
286.727	0.3696
287.078	0.3661
287.429	0.3633
287.78	0.3567
288.131	0.3529
288.482	0.3489
288.833	0.3456
289.183	0.3405
289.534	0.3374
289.884	0.333
290.235	0.3292
290.585	0.3235
290.935	0.3212
291.285	0.3169
291.635	0.313
291.985	0.3093
292.335	0.3049
292.685	0.3007
293.035	0.2984
293.384	0.2935
293.734	0.2892
294.083	0.2846
294.433	0.2813
294.782	0.2778
295.131	0.2736
295.48	0.2713
295.829	0.2672
296.179	0.2628
296.527	0.2601
296.876	0.2561
297.225	0.2541
297.574	0.2494
297.922	0.2459
298.271	0.2428
298.619	0.2388
298.968	0.2362
299.316	0.2335
299.664	0.2308
300.012	0.2273
300.36	0.2232
300.708	0.2209
301.056	0.2191
301.404	0.2162
301.752	0.2127
302.099	0.2111
302.447	0.2084
302.794	0.2054
303.142	0.2029
303.489	0.2005
303.836	0.1984
304.183	0.1968
304.531	0.1944
304.878	0.1925
305.224	0.1905
305.571	0.1892
305.918	0.1872
306.265	0.1856
306.611	0.1842
306.958	0.1827
307.304	0.181
307.651	0.1798
307.997	0.1788
308.343	0.1773
308.689	0.1758
309.035	0.1754
309.381	0.1742
309.727	0.1728
310.073	0.1722
310.419	0.1717
310.764	0.1708
311.11	0.1706
311.455	0.17
311.801	0.1688
312.146	0.1691
312.491	0.1679
312.837	0.1673
313.182	0.1674
313.527	0.1671
313.872	0.1667
314.216	0.1667
314.561	0.1662
314.906	0.1667
315.251	0.1665
315.595	0.1665
315.94	0.1666
316.284	0.1668
316.628	0.1668
316.972	0.1669
317.317	0.1674
317.661	0.1682
318.005	0.1678
318.348	0.1683
318.692	0.1691
319.036	0.17
319.38	0.1703
319.723	0.1713
320.067	0.1713
320.41	0.172
320.754	0.1729
321.097	0.1737
321.44	0.1743
321.783	0.1752
322.126	0.1758
322.469	0.1775
322.812	0.1787
323.155	0.1795
323.498	0.1806
323.84	0.1814
324.183	0.1822
324.525	0.1834
324.868	0.1845
325.21	0.1861
325.552	0.1871
325.894	0.188
326.236	0.1895
326.578	0.1909
326.92	0.1915
327.262	0.193
327.604	0.1937
327.946	0.1957
328.287	0.1968
328.629	0.1981
328.97	0.1987
329.312	0.201
329.653	0.2019
329.994	0.2037
330.335	0.2053
330.676	0.2061
331.017	0.2073
331.358	0.2092
331.699	0.2109
332.04	0.2122
332.38	0.2127
332.721	0.215
333.061	0.2157
333.402	0.2176
333.742	0.2189
334.083	0.2208
334.423	0.2216
334.763	0.2221
335.103	0.2235
335.443	0.2248
335.783	0.2257
336.123	0.2263
336.462	0.2286
336.802	0.2294
337.141	0.2307
337.481	0.2313
337.82	0.2321
338.16	0.2338
338.499	0.2348
338.838	0.2354
339.177	0.2376
339.516	0.2385
339.855	0.2399
340.194	0.2401
340.533	0.2414
340.872	0.2422
341.21	0.2436
341.549	0.2439
341.887	0.2447
342.226	0.2451
342.564	0.2448
342.902	0.2459
343.24	0.2466
343.578	0.2462
343.916	0.2476
344.254	0.2476
344.592	0.2482
344.93	0.2478
345.268	0.2488
345.605	0.2482
345.943	0.2484
346.28	0.2492
346.618	0.2486
346.955	0.249
347.292	0.2494
347.629	0.249
347.966	0.2496
348.303	0.2494
348.64	0.2499
348.977	0.2499
349.314	0.2498
349.65	0.2494
349.987	0.2506
350.324	0.2487
350.66	0.2488
350.996	0.249
351.333	0.2481
351.669	0.2471
352.005	0.2469
352.341	0.2458
352.677	0.2453
353.013	0.2432
353.349	0.2434
353.685	0.242
354.02	0.241
354.356	0.2405
354.691	0.2392
355.027	0.238
355.362	0.2369
355.697	0.2368
356.033	0.2351
356.368	0.2347
356.703	0.233
357.038	0.2323
357.373	0.2313
357.707	0.2306
358.042	0.2293
358.377	0.2287
358.711	0.228
359.046	0.2264
359.38	0.2248
359.715	0.2247
360.049	0.2231
360.383	0.2221
360.717	0.2209
361.051	0.2184
361.385	0.2175
361.719	0.2157
362.053	0.2144
362.387	0.2123
362.72	0.21
363.054	0.2088
363.387	0.2067
363.721	0.2049
364.054	0.2033
364.387	0.2013
364.721	0.1998
365.054	0.1977
365.387	0.1962
365.72	0.1943
366.053	0.1934
366.385	0.1914
366.718	0.1907
367.051	0.1888
367.383	0.1871
367.716	0.1861
368.048	0.1848
368.381	0.1828
368.713	0.1815
369.045	0.1803
369.377	0.1789
369.709	0.1772
370.041	0.1763
370.373	0.1749
370.705	0.1728
371.037	0.1715
371.368	0.1695
371.7	0.1684
372.031	0.166
372.363	0.1647
372.694	0.1621
373.025	0.1606
373.356	0.159
373.688	0.1564
374.019	0.1546
374.35	0.1521
374.68	0.1502
375.011	0.1478
375.342	0.1461
375.673	0.144
376.003	0.1426
376.334	0.1411
376.664	0.1392
376.995	0.1372
377.325	0.1363
377.655	0.1344
377.985	0.1334
378.315	0.1323
378.645	0.1307
378.975	0.1291
379.305	0.1273
379.635	0.1267
379.964	0.125
380.294	0.1237
380.623	0.1216
380.953	0.1209
381.282	0.12
381.611	0.1181
381.941	0.1172
382.27	0.1155
382.599	0.1138
382.928	0.1127
383.257	0.1111
383.585	0.1095
383.914	0.1081
384.243	0.1064
384.571	0.1044
384.9	0.1032
385.228	0.1019
385.557	0.0996
385.885	0.0982
386.213	0.0964
386.541	0.0951
386.869	0.0932
387.197	0.0916
387.525	0.0901
387.853	0.0888
388.181	0.0879
388.508	0.0867
388.836	0.0853
389.164	0.0842
389.491	0.083
389.818	0.0816
390.146	0.0799
390.473	0.0786
390.8	0.0784
391.127	0.0766
391.454	0.076
391.781	0.0747
392.108	0.0734
392.435	0.0721
392.761	0.0714
393.088	0.0708
393.415	0.0696
393.741	0.0693
394.067	0.0679
394.394	0.0678
394.72	0.0669
395.046	0.0656
395.372	0.0645
395.698	0.0637
396.024	0.063
396.35	0.0618
396.676	0.0619
397.001	0.0612
397.327	0.0594
397.653	0.0582
397.978	0.0573
398.303	0.0565
398.629	0.0556
398.954	0.0559
399.279	0.0551
399.604	0.0545
399.929	0.0536
400.254	0.0529
400.579	0.0525
400.904	0.0512
401.229	0.0508
401.553	0.0493
401.878	0.049
402.202	0.0489
402.527	0.0489
402.851	0.048
403.175	0.0472
403.5	0.0473
403.824	0.0472
404.148	0.0463
404.472	0.0464
404.796	0.0458
405.119	0.0448
405.443	0.0449
405.767	0.0443
406.09	0.0443
406.414	0.0447
406.737	0.0439
407.061	0.0439
407.384	0.0437
407.707	0.0431
408.03	0.0437
408.353	0.0431
408.676	0.0434
408.999	0.0427
409.322	0.0433
409.645	0.0432
409.968	0.042
410.29	0.0421
410.613	0.0418
410.935	0.0417
411.258	0.0427
411.58	0.0415
411.902	0.042
412.224	0.042
412.546	0.0419
412.868	0.0409
413.19	0.0419
413.512	0.0415
413.834	0.0417
414.156	0.0421
414.477	0.0414
414.799	0.0414
415.121	0.0417
415.442	0.0416
415.763	0.0418
416.085	0.0418
416.406	0.0421
416.727	0.0417
417.048	0.0416
417.369	0.0413
417.69	0.0413
418.011	0.0417
418.331	0.0417
418.652	0.0416
418.973	0.0418
419.293	0.042
419.614	0.0419
419.934	0.0413
420.254	0.0419
420.574	0.0414
420.895	0.0419
421.215	0.0411
421.535	0.0412
421.855	0.042
422.174	0.0415
422.494	0.0418
422.814	0.0423
423.134	0.0417
423.453	0.0419
423.773	0.0419
424.092	0.0416
424.411	0.0417
424.731	0.0421
425.05	0.0422
425.369	0.0425
425.688	0.0422
426.007	0.0423
426.326	0.0429
426.644	0.0435
426.963	0.0426
427.282	0.0424
427.6	0.0432
427.919	0.0429
428.237	0.043
428.556	0.0434
428.874	0.0433
429.192	0.0427
429.51	0.0432
429.828	0.0431
430.146	0.0436
430.464	0.0435
430.782	0.0438
431.1	0.0437
431.418	0.0435
431.735	0.0434
432.053	0.044
432.37	0.0438
432.688	0.0437
433.005	0.0436
433.322	0.0436
433.639	0.0431
433.957	0.043
434.274	0.0441
434.591	0.044
434.907	0.0445
435.224	0.0436
435.541	0.0439
435.858	0.0448
436.174	0.0444
436.491	0.0444
436.807	0.044
437.124	0.0435
437.44	0.0433
437.756	0.0428
438.072	0.0433
438.388	0.0442
438.704	0.0441
439.02	0.0436
439.336	0.0441
439.652	0.044
439.968	0.0436
440.283	0.0431
440.599	0.0437
440.914	0.0436
441.23	0.0434
441.545	0.0434
441.86	0.0434
442.175	0.0431
442.491	0.0433
442.806	0.0432
443.121	0.0434
443.435	0.043
443.75	0.0433
444.065	0.0434
444.38	0.0435
444.694	0.0427
445.009	0.0433
445.323	0.043
445.638	0.0432
445.952	0.043
446.266	0.043
446.58	0.0434
446.894	0.0431
447.208	0.0435
447.522	0.043
447.836	0.0422
448.15	0.0423
448.464	0.0425
448.777	0.0423
449.091	0.0417
449.404	0.0426
449.718	0.042
450.031	0.0421
450.345	0.0414
450.658	0.0422
450.971	0.0412
451.284	0.0409
451.597	0.0418
451.91	0.0422
452.223	0.0408
452.535	0.0421
452.848	0.0412
453.161	0.0411
453.473	0.0415
453.786	0.0416
454.098	0.0407
454.411	0.0409
454.723	0.0404
455.035	0.0406
455.347	0.0408
455.659	0.0409
455.971	0.0409
456.283	0.0409
456.595	0.0403
456.907	0.0405
457.218	0.0409
457.53	0.0397
457.841	0.0395
458.153	0.0392
458.464	0.0391
458.776	0.0382
459.087	0.0385
459.398	0.039
459.709	0.0387
460.02	0.0381
460.331	0.0378
460.642	0.0373
460.953	0.038
461.263	0.0382
461.574	0.0377
461.885	0.0379
462.195	0.0373
462.506	0.0375
462.816	0.037
463.126	0.0359
463.437	0.0364
463.747	0.0357
464.057	0.0363
464.367	0.0363
464.677	0.0352
464.987	0.0357
465.296	0.0355
465.606	0.0349
465.916	0.0342
466.225	0.0345
466.535	0.0346
466.844	0.0342
467.154	0.0339
467.463	0.0344
467.772	0.0338
468.081	0.0328
468.39	0.0333
468.699	0.0333
469.008	0.033
469.317	0.0332
469.626	0.0326
469.935	0.0327
470.243	0.0326
470.552	0.0327
470.86	0.0326
471.169	0.0319
471.477	0.0321
471.785	0.0318
472.093	0.0317
472.402	0.0322
472.71	0.0313
473.018	0.0306
473.326	0.0306
473.633	0.0302
473.941	0.0301
474.249	0.0302
474.556	0.03
474.864	0.029
475.171	0.0293
475.479	0.0291
475.786	0.0297
476.094	0.0291
476.401	0.0291
476.708	0.0285
477.015	0.0292
477.322	0.0279
477.629	0.028
477.936	0.0276
478.242	0.0274
478.549	0.0277
478.856	0.027
479.162	0.0269
479.469	0.0269
479.775	0.0274
480.081	0.0255
480.388	0.0264
480.694	0.0257
481	0.0256
481.306	0.026
481.612	0.0252
481.918	0.0249
482.224	0.0252
482.53	0.0249
482.835	0.0243
483.141	0.0224
483.446	0.023
483.752	0.0232
484.057	0.0223
484.363	0.0223
484.668	0.0222
484.973	0.0224
485.278	0.022
485.583	0.022
485.888	0.0217
486.193	0.0215
486.498	0.0222
486.803	0.0217
487.107	0.0214
487.412	0.0205
487.717	0.021
488.021	0.0214
488.325	0.0201
488.63	0.0199
488.934	0.0194
489.238	0.0208
489.542	0.0201
489.846	0.0188
490.15	0.0202
490.454	0.0192
490.758	0.0194
491.062	0.0193
491.366	0.0188
491.669	0.0192
491.973	0.0186
492.276	0.0184
492.58	0.0168
492.883	0.0188
493.186	0.0184
493.489	0.0174
493.792	0.0182
494.096	0.0173
494.399	0.0171
494.701	0.017
495.004	0.0174
495.307	0.0161
495.61	0.0155
495.912	0.0163
496.215	0.0154
496.517	0.0157
496.82	0.0157
497.122	0.0159
497.424	0.0148
497.727	0.0144
498.029	0.0147
498.331	0.015
498.633	0.0148
498.935	0.0145
499.237	0.0147
499.538	0.0136
499.84	0.0136
500.142	0.0146
500.443	0.0141
500.745	0.0142
501.046	0.0134
501.348	0.013
501.649	0.0141
501.95	0.0127
502.251	0.0126
502.552	0.0123
502.853	0.0121
503.154	0.0126
503.455	0.0108
503.756	0.0126
504.057	0.0121
504.357	0.0111
504.658	0.0113
504.958	0.0117
505.259	0.0118
505.559	0.0122
505.859	0.0107
506.16	0.0115
506.46	0.0116
506.76	0.0115
507.06	0.01
507.36	0.0111
507.66	0.0104
507.96	0.0109
508.259	0.0097
508.559	0.0095
508.859	0.0104
509.158	0.0094
509.457	0.0092
509.757	0.0105
510.056	0.0097
510.355	0.0084
510.655	0.0079
510.954	0.0095
511.253	0.0096
511.552	0.0089
511.851	0.0083
512.149	0.0084
512.448	0.008
512.747	0.0088
513.045	0.0072
513.344	0.0082
513.642	0.0091
513.941	0.0089
514.239	0.0083
514.537	0.0079
514.836	0.0083
515.134	0.0077
515.432	0.0073
515.73	0.0078
516.028	0.0064
516.326	0.0083
516.623	0.0069
516.921	0.0072
517.219	0.0081
517.516	0.0074
517.814	0.0071
518.111	0.008
518.409	0.0085
518.706	0.0076
519.003	0.0077
519.3	0.007
519.597	0.0063
519.894	0.0069
520.191	0.0078
520.488	0.0075
520.785	0.0058
521.082	0.0059
521.378	0.0062
521.675	0.0055
521.971	0.0052
522.268	0.0061
522.564	0.0057
522.861	0.0059
523.157	0.0057
523.453	0.0052
523.749	0.0064
524.045	0.0064
524.341	0.0061
524.637	0.0052
524.933	0.0041
525.229	0.0056
525.524	0.0048
525.82	0.0058
526.115	0.0054
526.411	0.0048
526.706	0.0047
527.002	0.0053
527.297	0.0035
527.592	0.0066
527.887	0.0048
528.182	0.0051
528.477	0.0064
528.772	0.0038
529.067	0.0049
529.362	0.0055
529.657	0.005
529.951	0.0036
530.246	0.0047
530.54	0.0024
530.835	0.0038
531.129	0.0026
531.423	0.0042
531.718	0.004
532.012	0.0039
532.306	0.0035
532.6	0.004
532.894	0.0035
533.188	0.0046
533.482	0.0034
533.775	0.0041
534.069	0.0035
534.363	0.0029
534.656	0.004
534.95	0.0017
535.243	0.0037
535.536	0.0032
535.83	0.0037
536.123	0.0026
536.416	0.0041
536.709	0.0036
537.002	0.0041
537.295	0.0034
537.588	0.0039
537.881	0.0028
538.173	0.0033
538.466	0.0023
538.759	0.0024
539.051	0.0022
539.344	0.0025
539.636	0.0029
539.928	0.0029
540.22	0.0033
540.513	0.0021
540.805	0.0029
541.097	0.0033
541.389	0.0036
541.681	0.0026
541.972	0.0049
542.264	0.0023
542.556	0.0026
542.847	0.0037
543.139	0.0041
543.431	0.0048
543.722	0.0036
544.013	0.0045
544.305	0.0048
544.596	0.005
544.887	0.0033
545.178	0.0032
545.469	0.0036
545.76	0.0027
546.051	0.0035
546.342	0.0049
546.632	0.0015
546.923	0.004
547.214	0.0036
547.504	0.0029
547.795	0.0033
548.085	0.0035
548.375	0.0028
548.666	0.0036
548.956	0.0023
549.246	0.0037
549.536	0.0022
549.826	0.0028
550.116	0.0026
550.406	0.0038
550.695	0.0045
550.985	0.0032
551.275	0.0044
551.564	0.0027
551.854	0.0034
552.143	0.0041
552.433	0.0034
552.722	0.0041
553.011	0.0036
553.3	0.0045
553.589	0.0034
553.879	0.003
554.167	0.0035
554.456	0.0032
554.745	0.0027
555.034	0.0019
555.323	0.0006
555.611	0.0029
555.9	0.0033
556.188	0.0036
556.477	0.0029
556.765	0.0018
557.053	0.0028
557.342	0.0021
557.63	0.0029
557.918	0.0031
558.206	0.0029
558.494	0.0037
558.782	0.003
559.069	0.0029
559.357	0.0022
559.645	0.0019
559.932	0.0032
560.22	0.0025
560.507	0.0031
560.795	0.0029
561.082	0.0022
561.37	0.0031
561.657	0.0037
561.944	0.0032
562.231	0.003
562.518	0.0012
562.805	0.0029
563.092	0.0033
563.379	0.0032
563.665	0.0029
563.952	0.0035
564.239	0.004
564.525	0.003
564.811	0.0046
565.098	0.0034
565.384	0.0036
565.67	0.0033
565.957	0.0039
566.243	0.0032
566.529	0.0033
566.815	0.0045
567.101	0.0024
567.387	0.0035
567.672	0.0025
567.958	0.0039
568.244	0.0039
568.529	0.0027
568.815	0.0014
569.1	0.0033
569.386	0.0032
569.671	0.0032
569.956	0.0028
570.242	0.0033
570.527	0.0035
570.812	0.0033
571.097	0.0032
571.382	0.0034
571.666	0.0031
571.951	0.0028
572.236	0.0035
572.521	0.0033
572.805	0.0037
573.09	0.0025
573.374	0.0028
573.659	0.0029
573.943	0.003
574.227	0.0022
574.511	0.0037
574.795	0.003
575.079	0.0033
575.363	0.0032
575.647	0.0038
575.931	0.0033
576.215	0.0033
576.499	0.0021
576.782	0.0031
577.066	0.0025
577.349	0.0032
577.633	0.0032
577.916	0.0034
578.2	0.0042
578.483	0.0042
578.766	0.0028
579.049	0.0044
579.332	0.0034
579.615	0.0029
579.898	0.003
580.181	0.0036
580.464	0.0029
580.746	0.0019
581.029	0.0032
581.312	0.0023
581.594	0.0024
581.877	0.0034
582.159	0.0038
582.441	0.0032
582.724	0.0027
583.006	0.0027
583.288	0.0023
583.57	0.0021
583.852	0.0016
584.134	0.0017
584.416	0.0024
584.697	0.0024
584.979	0.0033
585.261	0.0028
585.542	0.0028
585.824	0.0035
586.105	0.0027
586.387	0.0027
586.668	0.0024
586.949	0.0025
587.231	0.0019
587.512	0.0032
587.793	0.0022
588.074	0.0037
588.355	0.003
588.636	0.0032
588.916	0.0035
589.197	0.0039
589.478	0.0037
589.758	0.003
590.039	0.0031
590.319	0.003
590.6	0.0023
590.88	0.0028
591.16	0.0024
591.441	0.0035
591.721	0.0024
592.001	0.0026
592.281	0.0031
592.561	0.003
592.841	0.0026
593.12	0.0028
593.4	0.0027
593.68	0.0032
593.959	0.0032
594.239	0.0038
594.518	0.0025
594.798	0.0031
595.077	0.0035
595.356	0.0028
595.636	0.0026
595.915	0.0035
596.194	0.0033
596.473	0.0022
596.752	0.0026
597.031	0.0021
597.31	0.0018
597.588	0.0023
597.867	0.002
598.146	0.0025
598.424	0.0022
598.703	0.0024
598.981	0.0021
599.259	0.003
599.538	0.0037
599.816	0.0026
600.094	0.003
600.372	0.0031
600.65	0.0034
600.928	0.0034
601.206	0.003
601.484	0.0035
601.762	0.0028
602.04	0.0021
602.317	0.0024
602.595	0.0032
602.872	0.0024
603.15	0.0025
603.427	0.0013
603.704	0.0014
603.982	0.0019
604.259	0.002
604.536	0.002
604.813	0.002
605.09	0.0021
605.367	0.0016
605.644	0.002
605.921	0.0025
606.197	0.0025
606.474	0.0026
606.751	0.0033
607.027	0.0028
607.304	0.0024
607.58	0.0027
607.856	0.0017
608.133	0.0036
608.409	0.0027
608.685	0.002
608.961	0.0037
609.237	0.0026
609.513	0.0023
609.789	0.0025
610.065	0.0017
610.341	0.0026
610.616	0.0028
610.892	0.004
611.167	0.0035
611.443	0.0021
611.718	0.0028
611.994	0.002
612.269	0.0033
612.544	0.0025
612.819	0.0027
613.095	0.0027
613.37	0.0027
613.645	0.0026
613.919	0.0015
614.194	0.0022
614.469	0.0013
614.744	0.0014
615.019	0.0019
615.293	0.0011
615.568	0.0016
615.842	0.0014
616.116	0.0017
616.391	0.0009
616.665	0.0023
616.939	0.0012
617.213	0.0016
617.488	0.0013
617.762	0.0016
618.035	0.0004
618.309	0.0016
618.583	0.0012
618.857	0.0012
619.131	0.0013
619.404	0.0015
619.678	0.0016
619.951	0.0001
620.225	0.0003
620.498	0.0011
620.771	0.0017
621.045	0.0022
621.318	0.001
621.591	0.0013
621.864	0.0012
622.137	0.0007
622.41	0.0015
622.683	0.0002
622.956	0.0019
623.228	0.0018
623.501	0.0025
623.774	0.0024
624.046	0.0019
624.319	0.0019
624.591	0.0004
624.863	0.0014
625.136	0.0007
625.408	0.0014
625.68	0.001
625.952	0.0011
626.224	0.0022
626.496	0.0015
626.768	0.0008
627.04	0.0015
627.311	0.0019
627.583	0.0019
627.855	0.0016
628.126	0.0021
628.398	0.0021
628.669	0.0015
628.941	-0.0003
629.212	-0.0001
629.483	0.0011
629.755	0.0011
630.026	0.0003
630.297	-0.0008
630.568	-0.0008
630.839	-0.0004
631.11	-0.0009
631.38	0.0001
631.651	0.0001
631.922	-0.001
632.192	-0.0013
632.463	-0.0003
632.733	-0.0011
633.004	0
633.274	-0.0015
633.545	0.0009
633.815	0.0017
634.085	0.0016
634.355	0.0016
634.625	0.0028
634.895	0.0016
635.165	-0.0002
635.435	0.0006
635.705	0.0005
635.974	-0.0001
636.244	0.0006
636.514	0.001
636.783	0.0017
637.053	0.0013
637.322	0.0005
637.591	0.0012
637.861	0.0009
638.13	0.0009
638.399	0.0012
638.668	0.001
638.937	0.0007
639.206	0.0015
639.475	0
639.744	0.0006
640.013	0.001
640.281	0.0014
640.55	0.0014
640.819	0.0021
641.087	0.0017
641.356	0.0015
641.624	0.0004
641.892	0.0005
642.161	0.0011
642.429	0.0025
642.697	0.0012
642.965	0.0016
643.233	0.0021
643.501	0.0009
643.769	0.0012
644.037	0.0015
644.305	0.001
644.572	-0.0005
644.84	-0.0006
645.108	0.0003
645.375	-0.0011
645.643	-0
645.91	0.0001
646.177	0.0017
646.445	0.0028
646.712	0.0038
646.979	0.0032
647.246	0.0026
647.513	0.0028
647.78	0.0025
648.047	0.0027
648.314	0.0025
648.58	0.0032
648.847	0.0016
649.114	0.0002
649.38	0.0003
649.647	0.0002
649.913	-0.0001
650.18	0.0003
650.446	0.0007
650.712	0.0025
650.978	0.003
651.245	0.0028
651.511	0.0016
651.777	0.0017
652.043	0.0019
652.309	0.0017
652.574	0.0024
652.84	0.0013
653.106	0.0015
653.371	0.0008
653.637	0.0012
653.903	0.002
654.168	0.0017
654.433	0.0023
654.699	0.0017
654.964	0.002
655.229	0.0026
655.494	0.0017
655.759	-0.0002
656.024	0.0005
656.289	-0
656.554	0.0023
656.819	0.0011
657.084	0.0014
657.349	0.0023
657.613	0.0028
657.878	0.0022
658.142	0.0029
658.407	0.0023
658.671	0.0013
658.936	0.0012
659.2	0.0012
659.464	0.0016
659.728	0.001
659.992	-0.0001
660.256	-0.0002
660.52	0.0004
660.784	0
661.048	-0.0003
661.312	-0.0017
661.575	-0.0023
661.839	-0.0019
662.103	-0.0021
662.366	-0.0025
662.63	-0.0015
662.893	-0.0001
663.156	-0.0005
663.42	-0.0009
663.683	-0
663.946	0.0011
664.209	0.002
664.472	0.0015
664.735	0.0024
664.998	0.0011
665.261	-0.0001
665.524	0.0002
665.786	-0.0006
666.049	0.0005
666.312	0.0001
666.574	0.0001
666.837	-0.0008
667.099	-0.0019
667.361	-0.0011
667.624	-0.0015
667.886	-0.0016
668.148	-0.002
668.41	0.0007
668.672	-0.001
668.934	0.0004
669.196	-0.0001
669.458	0.0002
669.72	0.0006
669.982	0.0006
670.243	0.0015
670.505	0.0014
670.766	0.0011
671.028	0.0017
671.289	0.0002
671.551	0.0011
671.812	-0.0007
672.073	0.0004
672.334	-0.0004
672.596	0.0004
672.857	-0.0005
673.118	-0.0005
673.379	-0.001
673.639	-0.0021
673.9	-0.0011
674.161	-0.0028
674.422	-0.0036
674.682	-0.0028
674.943	-0.0028
675.203	-0.0015
675.464	-0.001
675.724	0.0002
675.985	0.0004
676.245	0.0006
676.505	0.0014
676.765	0.0011
677.025	0.0012
677.285	0.0006
677.545	0.001
677.805	0.0016
678.065	0.0018
678.325	0.0023
678.585	0.0012
678.844	0.0008
679.104	0.0018
679.363	0.0021
679.623	0.0027
679.882	0.0026
680.142	0.003
680.401	0.0032
680.66	0.0033
680.919	0.002
681.178	0.0037
681.437	0.0033
681.696	0.0027
681.955	0.0027
682.214	0.0035
682.473	0.0033
682.732	0.0024
682.99	0.001
683.249	0.002
683.508	0.0018
683.766	0.002
684.024	0.0032
684.283	0.0025
684.541	0.0024
684.799	0.0033
685.058	0.0028
685.316	0.0019
685.574	0.0025
685.832	0.0027
686.09	0.0026
686.348	0.0026
686.606	0.0023
686.863	0.0025
687.121	0.0026
687.379	0.002
687.636	0.0023
687.894	0.0029
688.151	0.0033
688.409	0.0026
688.666	0.003
688.923	0.0026
689.181	0.0027
689.438	0.0017
689.695	0.002
689.952	0.001
690.209	0.0008
690.466	0.0016
690.723	0.0023
690.979	0.0017
691.236	0.0013
691.493	0.0015
691.75	0.0025
692.006	0.0028
692.263	0.0021
692.519	0.002
692.775	0.0003
693.032	-0.0003
693.288	0.0011
693.544	0.0013
693.8	0.001
694.056	0.0013
694.313	0.001
694.568	0.0016
694.824	0.0016
695.08	0.0025
695.336	0.0021
695.592	0.0021
695.847	0.0034
696.103	0.0021
696.359	0.0014
696.614	0.0014
696.869	0.0012
697.125	-0.0002
697.38	0.0002
697.635	-0.0006
697.891	0.0001
698.146	-0.0003
698.401	0.0003
698.656	0.0004
698.911	0.0017
699.166	0.0004
699.42	0.0006
699.675	0.0005
699.93	-0.0003
700.185	0.0002
700.439	0.0015
700.694	0.0008
700.948	0.0007
701.203	0.0017
701.457	0.001
701.711	0.0003
701.965	-0.0007
702.22	-0.0006
702.474	-0.0003
702.728	-0.001
702.982	-0.001
703.236	-0.0003
703.49	-0.0014
703.743	-0.0007
703.997	-0.0003
704.251	-0.0003
704.504	0.0003
704.758	-0.0005
705.012	-0.0002
705.265	-0.0002
705.518	-0.001
705.772	-0.0015
706.025	-0.001
706.278	-0.0019
706.531	-0.0017
706.785	-0.0027
707.038	-0.0007
707.291	-0.0011
707.543	-0.0007
707.796	-0.0002
708.049	-0.001
708.302	-0.0011
708.555	-0.0008
708.807	-0.0004
709.06	-0.0014
709.312	-0.002
709.565	-0.0025
709.817	-0.0032
710.069	-0.002
710.322	-0.0015
710.574	-0.0014
710.826	-0.001
711.078	-0.0006
711.33	-0.0004
711.582	-0.0004
711.834	0.0007
712.086	0.0007
712.338	0.0011
712.59	0.0017
712.841	0.001
713.093	0.0011
713.344	0.0008
713.596	0.0007
713.847	0.0016
714.099	0.0013
714.35	0.0023
714.601	0.0023
714.853	0.0032
715.104	0.0025
715.355	0.0016
715.606	0.0019
715.857	0.0018
716.108	0.0024
716.359	0.0024
716.609	0.0024
716.86	0.0012
717.111	-0
717.361	-0.0006
717.612	-0.0003
717.863	-0.0006
718.113	-0.0011
718.363	-0.0009
718.614	0.0003
718.864	-0.0004
719.114	-0.0002
719.364	-0.0001
719.614	-0.001
719.865	-0.0012
720.114	-0.0012
720.364	-0.0007
720.614	0.0008
720.864	0.0014
721.114	0.0009
721.364	0.0023
721.613	0.0023
721.863	0.0026
722.112	0.0022
722.362	0.0027
722.611	0.0023
722.86	0.0013
723.11	0.0002
723.359	0.0005
723.608	0.0023
723.857	0.0028
724.106	0.0041
724.355	0.004
724.604	0.0048
724.853	0.003
725.102	0.0021
725.351	0.0017
725.599	0.0013
725.848	0.0016
726.097	0.0012
726.345	0.0007
726.594	0.0009
726.842	0.0004
727.09	-0
727.339	0
727.587	0
727.835	-0.0014
728.083	-0.0013
728.331	-0.0009
728.579	-0.0016
728.827	-0.0006
729.075	-0.0007
729.323	0.0009
729.571	0.0012
729.818	0.0001
730.066	0.0016
730.314	0.0016
730.561	-0.0006
730.809	-0.0009
731.056	-0.0005
731.303	-0.0002
731.551	-0.0002
731.798	-0.0008
732.045	-0.0006
732.292	-0.0006
732.539	-0.0007
732.786	-0.0002
733.033	0.0011
733.28	0.0017
733.527	0.0026
733.774	0.0014
734.021	0.0032
734.267	0.0033
734.514	0.003
734.76	0.0034
735.007	0.004
735.253	0.0044
735.5	0.0043
735.746	0.0045
735.992	0.0042
736.238	0.004
736.485	0.0046
736.731	0.0044
736.977	0.0032
737.223	0.0038
737.469	0.0043
737.715	0.0044
737.96	0.0056
738.206	0.0047
738.452	0.0064
738.697	0.0062
738.943	0.0056
739.189	0.0038
739.434	0.0025
739.679	0.0012
739.925	0.0015
740.17	0.0009
740.415	0.0011
740.66	0.0018
740.906	0.0021
741.151	0.0018
741.396	0.0019
741.641	0.0036
741.886	0.0038
742.13	0.004
742.375	0.0044
742.62	0.0049
742.865	0.0038
743.109	0.0037
743.354	0.0025
743.598	0.0031
743.843	0.0029
744.087	0.003
744.331	0.0035
744.576	0.0031
744.82	0.0024
745.064	0.0023
745.308	0.0017
745.552	0.0013
745.796	0.002
746.04	0.0014
746.284	0.0006
746.528	-0.0007
746.771	0
747.015	-0.0009
747.259	-0.0007
747.502	-0.0001
747.746	0.0013
747.989	0.0007
748.233	0.0015
748.476	0.002
748.719	0.0023
748.963	0.0027
749.206	0.0022
749.449	0.0029
749.692	0.0017
749.935	0.0038
750.178	0.0024
750.421	0.0029
750.664	0.0028
750.906	0.0026
751.149	0.002
751.392	0.0004
751.635	-0.0011
751.877	-0.001
752.12	-0.0015
752.362	-0.0007
752.604	-0.001
752.847	0
753.089	0.0003
753.331	0.001
753.573	0.0012
753.816	0.0019
754.058	0.0026
754.3	0.0033
754.542	0.0031
754.783	0.0022
755.025	0.0022
755.267	0.0009
755.509	-0.0003
755.75	0
755.992	0.0007
756.234	0.0002
756.475	-0.0009
756.716	-0.0006
756.958	-0.0003
757.199	0.0002
757.44	0.0007
757.682	0.0004
757.923	0.0007
758.164	0.0001
758.405	-0.0018
758.646	-0.0003
758.887	-0.0006
759.128	-0
759.369	-0.0015
759.609	-0.0013
759.85	-0.0008
760.091	-0.0002
760.331	-0.0012
760.572	-0.0007
760.812	-0.001
761.053	-0.0013
761.293	-0.0004
761.533	0.0004
761.774	0.0004
762.014	0
762.254	-0.0008
762.494	-0.0009
762.734	-0.0005
762.974	-0.0006
763.214	-0.0016
763.454	-0.002
763.694	-0.0016
763.933	-0.0023
764.173	-0.0008
764.413	-0.0012
764.652	-0.0003
764.892	0.0003
765.131	0.0009
765.371	0.0006
765.61	0.0014
765.849	0.0003
766.089	0.0009
766.328	0.0014
766.567	0.0011
766.806	0.0012
767.045	0.0014
767.284	0.0016
767.523	0.0029
767.762	0.0029
768.001	0.002
768.239	0.0016
768.478	0.0008
768.717	0.001
768.955	0.002
769.194	0.0012
769.432	0.0016
769.671	0.0022
769.909	0.0016
770.148	0.0016
770.386	0.0021
770.624	0.0019
770.862	0.0018
771.1	0.0007
771.338	0.0013
771.576	0.0013
771.814	0.0021
772.052	0.0014
772.29	0.0013
772.528	0.0023
772.765	0.0021
773.003	0.0029
773.24	0.0018
773.478	0.0017
773.716	0.0029
773.953	0.0019
774.19	0.0022
774.428	0.0022
774.665	0.002
774.902	0.0026
775.139	0.0022
775.376	0.0024
775.613	0.001
775.85	0.0009
776.087	0.0008
776.324	0.0003
776.561	0.0016
776.798	0.0025
777.034	0.0033
777.271	0.0041
777.508	0.0045
777.744	0.0041
777.981	0.0035
778.217	0.0034
778.454	0.0036
778.69	0.0029
778.926	0.0032
779.162	0.0034
779.399	0.0023
779.635	0.0016
779.871	0.0022
780.107	0.0033
780.343	0.0024
780.579	0.0046
780.814	0.0032
781.05	0.0032
781.286	0.0035
781.522	0.0032
781.757	0.0049
781.993	0.0047
782.228	0.0053
782.464	0.004
782.699	0.0027
782.934	0.0026
783.17	0.003
783.405	0.0025
783.64	0.0017
783.875	0.0021
784.11	0.0026
784.345	0.003
784.58	0.0031
784.815	0.0027
785.05	0.0029
785.285	0.0005
785.52	0.001
785.754	0.0016
785.989	0.0009
786.223	0.0001
786.458	0.0002
786.692	0.0006
786.927	-0.0006
787.161	0.0006
787.396	-0.0004
787.63	-0.0006
787.864	-0.0007
788.098	-0.0004
788.332	-0.0001
788.566	0
788.8	-0.0006
789.034	0
789.268	0.0009
789.502	0.001
789.736	0.0015
789.969	0.002
790.203	0.0017
790.437	0.0011
790.67	0.0007
790.904	0.0002
791.137	-0.0009
791.37	-0.0006
791.604	-0.0011
791.837	-0.0006
792.07	-0.0007
792.303	0.0003
792.537	-0.0008
792.77	-0.0004
793.003	-0.0009
793.236	-0.0016
793.469	-0.001
793.701	-0.0008
793.934	-0.0015
794.167	-0.0008
794.4	-0.0005
794.632	0.0007
794.865	-0.0008
795.097	0.0005
795.33	0.0006
795.562	-0.0001
795.795	0.0002
796.027	0.0005
796.259	-0.0007
796.491	-0.0005
796.724	-0.0007
796.956	0.0003
797.188	-0.0003
797.42	-0.0005
797.652	-0.0005
797.883	-0.0013
798.115	-0.001
798.347	-0.0015
798.579	-0.002
798.81	-0.0029
799.042	-0.0023
799.274	-0.0029
799.505	-0.0027
799.737	-0.0033
799.968	-0.002
800.199	-0.0019
800.431	-0.0023
800.662	-0.0019
800.893	-0.0012
801.124	-0.0007
801.355	-0.0006
801.586	-0.0002
801.817	-0.0002
802.048	-0.0006
802.279	-0.0001
802.51	-0.0002
802.741	-0.0016
802.971	-0.002
803.202	-0.0022
803.433	-0.002
803.663	-0.0014
803.894	-0.0006
804.124	-0.0002
804.354	-0.0002
804.585	-0.0001
804.815	0
805.045	-0.0008
805.275	-0.0027
805.506	-0.027
805.736	0.0585
805.966	-0.1137
806.196	0.0237
