Data from 03 0.2 mM BQDS 0.4 mM K2Cr2O7 1 M H2SO4 5 min_Absorbance_19-12-42-939.txt Node
Date: Wed Dec 08 19:12:42 EST 2021
User: kwabilab-user
Spectrometer: HDX00518
Trigger mode: 0
Integration Time (sec): 5.000000E-2
Scans to average: 50
Nonlinearity correction enabled: false
Boxcar width: 0
Storing dark spectrum: false
XAxis mode: Wavelengths
Number of Pixels in Spectrum: 2068
>>>>>Begin Spectral Data<<<<<
195.27	-0.1536
195.642	-0.0119
196.014	-0.088
196.386	-0.1526
196.758	-0.0697
197.129	-0.028
197.501	-0.009
197.872	0.0363
198.244	0.0754
198.615	0.0824
198.986	0.0641
199.357	0.0541
199.728	0.0732
200.099	0.0769
200.47	0.0694
200.841	0.0501
201.212	0.0669
201.582	0.0536
201.953	0.0819
202.323	0.0657
202.694	0.0469
203.064	0.067
203.434	0.0538
203.804	0.0724
204.174	0.0595
204.544	0.0536
204.914	0.0624
205.284	0.0696
205.653	0.0728
206.023	0.0601
206.393	0.053
206.762	0.0631
207.131	0.0643
207.501	0.0709
207.87	0.0662
208.239	0.0695
208.608	0.0581
208.977	0.0757
209.346	0.0719
209.715	0.0719
210.083	0.0817
210.452	0.0618
210.82	0.0853
211.189	0.0871
211.557	0.0897
211.925	0.1075
212.294	0.0973
212.662	0.1051
213.03	0.1084
213.398	0.1055
213.766	0.1222
214.133	0.1201
214.501	0.1358
214.869	0.1309
215.236	0.1665
215.604	0.1817
215.971	0.1872
216.338	0.2015
216.705	0.2178
217.072	0.2533
217.439	0.2615
217.806	0.2918
218.173	0.3121
218.54	0.3447
218.907	0.3851
219.273	0.4172
219.64	0.4429
220.006	0.4916
220.373	0.5336
220.739	0.564
221.105	0.5936
221.471	0.6275
221.837	0.6745
222.203	0.7276
222.569	0.7494
222.935	0.7781
223.3	0.811
223.666	0.8506
224.031	0.866
224.397	0.8886
224.762	0.9154
225.127	0.9418
225.493	0.9539
225.858	0.967
226.223	0.9727
226.588	0.9881
226.952	0.9842
227.317	0.9962
227.682	0.9884
228.046	0.9902
228.411	0.9964
228.775	0.9945
229.14	0.9981
229.504	0.991
229.868	0.9895
230.232	0.9796
230.596	0.9774
230.96	0.9738
231.324	0.9642
231.688	0.9557
232.052	0.9527
232.415	0.9399
232.779	0.9387
233.142	0.9275
233.505	0.9168
233.869	0.9111
234.232	0.8975
234.595	0.8886
234.958	0.8839
235.321	0.8739
235.684	0.8637
236.047	0.8523
236.409	0.8442
236.772	0.8348
237.134	0.8288
237.497	0.8161
237.859	0.8096
238.222	0.8005
238.584	0.7929
238.946	0.7818
239.308	0.7776
239.67	0.7667
240.032	0.7618
240.393	0.7548
240.755	0.7466
241.117	0.7396
241.478	0.7336
241.84	0.7256
242.201	0.7188
242.562	0.7111
242.924	0.7052
243.285	0.698
243.646	0.6924
244.007	0.6885
244.368	0.6826
244.728	0.6737
245.089	0.6736
245.45	0.6665
245.81	0.6635
246.171	0.6568
246.531	0.6519
246.891	0.6497
247.252	0.6429
247.612	0.6417
247.972	0.6348
248.332	0.6318
248.692	0.6275
249.051	0.6275
249.411	0.6219
249.771	0.6154
250.13	0.6137
250.49	0.6114
250.849	0.6103
251.208	0.6054
251.568	0.6034
251.927	0.5997
252.286	0.5984
252.645	0.5967
253.004	0.5931
253.363	0.5887
253.721	0.5899
254.08	0.585
254.439	0.5835
254.797	0.58
255.155	0.5781
255.514	0.5757
255.872	0.5756
256.23	0.5719
256.588	0.5693
256.946	0.5686
257.304	0.5654
257.662	0.5643
258.02	0.5644
258.377	0.5607
258.735	0.5582
259.093	0.5569
259.45	0.5547
259.807	0.5529
260.165	0.5518
260.522	0.5484
260.879	0.5466
261.236	0.5453
261.593	0.5428
261.95	0.5401
262.306	0.5393
262.663	0.5355
263.02	0.5355
263.376	0.5322
263.733	0.5313
264.089	0.529
264.445	0.5271
264.802	0.5244
265.158	0.5233
265.514	0.5213
265.87	0.519
266.226	0.5173
266.581	0.5131
266.937	0.5103
267.293	0.5102
267.648	0.5079
268.004	0.5049
268.359	0.5014
268.714	0.4992
269.07	0.4974
269.425	0.4958
269.78	0.4943
270.135	0.4921
270.49	0.4879
270.844	0.4862
271.199	0.4848
271.554	0.4815
271.908	0.4773
272.263	0.4762
272.617	0.4746
272.972	0.4709
273.326	0.4702
273.68	0.4669
274.034	0.4631
274.388	0.4597
274.742	0.4582
275.096	0.455
275.45	0.4524
275.803	0.4489
276.157	0.4449
276.51	0.4427
276.864	0.4403
277.217	0.4371
277.571	0.4333
277.924	0.4293
278.277	0.4273
278.63	0.4249
278.983	0.4202
279.336	0.418
279.688	0.4147
280.041	0.4112
280.394	0.4078
280.746	0.4055
281.099	0.4013
281.451	0.3969
281.803	0.393
282.156	0.3913
282.508	0.3879
282.86	0.3833
283.212	0.38
283.564	0.3771
283.916	0.3744
284.267	0.3699
284.619	0.3676
284.971	0.3635
285.322	0.3597
285.673	0.3565
286.025	0.353
286.376	0.3486
286.727	0.344
287.078	0.3412
287.429	0.3382
287.78	0.3339
288.131	0.3296
288.482	0.3254
288.833	0.323
289.183	0.3185
289.534	0.3156
289.884	0.3108
290.235	0.3078
290.585	0.3039
290.935	0.3003
291.285	0.2965
291.635	0.2929
291.985	0.2893
292.335	0.2848
292.685	0.2812
293.035	0.2785
293.384	0.2748
293.734	0.2708
294.083	0.2675
294.433	0.2625
294.782	0.2599
295.131	0.2557
295.48	0.2529
295.829	0.2498
296.179	0.2454
296.527	0.243
296.876	0.2394
297.225	0.2373
297.574	0.2331
297.922	0.2301
298.271	0.2268
298.619	0.2236
298.968	0.2214
299.316	0.2179
299.664	0.2148
300.012	0.2126
300.36	0.2087
300.708	0.2065
301.056	0.2045
301.404	0.2021
301.752	0.1991
302.099	0.1975
302.447	0.1943
302.794	0.1917
303.142	0.19
303.489	0.1874
303.836	0.1849
304.183	0.1832
304.531	0.1818
304.878	0.1796
305.224	0.1776
305.571	0.1762
305.918	0.1749
306.265	0.1725
306.611	0.1711
306.958	0.1697
307.304	0.1685
307.651	0.1677
307.997	0.1658
308.343	0.1646
308.689	0.1639
309.035	0.1626
309.381	0.1618
309.727	0.1605
310.073	0.16
310.419	0.1593
310.764	0.1583
311.11	0.1578
311.455	0.1572
311.801	0.1559
312.146	0.1558
312.491	0.155
312.837	0.1551
313.182	0.1547
313.527	0.1544
313.872	0.1534
314.216	0.154
314.561	0.1533
314.906	0.1533
315.251	0.1536
315.595	0.1527
315.94	0.1531
316.284	0.1528
316.628	0.153
316.972	0.1528
317.317	0.1532
317.661	0.1536
318.005	0.1534
318.348	0.1538
318.692	0.1546
319.036	0.1548
319.38	0.1545
319.723	0.1556
320.067	0.1557
320.41	0.1563
320.754	0.1567
321.097	0.1575
321.44	0.1584
321.783	0.1593
322.126	0.1593
322.469	0.161
322.812	0.1615
323.155	0.1623
323.498	0.1631
323.84	0.1635
324.183	0.1651
324.525	0.1654
324.868	0.1662
325.21	0.1678
325.552	0.1686
325.894	0.1689
326.236	0.17
326.578	0.1711
326.92	0.1722
327.262	0.1731
327.604	0.1741
327.946	0.1751
328.287	0.1765
328.629	0.1768
328.97	0.1787
329.312	0.1794
329.653	0.1805
329.994	0.182
330.335	0.1827
330.676	0.1834
331.017	0.1846
331.358	0.1864
331.699	0.1873
332.04	0.1884
332.38	0.1893
332.721	0.1917
333.061	0.1916
333.402	0.1929
333.742	0.1944
334.083	0.1958
334.423	0.1959
334.763	0.1972
335.103	0.1984
335.443	0.1991
335.783	0.1989
336.123	0.2003
336.462	0.2021
336.802	0.2022
337.141	0.2036
337.481	0.2049
337.82	0.2053
338.16	0.2058
338.499	0.2065
338.838	0.2073
339.177	0.209
339.516	0.2096
339.855	0.2107
340.194	0.212
340.533	0.2122
340.872	0.2122
341.21	0.2137
341.549	0.2138
341.887	0.2148
342.226	0.2149
342.564	0.2151
342.902	0.2156
343.24	0.2156
343.578	0.2163
343.916	0.2167
344.254	0.2164
344.592	0.2166
344.93	0.2171
345.268	0.2171
345.605	0.2177
345.943	0.2176
346.28	0.2179
346.618	0.2174
346.955	0.2179
347.292	0.2173
347.629	0.2182
347.966	0.2185
348.303	0.2186
348.64	0.2181
348.977	0.2178
349.314	0.218
349.65	0.2182
349.987	0.2179
350.324	0.2167
350.66	0.2169
350.996	0.2172
351.333	0.2157
351.669	0.2149
352.005	0.2148
352.341	0.2139
352.677	0.2134
353.013	0.2116
353.349	0.212
353.685	0.2105
354.02	0.2093
354.356	0.2089
354.691	0.2077
355.027	0.207
355.362	0.2056
355.697	0.2049
356.033	0.2039
356.368	0.2033
356.703	0.2022
357.038	0.2018
357.373	0.2008
357.707	0.2
358.042	0.1989
358.377	0.1981
358.711	0.1973
359.046	0.1957
359.38	0.1953
359.715	0.1941
360.049	0.1934
360.383	0.1919
360.717	0.1906
361.051	0.1891
361.385	0.1881
361.719	0.186
362.053	0.186
362.387	0.183
362.72	0.1818
363.054	0.1799
363.387	0.1792
363.721	0.1768
364.054	0.1753
364.387	0.1738
364.721	0.1729
365.054	0.1706
365.387	0.1692
365.72	0.1671
366.053	0.1667
366.385	0.1643
366.718	0.1629
367.051	0.162
367.383	0.1605
367.716	0.1586
368.048	0.1588
368.381	0.1575
368.713	0.156
369.045	0.1548
369.377	0.1528
369.709	0.1517
370.041	0.1501
370.373	0.1499
370.705	0.1476
371.037	0.1463
371.368	0.1446
371.7	0.1438
372.031	0.1424
372.363	0.1403
372.694	0.1385
373.025	0.1364
373.356	0.135
373.688	0.1332
374.019	0.1313
374.35	0.1296
374.68	0.1274
375.011	0.1258
375.342	0.1244
375.673	0.1229
376.003	0.1203
376.334	0.1195
376.664	0.1178
376.995	0.116
377.325	0.1152
377.655	0.114
377.985	0.1126
378.315	0.1116
378.645	0.1098
378.975	0.1086
379.305	0.1072
379.635	0.1067
379.964	0.1055
380.294	0.1048
380.623	0.1024
380.953	0.102
381.282	0.1001
381.611	0.0993
381.941	0.0979
382.27	0.0973
382.599	0.0955
382.928	0.0937
383.257	0.093
383.585	0.0915
383.914	0.0905
384.243	0.0888
384.571	0.0873
384.9	0.0856
385.228	0.0851
385.557	0.0832
385.885	0.0814
386.213	0.0801
386.541	0.0791
386.869	0.0777
387.197	0.0757
387.525	0.0745
387.853	0.0735
388.181	0.0721
388.508	0.0712
388.836	0.0702
389.164	0.0685
389.491	0.0683
389.818	0.0673
390.146	0.0659
390.473	0.0641
390.8	0.064
391.127	0.0628
391.454	0.0621
391.781	0.0615
392.108	0.0604
392.435	0.0589
392.761	0.0577
393.088	0.0576
393.415	0.0572
393.741	0.0572
394.067	0.0554
394.394	0.0554
394.72	0.0546
395.046	0.0533
395.372	0.0525
395.698	0.0517
396.024	0.0515
396.35	0.0503
396.676	0.0496
397.001	0.0493
397.327	0.0478
397.653	0.0471
397.978	0.0464
398.303	0.0454
398.629	0.0447
398.954	0.0447
399.279	0.0443
399.604	0.0438
399.929	0.0427
400.254	0.0422
400.579	0.0424
400.904	0.0411
401.229	0.0413
401.553	0.0396
401.878	0.0392
402.202	0.0393
402.527	0.0389
402.851	0.0388
403.175	0.0381
403.5	0.0381
403.824	0.0383
404.148	0.0377
404.472	0.0377
404.796	0.0365
405.119	0.0363
405.443	0.036
405.767	0.035
406.09	0.0352
406.414	0.0357
406.737	0.0353
407.061	0.0357
407.384	0.0355
407.707	0.0353
408.03	0.0356
408.353	0.0351
408.676	0.0347
408.999	0.0339
409.322	0.0346
409.645	0.0351
409.968	0.0339
410.29	0.0346
410.613	0.0344
410.935	0.034
411.258	0.0345
411.58	0.0334
411.902	0.0344
412.224	0.0341
412.546	0.0338
412.868	0.0333
413.19	0.0337
413.512	0.0334
413.834	0.0337
414.156	0.0349
414.477	0.0335
414.799	0.0341
415.121	0.0345
415.442	0.0341
415.763	0.0345
416.085	0.0346
416.406	0.034
416.727	0.0345
417.048	0.0344
417.369	0.034
417.69	0.0341
418.011	0.0345
418.331	0.0348
418.652	0.0341
418.973	0.0348
419.293	0.0344
419.614	0.0354
419.934	0.0343
420.254	0.035
420.574	0.0345
420.895	0.0345
421.215	0.034
421.535	0.0338
421.855	0.0344
422.174	0.0339
422.494	0.035
422.814	0.0354
423.134	0.0349
423.453	0.0347
423.773	0.0349
424.092	0.0345
424.411	0.0348
424.731	0.0351
425.05	0.0351
425.369	0.0354
425.688	0.0357
426.007	0.0354
426.326	0.0357
426.644	0.0361
426.963	0.0363
427.282	0.0362
427.6	0.036
427.919	0.036
428.237	0.0361
428.556	0.0367
428.874	0.0363
429.192	0.0356
429.51	0.0355
429.828	0.0361
430.146	0.0361
430.464	0.0366
430.782	0.0361
431.1	0.0367
431.418	0.0364
431.735	0.0357
432.053	0.0363
432.37	0.0365
432.688	0.0364
433.005	0.0367
433.322	0.037
433.639	0.0366
433.957	0.0373
434.274	0.0372
434.591	0.0368
434.907	0.0375
435.224	0.0372
435.541	0.0368
435.858	0.0382
436.174	0.0376
436.491	0.0372
436.807	0.037
437.124	0.0362
437.44	0.0366
437.756	0.036
438.072	0.0366
438.388	0.0366
438.704	0.037
439.02	0.0368
439.336	0.0362
439.652	0.0369
439.968	0.0368
440.283	0.0366
440.599	0.0368
440.914	0.0369
441.23	0.0369
441.545	0.0368
441.86	0.0362
442.175	0.0366
442.491	0.0368
442.806	0.0362
443.121	0.0366
443.435	0.0357
443.75	0.0364
444.065	0.0363
444.38	0.0365
444.694	0.0357
445.009	0.0364
445.323	0.0367
445.638	0.0359
445.952	0.0365
446.266	0.0355
446.58	0.0364
446.894	0.0364
447.208	0.0365
447.522	0.0368
447.836	0.0346
448.15	0.0353
448.464	0.0353
448.777	0.0355
449.091	0.035
449.404	0.0363
449.718	0.0361
450.031	0.0356
450.345	0.0344
450.658	0.0353
450.971	0.0353
451.284	0.0348
451.597	0.0351
451.91	0.0356
452.223	0.0346
452.535	0.0351
452.848	0.0346
453.161	0.0346
453.473	0.0354
453.786	0.0354
454.098	0.0345
454.411	0.0343
454.723	0.0344
455.035	0.034
455.347	0.0345
455.659	0.0346
455.971	0.0345
456.283	0.0344
456.595	0.0335
456.907	0.0333
457.218	0.0339
457.53	0.0336
457.841	0.0331
458.153	0.0327
458.464	0.0331
458.776	0.0316
459.087	0.032
459.398	0.0328
459.709	0.0322
460.02	0.0319
460.331	0.032
460.642	0.0313
460.953	0.0314
461.263	0.032
461.574	0.032
461.885	0.0311
462.195	0.032
462.506	0.0315
462.816	0.0309
463.126	0.0303
463.437	0.0307
463.747	0.0302
464.057	0.0297
464.367	0.0298
464.677	0.0299
464.987	0.0297
465.296	0.0294
465.606	0.0293
465.916	0.0288
466.225	0.029
466.535	0.0293
466.844	0.0286
467.154	0.0282
467.463	0.0282
467.772	0.0285
468.081	0.0271
468.39	0.0285
468.699	0.0282
469.008	0.0282
469.317	0.0275
469.626	0.0277
469.935	0.0277
470.243	0.027
470.552	0.0276
470.86	0.028
471.169	0.0263
471.477	0.0265
471.785	0.027
472.093	0.0273
472.402	0.0258
472.71	0.0263
473.018	0.0247
473.326	0.0248
473.633	0.0253
473.941	0.0247
474.249	0.0249
474.556	0.0243
474.864	0.0241
475.171	0.0232
475.479	0.0245
475.786	0.0249
476.094	0.0238
476.401	0.024
476.708	0.0231
477.015	0.0242
477.322	0.0239
477.629	0.0238
477.936	0.0226
478.242	0.0226
478.549	0.0231
478.856	0.022
479.162	0.0227
479.469	0.0222
479.775	0.0221
480.081	0.0215
480.388	0.0216
480.694	0.0211
481	0.0209
481.306	0.0208
481.612	0.021
481.918	0.0206
482.224	0.0206
482.53	0.0205
482.835	0.0204
483.141	0.0188
483.446	0.0194
483.752	0.0194
484.057	0.0181
484.363	0.0188
484.668	0.0183
484.973	0.018
485.278	0.0181
485.583	0.0175
485.888	0.0172
486.193	0.0172
486.498	0.0178
486.803	0.0183
487.107	0.0176
487.412	0.0167
487.717	0.0161
488.021	0.017
488.325	0.0162
488.63	0.0153
488.934	0.0166
489.238	0.0166
489.542	0.0169
489.846	0.015
490.15	0.0161
490.454	0.0159
490.758	0.0158
491.062	0.0151
491.366	0.0144
491.669	0.0148
491.973	0.015
492.276	0.0151
492.58	0.0135
492.883	0.0148
493.186	0.0145
493.489	0.0143
493.792	0.0144
494.096	0.0136
494.399	0.0138
494.701	0.0138
495.004	0.0136
495.307	0.0126
495.61	0.0131
495.912	0.0126
496.215	0.012
496.517	0.012
496.82	0.0123
497.122	0.0131
497.424	0.0116
497.727	0.0122
498.029	0.012
498.331	0.0123
498.633	0.0123
498.935	0.0118
499.237	0.012
499.538	0.011
499.84	0.0107
500.142	0.0112
500.443	0.0107
500.745	0.0108
501.046	0.0114
501.348	0.0096
501.649	0.0114
501.95	0.0101
502.251	0.0104
502.552	0.0096
502.853	0.0093
503.154	0.0099
503.455	0.0087
503.756	0.0096
504.057	0.0093
504.357	0.0088
504.658	0.0086
504.958	0.0087
505.259	0.0096
505.559	0.0089
505.859	0.008
506.16	0.009
506.46	0.0087
506.76	0.0088
507.06	0.0082
507.36	0.0088
507.66	0.0087
507.96	0.0085
508.259	0.0073
508.559	0.0065
508.859	0.0076
509.158	0.0074
509.457	0.0075
509.757	0.0082
510.056	0.0082
510.355	0.0074
510.655	0.0054
510.954	0.0064
511.253	0.0072
511.552	0.0069
511.851	0.0062
512.149	0.0063
512.448	0.0064
512.747	0.0064
513.045	0.0054
513.344	0.0065
513.642	0.0071
513.941	0.0068
514.239	0.006
514.537	0.006
514.836	0.0062
515.134	0.0056
515.432	0.0065
515.73	0.0065
516.028	0.0052
516.326	0.0063
516.623	0.0049
516.921	0.0055
517.219	0.0066
517.516	0.0065
517.814	0.0047
518.111	0.0063
518.409	0.0065
518.706	0.0058
519.003	0.0051
519.3	0.004
519.597	0.0048
519.894	0.0045
520.191	0.0057
520.488	0.0051
520.785	0.0046
521.082	0.0047
521.378	0.0061
521.675	0.0028
521.971	0.0042
522.268	0.0051
522.564	0.0045
522.861	0.004
523.157	0.0038
523.453	0.0049
523.749	0.0043
524.045	0.0053
524.341	0.0038
524.637	0.004
524.933	0.0037
525.229	0.0039
525.524	0.0042
525.82	0.005
526.115	0.0033
526.411	0.0039
526.706	0.0047
527.002	0.0041
527.297	0.0032
527.592	0.0056
527.887	0.0043
528.182	0.0044
528.477	0.0059
528.772	0.0042
529.067	0.0042
529.362	0.0034
529.657	0.0041
529.951	0.0031
530.246	0.0034
530.54	0.0025
530.835	0.0034
531.129	0.0017
531.423	0.0039
531.718	0.0033
532.012	0.0029
532.306	0.0026
532.6	0.0025
532.894	0.0028
533.188	0.0044
533.482	0.0027
533.775	0.0035
534.069	0.0027
534.363	0.0019
534.656	0.0032
534.95	0.0016
535.243	0.0025
535.536	0.0034
535.83	0.0035
536.123	0.002
536.416	0.0036
536.709	0.0027
537.002	0.0033
537.295	0.0037
537.588	0.0028
537.881	0.0032
538.173	0.0016
538.466	0.0024
538.759	0.0018
539.051	0.0026
539.344	0.0022
539.636	0.0026
539.928	0.0025
540.22	0.0026
540.513	0.0027
540.805	0.0023
541.097	0.0026
541.389	0.0025
541.681	0.0028
541.972	0.0026
542.264	0.0012
542.556	0.0029
542.847	0.0028
543.139	0.0032
543.431	0.0039
543.722	0.003
544.013	0.004
544.305	0.0041
544.596	0.0041
544.887	0.0042
545.178	0.0027
545.469	0.0027
545.76	0.0021
546.051	0.0036
546.342	0.0031
546.632	0.0019
546.923	0.0026
547.214	0.0036
547.504	0.0024
547.795	0.0033
548.085	0.0039
548.375	0.0024
548.666	0.0029
548.956	0.0028
549.246	0.0032
549.536	0.0014
549.826	0.0027
550.116	0.0027
550.406	0.0031
550.695	0.0042
550.985	0.0036
551.275	0.0034
551.564	0.0024
551.854	0.0025
552.143	0.0025
552.433	0.0022
552.722	0.0034
553.011	0.0028
553.3	0.0033
553.589	0.0026
553.879	0.0025
554.167	0.0032
554.456	0.0025
554.745	0.0021
555.034	0.0017
555.323	0.0011
555.611	0.0021
555.9	0.0028
556.188	0.0025
556.477	0.0019
556.765	0.0013
557.053	0.0025
557.342	0.0015
557.63	0.0026
557.918	0.0022
558.206	0.0018
558.494	0.003
558.782	0.0023
559.069	0.0027
559.357	0.003
559.645	0.0028
559.932	0.0032
560.22	0.0032
560.507	0.0021
560.795	0.0026
561.082	0.002
561.37	0.0027
561.657	0.0034
561.944	0.0037
562.231	0.0027
562.518	0.0013
562.805	0.003
563.092	0.004
563.379	0.003
563.665	0.0018
563.952	0.0034
564.239	0.0038
564.525	0.004
564.811	0.0039
565.098	0.0038
565.384	0.0039
565.67	0.0026
565.957	0.003
566.243	0.0034
566.529	0.0031
566.815	0.0054
567.101	0.0022
567.387	0.0024
567.672	0.0028
567.958	0.0035
568.244	0.0034
568.529	0.0031
568.815	0.0022
569.1	0.0028
569.386	0.002
569.671	0.0019
569.956	0.0027
570.242	0.002
570.527	0.0032
570.812	0.0036
571.097	0.0034
571.382	0.0024
571.666	0.002
571.951	0.0019
572.236	0.0022
572.521	0.0025
572.805	0.0031
573.09	0.0018
573.374	0.0012
573.659	0.0012
573.943	0.0024
574.227	0.0018
574.511	0.0025
574.795	0.0018
575.079	0.0019
575.363	0.0022
575.647	0.0028
575.931	0.0031
576.215	0.0024
576.499	0.0017
576.782	0.0018
577.066	0.0023
577.349	0.0028
577.633	0.0033
577.916	0.0027
578.2	0.003
578.483	0.0031
578.766	0.0028
579.049	0.0029
579.332	0.003
579.615	0.0019
579.898	0.002
580.181	0.0024
580.464	0.0024
580.746	0.0018
581.029	0.0026
581.312	0.0024
581.594	0.0011
581.877	0.002
582.159	0.0032
582.441	0.0028
582.724	0.0023
583.006	0.0022
583.288	0.0009
583.57	0.0015
583.852	0.0013
584.134	0.0016
584.416	0.0023
584.697	0.0023
584.979	0.0021
585.261	0.0017
585.542	0.0017
585.824	0.0023
586.105	0.0024
586.387	0.0022
586.668	0.0026
586.949	0.0021
587.231	0.0019
587.512	0.002
587.793	0.0022
588.074	0.0026
588.355	0.0032
588.636	0.0028
588.916	0.0024
589.197	0.003
589.478	0.0034
589.758	0.0021
590.039	0.0015
590.319	0.0028
590.6	0.0023
590.88	0.0018
591.16	0.0027
591.441	0.0028
591.721	0.0033
592.001	0.0024
592.281	0.003
592.561	0.0033
592.841	0.0026
593.12	0.0022
593.4	0.0019
593.68	0.0022
593.959	0.0023
594.239	0.0034
594.518	0.0035
594.798	0.0032
595.077	0.0022
595.356	0.0025
595.636	0.0028
595.915	0.0031
596.194	0.0027
596.473	0.0029
596.752	0.0023
597.031	0.0022
597.31	0.0015
597.588	0.0022
597.867	0.0009
598.146	0.0016
598.424	0.0019
598.703	0.0016
598.981	0.0012
599.259	0.0017
599.538	0.0025
599.816	0.0027
600.094	0.0022
600.372	0.0021
600.65	0.0029
600.928	0.0032
601.206	0.0023
601.484	0.0022
601.762	0.0024
602.04	0.0022
602.317	0.0026
602.595	0.0011
602.872	0.0025
603.15	0.0022
603.427	0.001
603.704	0.0006
603.982	0.0019
604.259	0.0017
604.536	0.0011
604.813	0.0018
605.09	0.0017
605.367	0.0012
605.644	0.0014
605.921	0.0022
606.197	0.0011
606.474	0.0021
606.751	0.0022
607.027	0.0025
607.304	0.0019
607.58	0.0017
607.856	0.002
608.133	0.0027
608.409	0.0034
608.685	0.0017
608.961	0.0027
609.237	0.0026
609.513	0.0025
609.789	0.003
610.065	0.0009
610.341	0.0021
610.616	0.003
610.892	0.0037
611.167	0.0027
611.443	0.0028
611.718	0.0021
611.994	0.0022
612.269	0.0029
612.544	0.0024
612.819	0.0016
613.095	0.0028
613.37	0.0027
613.645	0.0013
613.919	0.002
614.194	0.002
614.469	0.0022
614.744	0.0013
615.019	0.0013
615.293	0.0015
615.568	0.0012
615.842	0.0007
616.116	0.0014
616.391	0.002
616.665	0.0022
616.939	0.0018
617.213	0.0014
617.488	0.0016
617.762	0.0022
618.035	0.002
618.309	0.0021
618.583	0.0011
618.857	0.0028
619.131	0.0022
619.404	0.0015
619.678	0.0022
619.951	0.0003
620.225	0.0012
620.498	0.0015
620.771	0.0027
621.045	0.0034
621.318	0.0013
621.591	0.0014
621.864	0.0005
622.137	0.0003
622.41	0.0009
622.683	0.0012
622.956	0.0014
623.228	0.0026
623.501	0.0032
623.774	0.0029
624.046	0.0019
624.319	0.0014
624.591	0.0011
624.863	0.0016
625.136	0.002
625.408	0.0028
625.68	0.0015
625.952	0.0018
626.224	0.0024
626.496	0.0015
626.768	0.0019
627.04	0.0026
627.311	0.0015
627.583	0.0019
627.855	0.0023
628.126	0.0021
628.398	0.0026
628.669	0.0026
628.941	0.0015
629.212	0.0001
629.483	0.0013
629.755	0.0008
630.026	0.0014
630.297	0.0014
630.568	0.0015
630.839	0.0007
631.11	0.0013
631.38	0.0004
631.651	-0.0001
631.922	-0.0006
632.192	-0.0008
632.463	0.0005
632.733	0.0004
633.004	-0.0003
633.274	-0.0012
633.545	0.0008
633.815	0.0011
634.085	0.0017
634.355	0.0013
634.625	0.0027
634.895	0.0019
635.165	0.0011
635.435	0.0018
635.705	0.0013
635.974	0.0013
636.244	0.0018
636.514	0.0017
636.783	0.0017
637.053	0.0029
637.322	0.0022
637.591	0.0035
637.861	0.002
638.13	0.0026
638.399	0.0026
638.668	0.0017
638.937	0.0005
639.206	0.0025
639.475	0.0023
639.744	0.002
640.013	0.0029
640.281	0.0031
640.55	0.0034
640.819	0.003
641.087	0.0038
641.356	0.0021
641.624	0.0024
641.892	0.0027
642.161	0.0029
642.429	0.0031
642.697	0.002
642.965	0.0036
643.233	0.0035
643.501	0.0023
643.769	0.002
644.037	0.0024
644.305	0.0014
644.572	0.0006
644.84	0.0011
645.108	0.0013
645.375	0.0007
645.643	0.0017
645.91	0.0013
646.177	0.0029
646.445	0.0037
646.712	0.0042
646.979	0.0043
647.246	0.004
647.513	0.0049
647.78	0.0039
648.047	0.0047
648.314	0.0031
648.58	0.0032
648.847	0.0022
649.114	0.0014
649.38	0.0016
649.647	0.0008
649.913	0.0016
650.18	0.0024
650.446	0.0019
650.712	0.0037
650.978	0.0031
651.245	0.0034
651.511	0.0031
651.777	0.0028
652.043	0.0035
652.309	0.0028
652.574	0.0037
652.84	0.0013
653.106	0.0014
653.371	0.0012
653.637	0.0017
653.903	0.003
654.168	0.0024
654.433	0.0029
654.699	0.0032
654.964	0.0029
655.229	0.003
655.494	0.0024
655.759	0.0005
656.024	0.0009
656.289	-0
656.554	0.0023
656.819	0.0026
657.084	0.0018
657.349	0.0036
657.613	0.0036
657.878	0.0031
658.142	0.0029
658.407	0.0036
658.671	0.002
658.936	0
659.2	0.001
659.464	0.001
659.728	0.0005
659.992	0.0017
660.256	0.0008
660.52	0.0008
660.784	0.0014
661.048	0.0003
661.312	0.0006
661.575	-0.0002
661.839	-0.0004
662.103	-0.0001
662.366	-0.0009
662.63	0.0002
662.893	0.0003
663.156	-0.0001
663.42	0.0005
663.683	0.0001
663.946	0.0013
664.209	0.0028
664.472	0.0019
664.735	0.0024
664.998	0.0011
665.261	0.001
665.524	0.0003
665.786	0.0005
666.049	0.0005
666.312	0.0006
666.574	0.0006
666.837	0.0003
667.099	-0.0006
667.361	-0.0009
667.624	-0.0004
667.886	-0.0001
668.148	0.0013
668.41	0.0024
668.672	0.0014
668.934	0.001
669.196	0.0004
669.458	0.0014
669.72	0.0015
669.982	0.0023
670.243	0.0028
670.505	0.0017
670.766	0.0013
671.028	0.0016
671.289	0.0015
671.551	0.0008
671.812	0
672.073	0.0013
672.334	-0.0004
672.596	0.0011
672.857	0.0002
673.118	0.0012
673.379	0.0011
673.639	-0
673.9	0.0009
674.161	-0.001
674.422	-0.0007
674.682	-0.0015
674.943	-0.0008
675.203	0.0007
675.464	0.0005
675.724	0.0012
675.985	0.0012
676.245	0.0022
676.505	0.0034
676.765	0.0034
677.025	0.0021
677.285	0.0029
677.545	0.0035
677.805	0.0035
678.065	0.0038
678.325	0.0039
678.585	0.0034
678.844	0.0028
679.104	0.0023
679.363	0.0029
679.623	0.0034
679.882	0.0039
680.142	0.0037
680.401	0.0039
680.66	0.004
680.919	0.0037
681.178	0.0049
681.437	0.0041
681.696	0.0036
681.955	0.0043
682.214	0.0041
682.473	0.0039
682.732	0.0017
682.99	0.0034
683.249	0.0034
683.508	0.004
683.766	0.003
684.024	0.0027
684.283	0.0032
684.541	0.0032
684.799	0.0038
685.058	0.0029
685.316	0.0024
685.574	0.0027
685.832	0.0034
686.09	0.0034
686.348	0.0043
686.606	0.004
686.863	0.0052
687.121	0.0051
687.379	0.0042
687.636	0.0035
687.894	0.0049
688.151	0.0049
688.409	0.0042
688.666	0.0035
688.923	0.0044
689.181	0.0038
689.438	0.0036
689.695	0.0029
689.952	0.0019
690.209	0.0016
690.466	0.0015
690.723	0.003
690.979	0.0009
691.236	0.0017
691.493	0.0011
691.75	0.0026
692.006	0.0034
692.263	0.0034
692.519	0.0039
692.775	0.0027
693.032	0.0021
693.288	0.0029
693.544	0.0025
693.8	0.0031
694.056	0.0031
694.313	0.0033
694.568	0.0028
694.824	0.0037
695.08	0.0037
695.336	0.0038
695.592	0.0027
695.847	0.0037
696.103	0.0038
696.359	0.0035
696.614	0.0027
696.869	0.0019
697.125	0.0002
697.38	0.0004
697.635	0.0002
697.891	0.0008
698.146	0.0007
698.401	0.0014
698.656	0.0002
698.911	0.0014
699.166	0.0002
699.42	0.0005
699.675	0.0002
699.93	-0.0008
700.185	0.0004
700.439	0.0014
700.694	0.0008
700.948	0.0015
701.203	0.0011
701.457	0.0019
701.711	0.0014
701.965	-0.0004
702.22	-0.0004
702.474	0.0011
702.728	-0.0004
702.982	-0
703.236	0.0009
703.49	0.0011
703.743	0.0005
703.997	0.0012
704.251	0.0016
704.504	0.0019
704.758	0.0014
705.012	0.0008
705.265	0.0007
705.518	0.0001
705.772	-0.0003
706.025	0.0004
706.278	0.0003
706.531	-0
706.785	-0.001
707.038	-0.0002
707.291	-0.0006
707.543	-0.0006
707.796	-0.0007
708.049	-0.0016
708.302	-0.0016
708.555	-0.0009
708.807	-0.0006
709.06	-0.0013
709.312	-0.0025
709.565	-0.0021
709.817	-0.0024
710.069	-0.0017
710.322	-0.0009
710.574	-0.0007
710.826	-0.0011
711.078	-0.0004
711.33	-0.0004
711.582	-0.0012
711.834	0.0009
712.086	0.0003
712.338	0.0022
712.59	0.0013
712.841	0.0008
713.093	0.0006
713.344	0.0008
713.596	0.0009
713.847	0.0014
714.099	0.0012
714.35	0.0017
714.601	0.002
714.853	0.0035
715.104	0.0032
715.355	0.001
715.606	0.0016
715.857	0.0021
716.108	0.003
716.359	0.003
716.609	0.0032
716.86	0.0027
717.111	0.001
717.361	-0
717.612	0.0003
717.863	-0.0004
718.113	-0.0009
718.363	-0.001
718.614	0.0004
718.864	0.0005
719.114	0.0005
719.364	-0.0002
719.614	-0.0008
719.865	-0.0007
720.114	0.0007
720.364	0.0005
720.614	0.0018
720.864	0.0026
721.114	0.0026
721.364	0.0033
721.613	0.0033
721.863	0.004
722.112	0.0034
722.362	0.0033
722.611	0.0027
722.86	0.0021
723.11	0.0012
723.359	0.0016
723.608	0.0027
723.857	0.0032
724.106	0.0053
724.355	0.006
724.604	0.0061
724.853	0.0043
725.102	0.0039
725.351	0.0022
725.599	0.0023
725.848	0.0032
726.097	0.0022
726.345	0.002
726.594	0.0021
726.842	0.0016
727.09	0.0013
727.339	0.0009
727.587	0.0015
727.835	0.0003
728.083	-0.0004
728.331	-0.0004
728.579	-0.0018
728.827	-0.0001
729.075	-0.0007
729.323	0.0005
729.571	0.0019
729.818	0.0006
730.066	0.0014
730.314	0.0012
730.561	-0
730.809	-0.0013
731.056	-0.0009
731.303	-0.0008
731.551	-0.0001
731.798	-0.0006
732.045	0.0004
732.292	-0.0001
732.539	0.0008
732.786	0.0006
733.033	0.0011
733.28	0.0016
733.527	0.0033
733.774	0.0024
734.021	0.003
734.267	0.0035
734.514	0.0033
734.76	0.0032
735.007	0.0061
735.253	0.0063
735.5	0.0057
735.746	0.006
735.992	0.005
736.238	0.0051
736.485	0.0055
736.731	0.0049
736.977	0.0047
737.223	0.0042
737.469	0.0044
737.715	0.0054
737.96	0.0058
738.206	0.0051
738.452	0.007
738.697	0.0063
738.943	0.005
739.189	0.0029
739.434	0.0004
739.679	0.001
739.925	0.0011
740.17	0.0008
740.415	0.0005
740.66	0.0016
740.906	0.0018
741.151	0.002
741.396	0.0023
741.641	0.0043
741.886	0.0043
742.13	0.0048
742.375	0.005
742.62	0.0054
742.865	0.0042
743.109	0.0042
743.354	0.0043
743.598	0.0046
743.843	0.0049
744.087	0.0041
744.331	0.0054
744.576	0.0038
744.82	0.005
745.064	0.0045
745.308	0.004
745.552	0.0035
745.796	0.0037
746.04	0.0035
746.284	0.0026
746.528	0.0009
746.771	0.001
747.015	0.0012
747.259	0.0007
747.502	0.0004
747.746	0.0017
747.989	0.0019
748.233	0.003
748.476	0.0031
748.719	0.0029
748.963	0.0027
749.206	0.0018
749.449	0.0022
749.692	0.001
749.935	0.0035
750.178	0.0018
750.421	0.0027
750.664	0.0031
750.906	0.0036
751.149	0.0024
751.392	0.0022
751.635	0.0014
751.877	0.0003
752.12	-0.0001
752.362	0.001
752.604	0.0005
752.847	0.0009
753.089	0.0014
753.331	0.0017
753.573	0.0009
753.816	0.0015
754.058	0.0023
754.3	0.0024
754.542	0.0032
754.783	0.0024
755.025	0.002
755.267	0.001
755.509	0.0005
755.75	0.0001
755.992	0.0018
756.234	0.0007
756.475	-0.0003
756.716	-0.0006
756.958	0.0001
757.199	0.0007
757.44	0.0006
757.682	0.001
757.923	0.0005
758.164	0.0001
758.405	0.0007
758.646	0.001
758.887	0.0003
759.128	0
759.369	-0.0005
759.609	-0.0009
759.85	-0.0014
760.091	-0.0002
760.331	-0
760.572	-0.0007
760.812	-0.0014
761.053	-0.0012
761.293	-0.0007
761.533	0.0005
761.774	-0.0003
762.014	0.0006
762.254	0.0003
762.494	-0.0007
762.734	-0.0011
762.974	-0.0008
763.214	-0.0012
763.454	-0.0018
763.694	-0.0005
763.933	-0.0013
764.173	-0.0006
764.413	-0.0008
764.652	-0.0003
764.892	-0.0002
765.131	0.0002
765.371	0.0009
765.61	0.0023
765.849	0.001
766.089	0.0013
766.328	0.0025
766.567	0.002
766.806	0.0031
767.045	0.0024
767.284	0.0025
767.523	0.0031
767.762	0.0026
768.001	0.0029
768.239	0.0024
768.478	0.0016
768.717	0.0017
768.955	0.0024
769.194	0.0016
769.432	0.0021
769.671	0.0026
769.909	0.0017
770.148	0.0028
770.386	0.0024
770.624	0.002
770.862	0.0029
771.1	0.0024
771.338	0.0012
771.576	0.0023
771.814	0.0018
772.052	0.0012
772.29	0.002
772.528	0.0017
772.765	0.0019
773.003	0.0022
773.24	0.0025
773.478	0.0021
773.716	0.0036
773.953	0.0037
774.19	0.0037
774.428	0.0037
774.665	0.0034
774.902	0.0029
775.139	0.0022
775.376	0.0021
775.613	0.0015
775.85	0.0028
776.087	0.0019
776.324	0.002
776.561	0.0021
776.798	0.004
777.034	0.0048
777.271	0.006
777.508	0.0065
777.744	0.0056
777.981	0.0047
778.217	0.0052
778.454	0.0045
778.69	0.0034
778.926	0.0039
779.162	0.0035
779.399	0.0028
779.635	0.003
779.871	0.0029
780.107	0.004
780.343	0.0037
780.579	0.0045
780.814	0.0044
781.05	0.0049
781.286	0.0033
781.522	0.0032
781.757	0.0048
781.993	0.0046
782.228	0.0047
782.464	0.0045
782.699	0.0032
782.934	0.0024
783.17	0.0031
783.405	0.0018
783.64	0.0027
783.875	0.0024
784.11	0.0034
784.345	0.0036
784.58	0.0031
784.815	0.0031
785.05	0.0035
785.285	0.0028
785.52	0.002
785.754	0.0025
785.989	0.0022
786.223	0.0012
786.458	0.0006
786.692	0.0008
786.927	0.0002
787.161	0.0007
787.396	-0.0003
787.63	0
787.864	-0.0011
788.098	-0.0008
788.332	-0.0001
788.566	-0.0001
788.8	-0.0007
789.034	0.0002
789.268	0.001
789.502	0.0014
789.736	0.0031
789.969	0.0029
790.203	0.0033
790.437	0.0027
790.67	0.0024
790.904	0.0024
791.137	0.001
791.37	0.0003
791.604	-0.0001
791.837	0.0001
792.07	0.0003
792.303	0.001
792.537	0.0008
792.77	0.0005
793.003	0.0009
793.236	-0.0004
793.469	-0.0007
793.701	0.0006
793.934	-0
794.167	0.0001
794.4	-0.0006
794.632	0.001
794.865	-0.0004
795.097	0.0012
795.33	0.0019
795.562	0.001
795.795	0.001
796.027	0.0009
796.259	0.0009
796.491	0.0007
796.724	0.0002
796.956	0.002
797.188	0.0021
797.42	0.0003
797.652	0.0009
797.883	-0.0006
798.115	-0.0007
798.347	-0.0002
798.579	-0.0016
798.81	-0.0021
799.042	-0.0015
799.274	-0.0021
799.505	-0.0016
799.737	-0.0031
799.968	-0.0016
800.199	-0.001
800.431	-0.0014
800.662	0.0002
800.893	0.0003
801.124	0.0008
801.355	0.0013
801.586	0.0019
801.817	0.0011
802.048	0.0012
802.279	0.0017
802.51	0.0024
802.741	0.0007
802.971	0.0007
803.202	-0.0001
803.433	-0.0007
803.663	-0.0007
803.894	0.0003
804.124	0.0009
804.354	-0.0005
804.585	-0.0002
804.815	-0
805.045	0.0002
805.275	-0.0006
805.506	0.041
805.736	-0.0743
805.966	-0.1742
806.196	-0.0915
