Data from 03 0.2 mM BQDS 0.4 mM K2Cr2O7 1 M H2SO4 5 min_Absorbance_20-17-44-296.txt Node
Date: Tue Dec 07 20:17:44 EST 2021
User: kwabilab-user
Spectrometer: HDX00518
Trigger mode: 0
Integration Time (sec): 5.000000E-2
Scans to average: 50
Nonlinearity correction enabled: false
Boxcar width: 0
Storing dark spectrum: false
XAxis mode: Wavelengths
Number of Pixels in Spectrum: 2068
>>>>>Begin Spectral Data<<<<<
195.27	0.0504
195.642	0.0024
196.014	0.1065
196.386	-0.0085
196.758	0.0336
197.129	0.0256
197.501	0.065
197.872	0.1035
198.244	0.1329
198.615	0.1354
198.986	0.1276
199.357	0.123
199.728	0.128
200.099	0.1191
200.47	0.1213
200.841	0.1381
201.212	0.1301
201.582	0.1136
201.953	0.1356
202.323	0.1253
202.694	0.1288
203.064	0.1414
203.434	0.1229
203.804	0.141
204.174	0.1238
204.544	0.1312
204.914	0.1349
205.284	0.141
205.653	0.1465
206.023	0.1392
206.393	0.138
206.762	0.1319
207.131	0.136
207.501	0.146
207.87	0.1505
208.239	0.1513
208.608	0.1269
208.977	0.145
209.346	0.135
209.715	0.1507
210.083	0.1481
210.452	0.1634
210.82	0.1575
211.189	0.1705
211.557	0.1509
211.925	0.1677
212.294	0.1951
212.662	0.1833
213.03	0.1973
213.398	0.1795
213.766	0.2117
214.133	0.2104
214.501	0.2349
214.869	0.2191
215.236	0.2536
215.604	0.245
215.971	0.2659
216.338	0.2954
216.705	0.3128
217.072	0.3279
217.439	0.3432
217.806	0.3819
218.173	0.4068
218.54	0.425
218.907	0.4627
219.273	0.5032
219.64	0.5501
220.006	0.5884
220.373	0.6133
220.739	0.6679
221.105	0.7041
221.471	0.7242
221.837	0.7698
222.203	0.8163
222.569	0.8373
222.935	0.8679
223.3	0.8888
223.666	0.9462
224.031	0.9796
224.397	0.9832
224.762	1.0093
225.127	1.0345
225.493	1.0468
225.858	1.0692
226.223	1.0781
226.588	1.0826
226.952	1.0819
227.317	1.1024
227.682	1.0933
228.046	1.1002
228.411	1.1068
228.775	1.1093
229.14	1.101
229.504	1.0931
229.868	1.0952
230.232	1.0939
230.596	1.0832
230.96	1.0763
231.324	1.0693
231.688	1.0527
232.052	1.0513
232.415	1.035
232.779	1.0348
233.142	1.0253
233.505	1.0171
233.869	1.0063
234.232	0.9973
234.595	0.9828
234.958	0.9771
235.321	0.9669
235.684	0.9562
236.047	0.95
236.409	0.937
236.772	0.9263
237.134	0.923
237.497	0.9105
237.859	0.903
238.222	0.8968
238.584	0.8862
238.946	0.8741
239.308	0.8674
239.67	0.8591
240.032	0.8539
240.393	0.8449
240.755	0.841
241.117	0.8324
241.478	0.8248
241.84	0.8163
242.201	0.8102
242.562	0.8045
242.924	0.8
243.285	0.7918
243.646	0.7884
244.007	0.7836
244.368	0.7764
244.728	0.7731
245.089	0.7688
245.45	0.7641
245.81	0.7608
246.171	0.7557
246.531	0.7487
246.891	0.7474
247.252	0.7434
247.612	0.7396
247.972	0.7366
248.332	0.7335
248.692	0.7332
249.051	0.7287
249.411	0.726
249.771	0.7229
250.13	0.7197
250.49	0.7184
250.849	0.7165
251.208	0.7149
251.568	0.7124
251.927	0.7104
252.286	0.712
252.645	0.7067
253.004	0.7044
253.363	0.7019
253.721	0.7027
254.08	0.7012
254.439	0.6986
254.797	0.6964
255.155	0.6932
255.514	0.6947
255.872	0.6933
256.23	0.6902
256.588	0.6907
256.946	0.6883
257.304	0.6874
257.662	0.6877
258.02	0.6837
258.377	0.6845
258.735	0.6815
259.093	0.6813
259.45	0.6801
259.807	0.6786
260.165	0.6795
260.522	0.6781
260.879	0.6731
261.236	0.674
261.593	0.672
261.95	0.6691
262.306	0.6716
262.663	0.6691
263.02	0.6663
263.376	0.666
263.733	0.6628
264.089	0.6629
264.445	0.6605
264.802	0.6582
265.158	0.6577
265.514	0.655
265.87	0.6557
266.226	0.6531
266.581	0.6515
266.937	0.6494
267.293	0.6468
267.648	0.6461
268.004	0.6433
268.359	0.6423
268.714	0.6414
269.07	0.6382
269.425	0.6368
269.78	0.6373
270.135	0.6322
270.49	0.631
270.844	0.6306
271.199	0.6272
271.554	0.6243
271.908	0.6226
272.263	0.6195
272.617	0.619
272.972	0.6154
273.326	0.6134
273.68	0.6115
274.034	0.6082
274.388	0.607
274.742	0.6026
275.096	0.5992
275.45	0.597
275.803	0.5954
276.157	0.5912
276.51	0.5892
276.864	0.5872
277.217	0.5832
277.571	0.5798
277.924	0.5747
278.277	0.5736
278.63	0.5702
278.983	0.567
279.336	0.5641
279.688	0.5593
280.041	0.5562
280.394	0.5527
280.746	0.5487
281.099	0.5446
281.451	0.5408
281.803	0.5374
282.156	0.5335
282.508	0.5301
282.86	0.5252
283.212	0.5208
283.564	0.5181
283.916	0.5132
284.267	0.5092
284.619	0.506
284.971	0.4994
285.322	0.4962
285.673	0.4928
286.025	0.4883
286.376	0.4835
286.727	0.4788
287.078	0.474
287.429	0.4701
287.78	0.4648
288.131	0.4614
288.482	0.4561
288.833	0.4518
289.183	0.4466
289.534	0.4425
289.884	0.4368
290.235	0.4329
290.585	0.427
290.935	0.4237
291.285	0.4189
291.635	0.4146
291.985	0.4093
292.335	0.4038
292.685	0.4001
293.035	0.3961
293.384	0.3913
293.734	0.386
294.083	0.3805
294.433	0.3758
294.782	0.372
295.131	0.3683
295.48	0.3637
295.829	0.3593
296.179	0.354
296.527	0.3503
296.876	0.346
297.225	0.3426
297.574	0.3378
297.922	0.3336
298.271	0.3299
298.619	0.3252
298.968	0.3227
299.316	0.3189
299.664	0.3152
300.012	0.3108
300.36	0.3065
300.708	0.3042
301.056	0.3004
301.404	0.2972
301.752	0.294
302.099	0.2905
302.447	0.2875
302.794	0.2845
303.142	0.2818
303.489	0.2785
303.836	0.2759
304.183	0.2732
304.531	0.271
304.878	0.269
305.224	0.2656
305.571	0.2635
305.918	0.2619
306.265	0.2591
306.611	0.2578
306.958	0.2558
307.304	0.2543
307.651	0.2519
307.997	0.2506
308.343	0.249
308.689	0.2477
309.035	0.2465
309.381	0.2455
309.727	0.2442
310.073	0.2434
310.419	0.2416
310.764	0.2408
311.11	0.2408
311.455	0.2395
311.801	0.2383
312.146	0.2384
312.491	0.2381
312.837	0.2377
313.182	0.2374
313.527	0.2366
313.872	0.2361
314.216	0.2358
314.561	0.2354
314.906	0.2359
315.251	0.2361
315.595	0.2353
315.94	0.2355
316.284	0.2362
316.628	0.2362
316.972	0.2361
317.317	0.2367
317.661	0.2372
318.005	0.2379
318.348	0.2379
318.692	0.2387
319.036	0.2386
319.38	0.2401
319.723	0.2407
320.067	0.2413
320.41	0.242
320.754	0.2429
321.097	0.2437
321.44	0.2452
321.783	0.2458
322.126	0.246
322.469	0.2482
322.812	0.2495
323.155	0.2507
323.498	0.2519
323.84	0.2531
324.183	0.2549
324.525	0.2563
324.868	0.2568
325.21	0.2586
325.552	0.2597
325.894	0.2608
326.236	0.2626
326.578	0.2643
326.92	0.2659
327.262	0.2661
327.604	0.2684
327.946	0.2698
328.287	0.2714
328.629	0.2735
328.97	0.2742
329.312	0.2761
329.653	0.2769
329.994	0.2798
330.335	0.2809
330.676	0.2824
331.017	0.2841
331.358	0.2862
331.699	0.2881
332.04	0.2895
332.38	0.2911
332.721	0.2935
333.061	0.2938
333.402	0.2963
333.742	0.298
334.083	0.2996
334.423	0.3003
334.763	0.3016
335.103	0.304
335.443	0.3056
335.783	0.3059
336.123	0.3071
336.462	0.309
336.802	0.3095
337.141	0.3106
337.481	0.3127
337.82	0.3136
338.16	0.3149
338.499	0.3164
338.838	0.3176
339.177	0.3198
339.516	0.321
339.855	0.3227
340.194	0.3235
340.533	0.3249
340.872	0.3263
341.21	0.328
341.549	0.3279
341.887	0.3291
342.226	0.3302
342.564	0.3299
342.902	0.3309
343.24	0.3313
343.578	0.3319
343.916	0.333
344.254	0.3326
344.592	0.3333
344.93	0.3335
345.268	0.3345
345.605	0.3337
345.943	0.3344
346.28	0.3346
346.618	0.3347
346.955	0.3353
347.292	0.3357
347.629	0.3361
347.966	0.3361
348.303	0.3366
348.64	0.3358
348.977	0.336
349.314	0.336
349.65	0.3364
349.987	0.3364
350.324	0.336
350.66	0.3356
350.996	0.3357
351.333	0.3339
351.669	0.3334
352.005	0.3327
352.341	0.3325
352.677	0.3315
353.013	0.3301
353.349	0.3287
353.685	0.3283
354.02	0.3268
354.356	0.3255
354.691	0.324
355.027	0.3231
355.362	0.3216
355.697	0.3208
356.033	0.3196
356.368	0.3187
356.703	0.3175
357.038	0.3165
357.373	0.3156
357.707	0.3151
358.042	0.3134
358.377	0.312
358.711	0.3105
359.046	0.3095
359.38	0.3078
359.715	0.3066
360.049	0.3058
360.383	0.3042
360.717	0.3017
361.051	0.2999
361.385	0.2994
361.719	0.296
362.053	0.2955
362.387	0.2917
362.72	0.2899
363.054	0.2884
363.387	0.2859
363.721	0.2842
364.054	0.2815
364.387	0.2788
364.721	0.2771
365.054	0.2755
365.387	0.2727
365.72	0.2705
366.053	0.2689
366.385	0.2671
366.718	0.2651
367.051	0.2628
367.383	0.2607
367.716	0.2594
368.048	0.2582
368.381	0.2557
368.713	0.2547
369.045	0.2527
369.377	0.2504
369.709	0.2496
370.041	0.2476
370.373	0.2457
370.705	0.2432
371.037	0.2412
371.368	0.2393
371.7	0.2376
372.031	0.2354
372.363	0.2332
372.694	0.2306
373.025	0.2275
373.356	0.2256
373.688	0.2226
374.019	0.2198
374.35	0.2179
374.68	0.2147
375.011	0.2124
375.342	0.2102
375.673	0.2072
376.003	0.2047
376.334	0.2025
376.664	0.2001
376.995	0.1986
377.325	0.1971
377.655	0.1946
377.985	0.1924
378.315	0.1911
378.645	0.189
378.975	0.1869
379.305	0.185
379.635	0.1839
379.964	0.1819
380.294	0.1798
380.623	0.1783
380.953	0.1775
381.282	0.1747
381.611	0.1729
381.941	0.1712
382.27	0.1692
382.599	0.167
382.928	0.1655
383.257	0.1633
383.585	0.1619
383.914	0.1596
384.243	0.1574
384.571	0.1545
384.9	0.1522
385.228	0.1507
385.557	0.1481
385.885	0.147
386.213	0.1443
386.541	0.142
386.869	0.1397
387.197	0.1375
387.525	0.1358
387.853	0.1335
388.181	0.1318
388.508	0.1306
388.836	0.1287
389.164	0.1271
389.491	0.1253
389.818	0.1236
390.146	0.1219
390.473	0.1195
390.8	0.1187
391.127	0.1168
391.454	0.1156
391.781	0.1145
392.108	0.1123
392.435	0.111
392.761	0.1091
393.088	0.1082
393.415	0.1075
393.741	0.1066
394.067	0.1051
394.394	0.1039
394.72	0.1026
395.046	0.1012
395.372	0.0996
395.698	0.0979
396.024	0.0973
396.35	0.096
396.676	0.0952
397.001	0.0938
397.327	0.092
397.653	0.0908
397.978	0.0897
398.303	0.088
398.629	0.087
398.954	0.0862
399.279	0.0854
399.604	0.0845
399.929	0.0832
400.254	0.0818
400.579	0.081
400.904	0.0793
401.229	0.0791
401.553	0.077
401.878	0.0771
402.202	0.0763
402.527	0.0753
402.851	0.0747
403.175	0.074
403.5	0.0733
403.824	0.0727
404.148	0.0723
404.472	0.0716
404.796	0.0701
405.119	0.0699
405.443	0.0689
405.767	0.0689
406.09	0.0682
406.414	0.0684
406.737	0.0677
407.061	0.0668
407.384	0.0668
407.707	0.0655
408.03	0.066
408.353	0.0655
408.676	0.0655
408.999	0.0641
409.322	0.0643
409.645	0.0641
409.968	0.0636
410.29	0.0633
410.613	0.0629
410.935	0.0627
411.258	0.0631
411.58	0.0619
411.902	0.0624
412.224	0.0623
412.546	0.0619
412.868	0.0615
413.19	0.0612
413.512	0.061
413.834	0.0605
414.156	0.0609
414.477	0.0608
414.799	0.0601
415.121	0.0604
415.442	0.0602
415.763	0.0598
416.085	0.06
416.406	0.0599
416.727	0.059
417.048	0.0591
417.369	0.0588
417.69	0.0589
418.011	0.0592
418.331	0.0592
418.652	0.0591
418.973	0.0588
419.293	0.0583
419.614	0.0588
419.934	0.0584
420.254	0.0584
420.574	0.058
420.895	0.0577
421.215	0.0573
421.535	0.0575
421.855	0.0579
422.174	0.0572
422.494	0.0577
422.814	0.0578
423.134	0.0572
423.453	0.0575
423.773	0.0575
424.092	0.0574
424.411	0.0567
424.731	0.0575
425.05	0.0574
425.369	0.0568
425.688	0.0574
426.007	0.0577
426.326	0.0573
426.644	0.0578
426.963	0.0576
427.282	0.0575
427.6	0.0569
427.919	0.0575
428.237	0.0571
428.556	0.0575
428.874	0.0568
429.192	0.0567
429.51	0.0564
429.828	0.0569
430.146	0.0572
430.464	0.0567
430.782	0.0567
431.1	0.0571
431.418	0.0566
431.735	0.0564
432.053	0.0571
432.37	0.0566
432.688	0.0563
433.005	0.0565
433.322	0.0561
433.639	0.0563
433.957	0.0563
434.274	0.0568
434.591	0.0561
434.907	0.0568
435.224	0.0563
435.541	0.0562
435.858	0.0573
436.174	0.0563
436.491	0.0563
436.807	0.0565
437.124	0.0556
437.44	0.0553
437.756	0.0555
438.072	0.0551
438.388	0.0556
438.704	0.0554
439.02	0.0559
439.336	0.0552
439.652	0.0555
439.968	0.0557
440.283	0.0551
440.599	0.0555
440.914	0.055
441.23	0.0543
441.545	0.0551
441.86	0.0549
442.175	0.0546
442.491	0.0551
442.806	0.0543
443.121	0.0544
443.435	0.0546
443.75	0.0544
444.065	0.0542
444.38	0.0543
444.694	0.0541
445.009	0.0544
445.323	0.0544
445.638	0.054
445.952	0.0542
446.266	0.0539
446.58	0.0536
446.894	0.054
447.208	0.0547
447.522	0.0543
447.836	0.0522
448.15	0.0531
448.464	0.0529
448.777	0.0531
449.091	0.0524
449.404	0.0535
449.718	0.0531
450.031	0.0522
450.345	0.0527
450.658	0.0523
450.971	0.0521
451.284	0.0516
451.597	0.052
451.91	0.0525
452.223	0.0515
452.535	0.0518
452.848	0.0512
453.161	0.0514
453.473	0.0519
453.786	0.0511
454.098	0.0502
454.411	0.0508
454.723	0.0501
455.035	0.0503
455.347	0.0514
455.659	0.051
455.971	0.0501
456.283	0.0502
456.595	0.0491
456.907	0.0496
457.218	0.0503
457.53	0.0497
457.841	0.0489
458.153	0.0486
458.464	0.0484
458.776	0.0482
459.087	0.0477
459.398	0.0482
459.709	0.0477
460.02	0.0477
460.331	0.047
460.642	0.0473
460.953	0.047
461.263	0.0466
461.574	0.0471
461.885	0.0465
462.195	0.0466
462.506	0.0469
462.816	0.0463
463.126	0.0453
463.437	0.0451
463.747	0.0445
464.057	0.0455
464.367	0.0445
464.677	0.0433
464.987	0.0446
465.296	0.0441
465.606	0.0441
465.916	0.0432
466.225	0.0432
466.535	0.0432
466.844	0.0424
467.154	0.0419
467.463	0.0422
467.772	0.0427
468.081	0.0416
468.39	0.0424
468.699	0.0414
469.008	0.0415
469.317	0.041
469.626	0.041
469.935	0.0406
470.243	0.0409
470.552	0.0403
470.86	0.0403
471.169	0.0396
471.477	0.0398
471.785	0.0398
472.093	0.0396
472.402	0.0389
472.71	0.0388
473.018	0.0384
473.326	0.0373
473.633	0.0377
473.941	0.038
474.249	0.0367
474.556	0.0368
474.864	0.0368
475.171	0.0359
475.479	0.0373
475.786	0.0373
476.094	0.0365
476.401	0.0358
476.708	0.035
477.015	0.0364
477.322	0.0359
477.629	0.0352
477.936	0.034
478.242	0.0342
478.549	0.0347
478.856	0.0337
479.162	0.0342
479.469	0.0343
479.775	0.0331
480.081	0.0327
480.388	0.0322
480.694	0.032
481	0.0321
481.306	0.0329
481.612	0.0323
481.918	0.0311
482.224	0.0309
482.53	0.0316
482.835	0.0305
483.141	0.0291
483.446	0.0294
483.752	0.0297
484.057	0.029
484.363	0.029
484.668	0.0284
484.973	0.0285
485.278	0.0283
485.583	0.0275
485.888	0.0273
486.193	0.027
486.498	0.0273
486.803	0.0278
487.107	0.0266
487.412	0.0262
487.717	0.0264
488.021	0.0261
488.325	0.0256
488.63	0.0246
488.934	0.0252
489.238	0.026
489.542	0.0253
489.846	0.0241
490.15	0.0257
490.454	0.0243
490.758	0.0243
491.062	0.0242
491.366	0.0243
491.669	0.0239
491.973	0.0235
492.276	0.0234
492.58	0.0219
492.883	0.023
493.186	0.0233
493.489	0.0231
493.792	0.0226
494.096	0.0226
494.399	0.0217
494.701	0.0215
495.004	0.0214
495.307	0.02
495.61	0.02
495.912	0.0206
496.215	0.0198
496.517	0.0205
496.82	0.0196
497.122	0.0201
497.424	0.019
497.727	0.0192
498.029	0.0198
498.331	0.0197
498.633	0.0194
498.935	0.019
499.237	0.0192
499.538	0.0182
499.84	0.0177
500.142	0.019
500.443	0.018
500.745	0.0179
501.046	0.0177
501.348	0.0171
501.649	0.0169
501.95	0.0161
502.251	0.0168
502.552	0.0159
502.853	0.0156
503.154	0.0157
503.455	0.0157
503.756	0.0154
504.057	0.0157
504.357	0.0155
504.658	0.0147
504.958	0.0156
505.259	0.0154
505.559	0.0156
505.859	0.0147
506.16	0.0146
506.46	0.0146
506.76	0.0152
507.06	0.014
507.36	0.0142
507.66	0.0145
507.96	0.0135
508.259	0.0127
508.559	0.0118
508.859	0.013
509.158	0.0125
509.457	0.0122
509.757	0.0136
510.056	0.0122
510.355	0.0117
510.655	0.0114
510.954	0.0116
511.253	0.012
511.552	0.0115
511.851	0.0117
512.149	0.0107
512.448	0.0105
512.747	0.0121
513.045	0.0096
513.344	0.0113
513.642	0.0125
513.941	0.0112
514.239	0.0103
514.537	0.011
514.836	0.0111
515.134	0.0098
515.432	0.0101
515.73	0.0106
516.028	0.0095
516.326	0.0103
516.623	0.0096
516.921	0.0091
517.219	0.0098
517.516	0.0104
517.814	0.0093
518.111	0.0101
518.409	0.0113
518.706	0.0094
519.003	0.0096
519.3	0.0086
519.597	0.0085
519.894	0.0092
520.191	0.0098
520.488	0.0089
520.785	0.0077
521.082	0.0086
521.378	0.0083
521.675	0.0068
521.971	0.0085
522.268	0.0078
522.564	0.0086
522.861	0.0076
523.157	0.0079
523.453	0.0073
523.749	0.0077
524.045	0.0087
524.341	0.0079
524.637	0.0076
524.933	0.0072
525.229	0.0064
525.524	0.0061
525.82	0.0075
526.115	0.0072
526.411	0.0067
526.706	0.0072
527.002	0.007
527.297	0.005
527.592	0.0079
527.887	0.0068
528.182	0.0063
528.477	0.008
528.772	0.0056
529.067	0.0065
529.362	0.0063
529.657	0.007
529.951	0.006
530.246	0.0051
530.54	0.0048
530.835	0.0049
531.129	0.0048
531.423	0.0059
531.718	0.0055
532.012	0.0056
532.306	0.0047
532.6	0.0055
532.894	0.0046
533.188	0.0058
533.482	0.0049
533.775	0.0056
534.069	0.0055
534.363	0.0038
534.656	0.005
534.95	0.0038
535.243	0.004
535.536	0.0059
535.83	0.0051
536.123	0.0045
536.416	0.0044
536.709	0.0045
537.002	0.0056
537.295	0.0047
537.588	0.0045
537.881	0.0043
538.173	0.0042
538.466	0.0039
538.759	0.0035
539.051	0.0042
539.344	0.0022
539.636	0.0037
539.928	0.0032
540.22	0.0046
540.513	0.0032
540.805	0.0042
541.097	0.0038
541.389	0.0036
541.681	0.0037
541.972	0.0038
542.264	0.003
542.556	0.0035
542.847	0.0031
543.139	0.0038
543.431	0.0035
543.722	0.0033
544.013	0.0047
544.305	0.0052
544.596	0.0049
544.887	0.0034
545.178	0.004
545.469	0.0038
545.76	0.0038
546.051	0.004
546.342	0.0044
546.632	0.0012
546.923	0.0041
547.214	0.0037
547.504	0.0036
547.795	0.0042
548.085	0.0047
548.375	0.0034
548.666	0.004
548.956	0.0035
549.246	0.0038
549.536	0.0017
549.826	0.0037
550.116	0.0035
550.406	0.0031
550.695	0.004
550.985	0.0035
551.275	0.0039
551.564	0.0035
551.854	0.0035
552.143	0.0031
552.433	0.0035
552.722	0.0029
553.011	0.0031
553.3	0.0037
553.589	0.0041
553.879	0.0032
554.167	0.0037
554.456	0.0036
554.745	0.0027
555.034	0.0026
555.323	0.0015
555.611	0.0022
555.9	0.0036
556.188	0.0027
556.477	0.0028
556.765	0.0024
557.053	0.0028
557.342	0.0023
557.63	0.0026
557.918	0.0033
558.206	0.0027
558.494	0.0034
558.782	0.0033
559.069	0.0029
559.357	0.0032
559.645	0.0022
559.932	0.0031
560.22	0.0032
560.507	0.0039
560.795	0.0033
561.082	0.0028
561.37	0.0031
561.657	0.0034
561.944	0.0035
562.231	0.002
562.518	0.0021
562.805	0.0031
563.092	0.0043
563.379	0.0037
563.665	0.0032
563.952	0.0037
564.239	0.0039
564.525	0.0033
564.811	0.0036
565.098	0.0029
565.384	0.0034
565.67	0.0034
565.957	0.0028
566.243	0.0027
566.529	0.0036
566.815	0.0049
567.101	0.003
567.387	0.0029
567.672	0.0029
567.958	0.0038
568.244	0.0033
568.529	0.0035
568.815	0.0024
569.1	0.0033
569.386	0.0033
569.671	0.0025
569.956	0.0025
570.242	0.0025
570.527	0.0028
570.812	0.0024
571.097	0.0038
571.382	0.0025
571.666	0.0029
571.951	0.0036
572.236	0.0036
572.521	0.0032
572.805	0.0031
573.09	0.003
573.374	0.0026
573.659	0.0026
573.943	0.0033
574.227	0.0026
574.511	0.004
574.795	0.0031
575.079	0.0031
575.363	0.003
575.647	0.0033
575.931	0.0033
576.215	0.0038
576.499	0.0024
576.782	0.0032
577.066	0.0029
577.349	0.0029
577.633	0.0034
577.916	0.0036
578.2	0.0044
578.483	0.0043
578.766	0.0031
579.049	0.0039
579.332	0.0035
579.615	0.0033
579.898	0.0039
580.181	0.0038
580.464	0.003
580.746	0.0015
581.029	0.0031
581.312	0.0023
581.594	0.0029
581.877	0.0038
582.159	0.0043
582.441	0.0031
582.724	0.0033
583.006	0.0031
583.288	0.002
583.57	0.0025
583.852	0.0016
584.134	0.0019
584.416	0.0027
584.697	0.0028
584.979	0.0025
585.261	0.003
585.542	0.0028
585.824	0.0027
586.105	0.0037
586.387	0.0025
586.668	0.0026
586.949	0.0029
587.231	0.0026
587.512	0.003
587.793	0.0028
588.074	0.0031
588.355	0.0032
588.636	0.004
588.916	0.0035
589.197	0.0031
589.478	0.0024
589.758	0.0026
590.039	0.0029
590.319	0.0028
590.6	0.002
590.88	0.002
591.16	0.003
591.441	0.0029
591.721	0.0025
592.001	0.0026
592.281	0.0033
592.561	0.0033
592.841	0.0031
593.12	0.0032
593.4	0.0025
593.68	0.0036
593.959	0.0027
594.239	0.0041
594.518	0.0027
594.798	0.0021
595.077	0.0027
595.356	0.0025
595.636	0.0026
595.915	0.0027
596.194	0.0027
596.473	0.0029
596.752	0.0018
597.031	0.0021
597.31	0.0019
597.588	0.0019
597.867	0.002
598.146	0.002
598.424	0.0026
598.703	0.0018
598.981	0.002
599.259	0.0027
599.538	0.0034
599.816	0.0031
600.094	0.0024
600.372	0.0035
600.65	0.003
600.928	0.0032
601.206	0.0033
601.484	0.0032
601.762	0.0026
602.04	0.0024
602.317	0.0035
602.595	0.0026
602.872	0.0024
603.15	0.0021
603.427	0.0018
603.704	0.0018
603.982	0.0028
604.259	0.0019
604.536	0.0022
604.813	0.0016
605.09	0.0018
605.367	0.0013
605.644	0.0016
605.921	0.002
606.197	0.0027
606.474	0.0029
606.751	0.0024
607.027	0.0022
607.304	0.0024
607.58	0.0028
607.856	0.0021
608.133	0.002
608.409	0.0018
608.685	0.0019
608.961	0.003
609.237	0.0024
609.513	0.002
609.789	0.0019
610.065	0.001
610.341	0.0017
610.616	0.0022
610.892	0.0022
611.167	0.0021
611.443	0.0019
611.718	0.0011
611.994	0.0015
612.269	0.0018
612.544	0.0009
612.819	0.0017
613.095	0.0018
613.37	0.0018
613.645	0.0016
613.919	0.0024
614.194	0.0028
614.469	0.0011
614.744	0.0007
615.019	0.0021
615.293	0.0014
615.568	0.0013
615.842	0.001
616.116	0.0012
616.391	0.0007
616.665	0.0022
616.939	0.0014
617.213	0.0019
617.488	0.0012
617.762	0.0008
618.035	0.0014
618.309	0.0014
618.583	0.0013
618.857	0.0016
619.131	0.0012
619.404	0.0017
619.678	0.0015
619.951	0.0008
620.225	0.0011
620.498	0.0008
620.771	0.001
621.045	0.0019
621.318	0.0009
621.591	0.0002
621.864	0.0007
622.137	0.0001
622.41	0.001
622.683	-0.0001
622.956	0.0011
623.228	0.0023
623.501	0.0015
623.774	0.002
624.046	0.001
624.319	0.0011
624.591	0.0005
624.863	0.002
625.136	0.0012
625.408	0.0011
625.68	0.0011
625.952	0.0016
626.224	0.0014
626.496	0.0012
626.768	0.0005
627.04	0.0005
627.311	0.0004
627.583	0.0021
627.855	0.0011
628.126	0.0013
628.398	0.0014
628.669	-0.0003
628.941	0
629.212	-0.0011
629.483	-0
629.755	-0.0001
630.026	-0.0005
630.297	-0.0012
630.568	-0.0013
630.839	-0.001
631.11	-0.0014
631.38	-0.0012
631.651	-0.0006
631.922	-0.0019
632.192	-0.0012
632.463	-0.001
632.733	-0.0015
633.004	-0.0008
633.274	-0.0012
633.545	-0.0012
633.815	0.0009
634.085	0.0005
634.355	0.0003
634.625	0.0012
634.895	0.0002
635.165	-0.001
635.435	0.0001
635.705	0
635.974	-0.0012
636.244	0.0001
636.514	0
636.783	0.0007
637.053	0.0009
637.322	0.0001
637.591	0
637.861	0.0008
638.13	0.001
638.399	-0.0003
638.668	0.0004
638.937	-0.0008
639.206	-0.0006
639.475	-0.0002
639.744	-0.001
640.013	-0.0003
640.281	-0.0001
640.55	0.001
640.819	0.0002
641.087	0.0006
641.356	0.0003
641.624	0.0002
641.892	0.0005
642.161	-0.0001
642.429	0.0008
642.697	0.0001
642.965	0.0013
643.233	0.0013
643.501	0.0002
643.769	0.0002
644.037	0.0006
644.305	0.0005
644.572	-0.0008
644.84	-0.0003
645.108	-0.0001
645.375	-0.0005
645.643	-0.0001
645.91	-0.0007
646.177	0.0007
646.445	0.0022
646.712	0.002
646.979	0.0025
647.246	0.0018
647.513	0.0014
647.78	0.0013
648.047	0.002
648.314	0.002
648.58	0.0012
648.847	0.0007
649.114	-0.0003
649.38	-0.0002
649.647	0.0004
649.913	-0
650.18	0
650.446	0.0006
650.712	0.0014
650.978	0.0015
651.245	0.002
651.511	0.0014
651.777	0.0011
652.043	0.0014
652.309	0.0006
652.574	0.001
652.84	-0.0001
653.106	-0.0001
653.371	-0.0009
653.637	0.0003
653.903	0.0006
654.168	-0
654.433	0.0006
654.699	0.0013
654.964	0.0011
655.229	0.0009
655.494	0.0003
655.759	-0.0001
656.024	0.0006
656.289	-0
656.554	0.0018
656.819	0.0005
657.084	0.0008
657.349	0.0015
657.613	0.0016
657.878	0.0015
658.142	0.0016
658.407	0.0017
658.671	0.001
658.936	0.0001
659.2	-0.0003
659.464	0
659.728	-0.0001
659.992	0.0003
660.256	-0.0005
660.52	-0.0005
660.784	-0.0018
661.048	-0.0012
661.312	-0.0015
661.575	-0.0017
661.839	-0.0026
662.103	-0.0021
662.366	-0.0023
662.63	-0.0024
662.893	-0.0013
663.156	-0.0018
663.42	-0.0012
663.683	-0.0013
663.946	0
664.209	0.0013
664.472	0.001
664.735	0.0008
664.998	0.0005
665.261	0.0003
665.524	0.0001
665.786	-0.0012
666.049	-0.0012
666.312	-0.0008
666.574	-0.0011
666.837	-0.0019
667.099	-0.0021
667.361	-0.0022
667.624	-0.0025
667.886	-0.0021
668.148	-0.0009
668.41	-0.0002
668.672	-0.001
668.934	-0.0015
669.196	-0.0017
669.458	-0.0003
669.72	-0.0004
669.982	-0.0004
670.243	0.0002
670.505	0.0003
670.766	0.0004
671.028	0.0006
671.289	0.0003
671.551	-0.0002
671.812	-0.0009
672.073	0.0006
672.334	-0.0005
672.596	-0
672.857	-0.0009
673.118	-0.0007
673.379	-0.0023
673.639	-0.0016
673.9	-0.0022
674.161	-0.0033
674.422	-0.003
674.682	-0.0031
674.943	-0.0031
675.203	-0.0012
675.464	-0.0012
675.724	-0.0009
675.985	0.0001
676.245	0.0009
676.505	0.0008
676.765	0.0003
677.025	0.0004
677.285	-0.0002
677.545	0.0008
677.805	0.0012
678.065	0.0014
678.325	0.0017
678.585	0.0002
678.844	0.0005
679.104	0.0005
679.363	0.0009
679.623	0.0023
679.882	0.0031
680.142	0.0025
680.401	0.0021
680.66	0.0026
680.919	0.0027
681.178	0.0032
681.437	0.0024
681.696	0.0022
681.955	0.0025
682.214	0.0024
682.473	0.0025
682.732	0.0001
682.99	0.0012
683.249	0.0012
683.508	0.0014
683.766	0.0009
684.024	0.0017
684.283	0.0013
684.541	0.0015
684.799	0.0021
685.058	0.0013
685.316	0.0012
685.574	0.0028
685.832	0.0024
686.09	0.0023
686.348	0.0022
686.606	0.002
686.863	0.002
687.121	0.0022
687.379	0.0017
687.636	0.0026
687.894	0.0022
688.151	0.0022
688.409	0.002
688.666	0.0019
688.923	0.0026
689.181	0.0016
689.438	0.0009
689.695	0.0009
689.952	-0
690.209	0.0003
690.466	0
690.723	0.0007
690.979	0.0004
691.236	0.0004
691.493	0.0013
691.75	0.0019
692.006	0.0021
692.263	0.0025
692.519	0.0021
692.775	0.0004
693.032	0.0004
693.288	0.0011
693.544	0.0024
693.8	0.0018
694.056	0.0019
694.313	0.0013
694.568	0.0012
694.824	0.0014
695.08	0.002
695.336	0.0016
695.592	0.0015
695.847	0.0022
696.103	0.0019
696.359	0.0015
696.614	0.0003
696.869	0.0007
697.125	0.0001
697.38	-0.0002
697.635	-0.0012
697.891	-0.0007
698.146	-0.0007
698.401	-0.0005
698.656	-0.001
698.911	-0.0007
699.166	-0.0007
699.42	-0
699.675	-0.0016
699.93	-0.0018
700.185	-0.0006
700.439	0.0006
700.694	-0.001
700.948	0.0006
701.203	0.0007
701.457	0.0008
701.711	-0.0003
701.965	-0.0014
702.22	-0.0014
702.474	-0.0009
702.728	-0.0015
702.982	-0.002
703.236	-0.0011
703.49	-0.0017
703.743	-0.0017
703.997	-0.0009
704.251	-0.0004
704.504	0.0005
704.758	-0.0006
705.012	-0.0009
705.265	-0.0015
705.518	-0.0018
705.772	-0.0018
706.025	-0.0016
706.278	-0.0015
706.531	-0.0017
706.785	-0.0023
707.038	-0.0009
707.291	-0.0008
707.543	-0.0013
707.796	-0.0008
708.049	-0.0012
708.302	-0.0017
708.555	-0.0018
708.807	-0.0014
709.06	-0.0023
709.312	-0.0037
709.565	-0.0029
709.817	-0.0032
710.069	-0.0024
710.322	-0.0024
710.574	-0.0019
710.826	-0.0018
711.078	-0.0002
711.33	-0.0013
711.582	-0.0017
711.834	-0.0008
712.086	-0.0006
712.338	-0.0004
712.59	0.0002
712.841	0.0002
713.093	0.0007
713.344	0.0001
713.596	0.0006
713.847	0.001
714.099	0.0012
714.35	0.002
714.601	0.0014
714.853	0.0023
715.104	0.0006
715.355	0.0007
715.606	0.0002
715.857	0.0013
716.108	0.0008
716.359	0.0002
716.609	0.0007
716.86	0.0003
717.111	-0.0005
717.361	-0.0019
717.612	-0.0017
717.863	-0.0025
718.113	-0.0025
718.363	-0.0013
718.614	-0.001
718.864	-0.0018
719.114	-0.0011
719.364	-0.0012
719.614	-0.0016
719.865	-0.002
720.114	-0.0014
720.364	-0.0018
720.614	0.0002
720.864	0.0008
721.114	0.0009
721.364	0.0016
721.613	0.0018
721.863	0.0005
722.112	0.0009
722.362	0.0008
722.611	0.0013
722.86	-0.0004
723.11	-0.0009
723.359	0.0002
723.608	0.0012
723.857	0.0012
724.106	0.0034
724.355	0.0029
724.604	0.0034
724.853	0.0021
725.102	0.0013
725.351	-0.0002
725.599	0.0002
725.848	0.0016
726.097	0.0004
726.345	0.0001
726.594	0.0002
726.842	-0.0004
727.09	-0.0004
727.339	0.0001
727.587	-0.0009
727.835	-0.0015
728.083	-0.0023
728.331	-0.0026
728.579	-0.0031
728.827	-0.0023
729.075	-0.0018
729.323	-0.0009
729.571	-0.0005
729.818	-0.0003
730.066	0.0004
730.314	-0.0001
730.561	-0.0015
730.809	-0.002
731.056	-0.001
731.303	-0.0013
731.551	-0.0014
731.798	-0.0011
732.045	-0.0006
732.292	-0.0013
732.539	-0.0019
732.786	-0.0007
733.033	0.0004
733.28	0.0003
733.527	0.0017
733.774	0.0002
734.021	0.0026
734.267	0.0026
734.514	0.0024
734.76	0.0025
735.007	0.0032
735.253	0.0039
735.5	0.0042
735.746	0.0042
735.992	0.0033
736.238	0.0032
736.485	0.004
736.731	0.0036
736.977	0.0031
737.223	0.0031
737.469	0.0037
737.715	0.0039
737.96	0.0045
738.206	0.0037
738.452	0.0046
738.697	0.0048
738.943	0.0037
739.189	0.0028
739.434	0.0011
739.679	0.0009
739.925	0.0007
740.17	-0.001
740.415	0.0001
740.66	0.0007
740.906	0.0008
741.151	0.0006
741.396	0.0008
741.641	0.003
741.886	0.003
742.13	0.0034
742.375	0.0035
742.62	0.0042
742.865	0.0038
743.109	0.0025
743.354	0.002
743.598	0.0014
743.843	0.0023
744.087	0.0017
744.331	0.0023
744.576	0.0014
744.82	0.0015
745.064	0.0016
745.308	0.0005
745.552	0.0009
745.796	0.0013
746.04	0.0011
746.284	-0.0007
746.528	-0.0017
746.771	-0.0006
747.015	-0.0016
747.259	-0.0018
747.502	-0.0019
747.746	-0.0003
747.989	-0.0002
748.233	0.0002
748.476	0.001
748.719	0.001
748.963	0.0021
749.206	-0
749.449	0.0016
749.692	0.0008
749.935	0.002
750.178	0.0017
750.421	0.0017
750.664	0.0023
750.906	0.0023
751.149	0.0008
751.392	0.0004
751.635	-0.0002
751.877	-0.0014
752.12	-0.0023
752.362	-0.001
752.604	-0.0016
752.847	-0.0006
753.089	-0.0007
753.331	0.0002
753.573	0.0006
753.816	0.0011
754.058	0.0013
754.3	0.0015
754.542	0.0019
754.783	0
755.025	0.0002
755.267	-0.001
755.509	-0.0011
755.75	-0.0004
755.992	0.0006
756.234	-0.001
756.475	-0.0011
756.716	-0.0015
756.958	0
757.199	-0
757.44	0.0004
757.682	0.0008
757.923	-0.0002
758.164	-0.0001
758.405	-0.0012
758.646	-0.0011
758.887	-0.0008
759.128	-0.0017
759.369	-0.0017
759.609	-0.0014
759.85	-0.0014
760.091	-0.0012
760.331	-0.0014
760.572	-0.0007
760.812	-0.0018
761.053	-0.0014
761.293	-0.0018
761.533	-0.0012
761.774	-0.0007
762.014	-0.0011
762.254	-0.0014
762.494	-0.0017
762.734	-0.0023
762.974	-0.0017
763.214	-0.0023
763.454	-0.0026
763.694	-0.0019
763.933	-0.0024
764.173	-0.0014
764.413	-0.002
764.652	-0.0002
764.892	0.0004
765.131	0.0008
765.371	-0
765.61	0.0006
765.849	0.0004
766.089	-0.0002
766.328	0.0004
766.567	-0.0004
766.806	0.0007
767.045	0.0014
767.284	0.0011
767.523	0.0012
767.762	0.0017
768.001	0.0002
768.239	0.0007
768.478	0.0004
768.717	0.0004
768.955	0.0013
769.194	0.0006
769.432	0.0004
769.671	0.001
769.909	0.001
770.148	0.0007
770.386	0.0011
770.624	0.0014
770.862	0.001
771.1	0.0006
771.338	-0.0005
771.576	0.0001
771.814	-0.0005
772.052	-0.0005
772.29	0.0002
772.528	0.0008
772.765	0.0003
773.003	0.0004
773.24	0.0006
773.478	0.0004
773.716	0.0018
773.953	0.0011
774.19	0.0013
774.428	0.0014
774.665	0.0014
774.902	0.0009
775.139	0.0002
775.376	0.0009
775.613	-0.0001
775.85	-0.0001
776.087	-0.0008
776.324	-0.0004
776.561	-0.0009
776.798	0.0008
777.034	0.0014
777.271	0.0024
777.508	0.0027
777.744	0.0026
777.981	0.0013
778.217	0.002
778.454	0.0013
778.69	0.0005
778.926	0.0016
779.162	0.0016
779.399	0.0014
779.635	0.0012
779.871	0.0005
780.107	0.0015
780.343	0.0024
780.579	0.0028
780.814	0.0028
781.05	0.0025
781.286	0.003
781.522	0.0017
781.757	0.0034
781.993	0.0034
782.228	0.0032
782.464	0.0029
782.699	0.0015
782.934	0.0009
783.17	0.0012
783.405	0.0004
783.64	0.0004
783.875	0.0003
784.11	0.0013
784.345	0.0013
784.58	0.0014
784.815	0.0013
785.05	0.0011
785.285	-0
785.52	-0.0002
785.754	0.0001
785.989	0
786.223	-0.0014
786.458	-0.0003
786.692	0
786.927	-0.0016
787.161	-0.0012
787.396	-0.0017
787.63	-0.0012
787.864	-0.0017
788.098	-0.002
788.332	-0.0015
788.566	-0.0018
788.8	-0.0013
789.034	-0.0007
789.268	-0.0005
789.502	-0.0002
789.736	0.0005
789.969	0.0009
790.203	0.0006
790.437	0.0007
790.67	0.0006
790.904	0.0001
791.137	-0.0011
791.37	-0.0014
791.604	-0.0025
791.837	-0.0021
792.07	-0.0023
792.303	-0.001
792.537	-0.0019
792.77	-0.0015
793.003	-0.0017
793.236	-0.002
793.469	-0.0026
793.701	-0.0011
793.934	-0.0017
794.167	-0.0005
794.4	0.0001
794.632	-0
794.865	-0.0005
795.097	-0.0006
795.33	0.0008
795.562	-0.0005
795.795	-0.0007
796.027	-0.0002
796.259	-0.0007
796.491	-0.0008
796.724	-0.0009
796.956	-0.0011
797.188	-0.0006
797.42	-0.0016
797.652	-0.0016
797.883	-0.0018
798.115	-0.0021
798.347	-0.0026
798.579	-0.0034
798.81	-0.004
799.042	-0.003
799.274	-0.0034
799.505	-0.0035
799.737	-0.0035
799.968	-0.0028
800.199	-0.0026
800.431	-0.0026
800.662	-0.0019
800.893	-0.0024
801.124	-0.0017
801.355	-0.0019
801.586	-0.0009
801.817	-0.0009
802.048	-0.0012
802.279	-0.0008
802.51	-0.0005
802.741	-0.0019
802.971	-0.0011
803.202	-0.002
803.433	-0.0019
803.663	-0.0019
803.894	-0.0005
804.124	0.0002
804.354	-0.0007
804.585	-0.0009
804.815	-0.0008
805.045	-0.0012
805.275	-0.0034
805.506	-0.0445
805.736	0.0817
805.966	0.0087
806.196	0.0187
