Data from 03 0.2 mM BQDS 0.4 mM K2Cr2O7 1 M H2SO4 5 min_Absorbance_03-17-42-360.txt Node
Date: Wed Dec 08 03:17:42 EST 2021
User: kwabilab-user
Spectrometer: HDX00518
Trigger mode: 0
Integration Time (sec): 5.000000E-2
Scans to average: 50
Nonlinearity correction enabled: false
Boxcar width: 0
Storing dark spectrum: false
XAxis mode: Wavelengths
Number of Pixels in Spectrum: 2068
>>>>>Begin Spectral Data<<<<<
195.27	-0.0959
195.642	0.0049
196.014	-0.0073
196.386	-0.0612
196.758	-0.0368
197.129	-0.027
197.501	0.0052
197.872	0.0625
198.244	0.0839
198.615	0.0976
198.986	0.0734
199.357	0.063
199.728	0.0747
200.099	0.078
200.47	0.0747
200.841	0.0919
201.212	0.0849
201.582	0.0641
201.953	0.092
202.323	0.086
202.694	0.0679
203.064	0.0829
203.434	0.0763
203.804	0.0855
204.174	0.0731
204.544	0.0817
204.914	0.0774
205.284	0.0779
205.653	0.081
206.023	0.0723
206.393	0.0634
206.762	0.0761
207.131	0.0837
207.501	0.0903
207.87	0.0834
208.239	0.087
208.608	0.0716
208.977	0.0892
209.346	0.1033
209.715	0.0926
210.083	0.1017
210.452	0.0919
210.82	0.106
211.189	0.0937
211.557	0.0974
211.925	0.1232
212.294	0.1176
212.662	0.1281
213.03	0.1242
213.398	0.1168
213.766	0.1292
214.133	0.1397
214.501	0.1777
214.869	0.1552
215.236	0.1958
215.604	0.1872
215.971	0.2001
216.338	0.2157
216.705	0.2494
217.072	0.2602
217.439	0.2792
217.806	0.3068
218.173	0.3392
218.54	0.3507
218.907	0.3942
219.273	0.4446
219.64	0.4788
220.006	0.5006
220.373	0.5438
220.739	0.5779
221.105	0.6204
221.471	0.6392
221.837	0.7024
222.203	0.7329
222.569	0.7637
222.935	0.7894
223.3	0.8077
223.666	0.8517
224.031	0.874
224.397	0.8903
224.762	0.908
225.127	0.9289
225.493	0.9455
225.858	0.954
226.223	0.9632
226.588	0.9777
226.952	0.9725
227.317	0.9822
227.682	0.9735
228.046	0.9807
228.411	0.9894
228.775	0.975
229.14	0.9795
229.504	0.9768
229.868	0.9713
230.232	0.9582
230.596	0.9532
230.96	0.9455
231.324	0.9347
231.688	0.9294
232.052	0.9249
232.415	0.9148
232.779	0.9091
233.142	0.9001
233.505	0.8904
233.869	0.8854
234.232	0.8726
234.595	0.8638
234.958	0.8528
235.321	0.8435
235.684	0.8324
236.047	0.8238
236.409	0.816
236.772	0.8093
237.134	0.8011
237.497	0.794
237.859	0.7838
238.222	0.7746
238.584	0.767
238.946	0.7603
239.308	0.7535
239.67	0.7417
240.032	0.741
240.393	0.7361
240.755	0.7244
241.117	0.7193
241.478	0.7146
241.84	0.7067
242.201	0.6993
242.562	0.6937
242.924	0.6865
243.285	0.6824
243.646	0.6788
244.007	0.6736
244.368	0.6708
244.728	0.6643
245.089	0.661
245.45	0.6575
245.81	0.6531
246.171	0.6511
246.531	0.645
246.891	0.6425
247.252	0.6387
247.612	0.6357
247.972	0.6338
248.332	0.6322
248.692	0.6272
249.051	0.6261
249.411	0.623
249.771	0.619
250.13	0.618
250.49	0.618
250.849	0.6148
251.208	0.6127
251.568	0.6109
251.927	0.6099
252.286	0.6123
252.645	0.6092
253.004	0.6039
253.363	0.6041
253.721	0.6044
254.08	0.601
254.439	0.6009
254.797	0.5985
255.155	0.5979
255.514	0.5979
255.872	0.5953
256.23	0.5964
256.588	0.593
256.946	0.5927
257.304	0.5917
257.662	0.5907
258.02	0.5885
258.377	0.5883
258.735	0.5854
259.093	0.5871
259.45	0.584
259.807	0.5839
260.165	0.5829
260.522	0.5806
260.879	0.5769
261.236	0.5783
261.593	0.5768
261.95	0.575
262.306	0.5743
262.663	0.572
263.02	0.5715
263.376	0.5697
263.733	0.5671
264.089	0.5662
264.445	0.5662
264.802	0.5616
265.158	0.5593
265.514	0.5592
265.87	0.5579
266.226	0.5547
266.581	0.5517
266.937	0.5486
267.293	0.5468
267.648	0.5451
268.004	0.5438
268.359	0.5401
268.714	0.5372
269.07	0.5351
269.425	0.5317
269.78	0.5318
270.135	0.5286
270.49	0.5266
270.844	0.5228
271.199	0.5208
271.554	0.5159
271.908	0.5136
272.263	0.5115
272.617	0.5094
272.972	0.5047
273.326	0.503
273.68	0.4993
274.034	0.495
274.388	0.4917
274.742	0.4879
275.096	0.4847
275.45	0.4817
275.803	0.4771
276.157	0.474
276.51	0.4703
276.864	0.4675
277.217	0.4634
277.571	0.4577
277.924	0.4542
278.277	0.4501
278.63	0.4474
278.983	0.4437
279.336	0.4397
279.688	0.4356
280.041	0.4317
280.394	0.4276
280.746	0.4234
281.099	0.4192
281.451	0.4159
281.803	0.4105
282.156	0.4081
282.508	0.4027
282.86	0.3987
283.212	0.3953
283.564	0.3922
283.916	0.386
284.267	0.381
284.619	0.3798
284.971	0.3747
285.322	0.3708
285.673	0.3678
286.025	0.3643
286.376	0.3593
286.727	0.3543
287.078	0.3517
287.429	0.3486
287.78	0.3433
288.131	0.3394
288.482	0.3351
288.833	0.332
289.183	0.3277
289.534	0.3237
289.884	0.3194
290.235	0.3156
290.585	0.312
290.935	0.3088
291.285	0.3044
291.635	0.3013
291.985	0.2963
292.335	0.2929
292.685	0.2901
293.035	0.2854
293.384	0.2813
293.734	0.2773
294.083	0.2747
294.433	0.27
294.782	0.267
295.131	0.2627
295.48	0.2604
295.829	0.2574
296.179	0.2525
296.527	0.2498
296.876	0.2466
297.225	0.2435
297.574	0.2394
297.922	0.2371
298.271	0.2337
298.619	0.2298
298.968	0.2273
299.316	0.2238
299.664	0.2217
300.012	0.2189
300.36	0.2149
300.708	0.2126
301.056	0.2099
301.404	0.2079
301.752	0.2051
302.099	0.2031
302.447	0.2005
302.794	0.1979
303.142	0.1961
303.489	0.1933
303.836	0.1914
304.183	0.189
304.531	0.188
304.878	0.1854
305.224	0.1835
305.571	0.1824
305.918	0.1803
306.265	0.1784
306.611	0.177
306.958	0.1761
307.304	0.1741
307.651	0.1729
307.997	0.1718
308.343	0.171
308.689	0.1701
309.035	0.1685
309.381	0.1677
309.727	0.1666
310.073	0.1664
310.419	0.1654
310.764	0.164
311.11	0.1641
311.455	0.1636
311.801	0.1631
312.146	0.1625
312.491	0.1614
312.837	0.1616
313.182	0.1613
313.527	0.1614
313.872	0.1611
314.216	0.1607
314.561	0.1609
314.906	0.1611
315.251	0.1609
315.595	0.1606
315.94	0.1609
316.284	0.1612
316.628	0.1607
316.972	0.1607
317.317	0.1616
317.661	0.1617
318.005	0.1621
318.348	0.1628
318.692	0.1633
319.036	0.1635
319.38	0.1641
319.723	0.1653
320.067	0.1651
320.41	0.1657
320.754	0.167
321.097	0.168
321.44	0.1682
321.783	0.1688
322.126	0.1697
322.469	0.1711
322.812	0.1718
323.155	0.1731
323.498	0.1743
323.84	0.1748
324.183	0.1759
324.525	0.1772
324.868	0.1777
325.21	0.1791
325.552	0.1803
325.894	0.1814
326.236	0.183
326.578	0.1836
326.92	0.1852
327.262	0.1859
327.604	0.1866
327.946	0.1884
328.287	0.1902
328.629	0.1909
328.97	0.1917
329.312	0.1937
329.653	0.1948
329.994	0.1961
330.335	0.1981
330.676	0.1987
331.017	0.1995
331.358	0.2012
331.699	0.2029
332.04	0.2045
332.38	0.2055
332.721	0.2074
333.061	0.2082
333.402	0.2094
333.742	0.2113
334.083	0.2129
334.423	0.2128
334.763	0.2144
335.103	0.2163
335.443	0.2169
335.783	0.2175
336.123	0.2183
336.462	0.22
336.802	0.221
337.141	0.222
337.481	0.2233
337.82	0.2235
338.16	0.2248
338.499	0.2268
338.838	0.227
339.177	0.2282
339.516	0.229
339.855	0.2305
340.194	0.2309
340.533	0.2324
340.872	0.2329
341.21	0.2349
341.549	0.2349
341.887	0.2354
342.226	0.2362
342.564	0.236
342.902	0.2367
343.24	0.2369
343.578	0.2374
343.916	0.2376
344.254	0.2383
344.592	0.2384
344.93	0.2387
345.268	0.239
345.605	0.2387
345.943	0.2389
346.28	0.2394
346.618	0.239
346.955	0.2399
347.292	0.2396
347.629	0.2403
347.966	0.2402
348.303	0.24
348.64	0.2401
348.977	0.2401
349.314	0.2401
349.65	0.2404
349.987	0.2404
350.324	0.2398
350.66	0.2392
350.996	0.2399
351.333	0.2387
351.669	0.2375
352.005	0.2373
352.341	0.2369
352.677	0.2357
353.013	0.2343
353.349	0.2334
353.685	0.2327
354.02	0.2319
354.356	0.231
354.691	0.2301
355.027	0.2297
355.362	0.2277
355.697	0.227
356.033	0.2257
356.368	0.2249
356.703	0.2243
357.038	0.2236
357.373	0.2226
357.707	0.2213
358.042	0.2208
358.377	0.22
358.711	0.2188
359.046	0.2178
359.38	0.2164
359.715	0.2155
360.049	0.2145
360.383	0.2135
360.717	0.212
361.051	0.2103
361.385	0.2101
361.719	0.2074
362.053	0.2069
362.387	0.204
362.72	0.2021
363.054	0.2003
363.387	0.1984
363.721	0.1974
364.054	0.1952
364.387	0.1942
364.721	0.1922
365.054	0.1902
365.387	0.1889
365.72	0.1869
366.053	0.1857
366.385	0.1833
366.718	0.183
367.051	0.1812
367.383	0.1798
367.716	0.1782
368.048	0.1767
368.381	0.1751
368.713	0.1742
369.045	0.1733
369.377	0.1719
369.709	0.1704
370.041	0.1688
370.373	0.168
370.705	0.1657
371.037	0.1638
371.368	0.1623
371.7	0.1613
372.031	0.1601
372.363	0.1577
372.694	0.1558
373.025	0.154
373.356	0.1522
373.688	0.1499
374.019	0.1473
374.35	0.1467
374.68	0.1442
375.011	0.1422
375.342	0.1405
375.673	0.1391
376.003	0.1371
376.334	0.1349
376.664	0.133
376.995	0.1319
377.325	0.1307
377.655	0.1291
377.985	0.1273
378.315	0.1269
378.645	0.1248
378.975	0.1233
379.305	0.1224
379.635	0.1216
379.964	0.1197
380.294	0.1183
380.623	0.1169
380.953	0.1165
381.282	0.1146
381.611	0.1135
381.941	0.112
382.27	0.111
382.599	0.1087
382.928	0.1078
383.257	0.1065
383.585	0.1058
383.914	0.1042
384.243	0.1023
384.571	0.0999
384.9	0.0983
385.228	0.0971
385.557	0.0958
385.885	0.0942
386.213	0.0927
386.541	0.0912
386.869	0.0899
387.197	0.0877
387.525	0.086
387.853	0.0849
388.181	0.0834
388.508	0.083
388.836	0.0817
389.164	0.0802
389.491	0.0787
389.818	0.0777
390.146	0.0763
390.473	0.0752
390.8	0.0745
391.127	0.073
391.454	0.073
391.781	0.0713
392.108	0.07
392.435	0.0688
392.761	0.0674
393.088	0.0669
393.415	0.0665
393.741	0.0667
394.067	0.0651
394.394	0.0647
394.72	0.0636
395.046	0.0625
395.372	0.0619
395.698	0.0602
396.024	0.0598
396.35	0.059
396.676	0.0585
397.001	0.0575
397.327	0.0565
397.653	0.0558
397.978	0.0552
398.303	0.0538
398.629	0.0533
398.954	0.0532
399.279	0.0526
399.604	0.0521
399.929	0.0512
400.254	0.0503
400.579	0.05
400.904	0.0488
401.229	0.0482
401.553	0.047
401.878	0.0468
402.202	0.0464
402.527	0.0461
402.851	0.0459
403.175	0.0455
403.5	0.045
403.824	0.0453
404.148	0.0444
404.472	0.0438
404.796	0.0432
405.119	0.0432
405.443	0.0427
405.767	0.0424
406.09	0.0422
406.414	0.0425
406.737	0.0419
407.061	0.0418
407.384	0.0415
407.707	0.041
408.03	0.0415
408.353	0.0416
408.676	0.0415
408.999	0.0407
409.322	0.041
409.645	0.0409
409.968	0.0409
410.29	0.0407
410.613	0.0396
410.935	0.0401
411.258	0.0411
411.58	0.0402
411.902	0.0403
412.224	0.0403
412.546	0.0403
412.868	0.0393
413.19	0.0395
413.512	0.04
413.834	0.0399
414.156	0.0402
414.477	0.0393
414.799	0.0392
415.121	0.0405
415.442	0.0401
415.763	0.0403
416.085	0.0405
416.406	0.0403
416.727	0.0402
417.048	0.0398
417.369	0.0389
417.69	0.039
418.011	0.04
418.331	0.0405
418.652	0.0397
418.973	0.0404
419.293	0.0399
419.614	0.0403
419.934	0.0398
420.254	0.0406
420.574	0.0401
420.895	0.0402
421.215	0.04
421.535	0.04
421.855	0.0402
422.174	0.04
422.494	0.0402
422.814	0.0412
423.134	0.0401
423.453	0.0399
423.773	0.0406
424.092	0.0401
424.411	0.0401
424.731	0.0409
425.05	0.0409
425.369	0.0411
425.688	0.0409
426.007	0.0411
426.326	0.0415
426.644	0.042
426.963	0.0415
427.282	0.0416
427.6	0.041
427.919	0.0417
428.237	0.0416
428.556	0.042
428.874	0.0414
429.192	0.0417
429.51	0.0412
429.828	0.0418
430.146	0.0422
430.464	0.0418
430.782	0.0418
431.1	0.0421
431.418	0.0418
431.735	0.042
432.053	0.0422
432.37	0.0421
432.688	0.0416
433.005	0.0418
433.322	0.042
433.639	0.0423
433.957	0.0417
434.274	0.0425
434.591	0.0415
434.907	0.0427
435.224	0.0424
435.541	0.0425
435.858	0.0429
436.174	0.0432
436.491	0.0425
436.807	0.0424
437.124	0.0415
437.44	0.0419
437.756	0.0416
438.072	0.0414
438.388	0.0425
438.704	0.042
439.02	0.0422
439.336	0.0419
439.652	0.0419
439.968	0.0421
440.283	0.0422
440.599	0.0421
440.914	0.0423
441.23	0.0417
441.545	0.0422
441.86	0.0419
442.175	0.0423
442.491	0.0417
442.806	0.0418
443.121	0.0422
443.435	0.042
443.75	0.0416
444.065	0.0413
444.38	0.0424
444.694	0.0415
445.009	0.0417
445.323	0.0416
445.638	0.041
445.952	0.0419
446.266	0.0413
446.58	0.0416
446.894	0.0419
447.208	0.0418
447.522	0.0415
447.836	0.0408
448.15	0.0399
448.464	0.0404
448.777	0.0404
449.091	0.0403
449.404	0.0408
449.718	0.0409
450.031	0.0408
450.345	0.0399
450.658	0.0402
450.971	0.0408
451.284	0.0401
451.597	0.0404
451.91	0.0406
452.223	0.0397
452.535	0.0403
452.848	0.04
453.161	0.0397
453.473	0.0399
453.786	0.0398
454.098	0.0395
454.411	0.0393
454.723	0.0391
455.035	0.0395
455.347	0.0395
455.659	0.0401
455.971	0.039
456.283	0.0395
456.595	0.0389
456.907	0.0389
457.218	0.0392
457.53	0.0392
457.841	0.0381
458.153	0.037
458.464	0.0373
458.776	0.0371
459.087	0.0369
459.398	0.0371
459.709	0.0373
460.02	0.037
460.331	0.0366
460.642	0.0366
460.953	0.037
461.263	0.0368
461.574	0.0363
461.885	0.0361
462.195	0.0363
462.506	0.0364
462.816	0.0356
463.126	0.0346
463.437	0.0353
463.747	0.0347
464.057	0.0347
464.367	0.0348
464.677	0.0346
464.987	0.0348
465.296	0.0337
465.606	0.0338
465.916	0.0337
466.225	0.0337
466.535	0.0335
466.844	0.0322
467.154	0.0332
467.463	0.0326
467.772	0.033
468.081	0.0315
468.39	0.0322
468.699	0.0321
469.008	0.0318
469.317	0.0325
469.626	0.0317
469.935	0.0313
470.243	0.0315
470.552	0.0321
470.86	0.0315
471.169	0.0304
471.477	0.0311
471.785	0.0311
472.093	0.0314
472.402	0.0303
472.71	0.0298
473.018	0.0291
473.326	0.029
473.633	0.0288
473.941	0.0289
474.249	0.0287
474.556	0.0288
474.864	0.0284
475.171	0.0277
475.479	0.0279
475.786	0.0284
476.094	0.0283
476.401	0.0282
476.708	0.0274
477.015	0.028
477.322	0.0273
477.629	0.0272
477.936	0.026
478.242	0.0269
478.549	0.0264
478.856	0.0256
479.162	0.0257
479.469	0.0256
479.775	0.0266
480.081	0.0254
480.388	0.0255
480.694	0.0251
481	0.0247
481.306	0.0247
481.612	0.025
481.918	0.024
482.224	0.0247
482.53	0.024
482.835	0.0233
483.141	0.0223
483.446	0.0224
483.752	0.0225
484.057	0.022
484.363	0.0225
484.668	0.0218
484.973	0.0224
485.278	0.0214
485.583	0.0212
485.888	0.0207
486.193	0.021
486.498	0.0207
486.803	0.0217
487.107	0.0207
487.412	0.0204
487.717	0.0198
488.021	0.0198
488.325	0.0191
488.63	0.019
488.934	0.0189
489.238	0.0202
489.542	0.0197
489.846	0.0177
490.15	0.0191
490.454	0.019
490.758	0.0182
491.062	0.0184
491.366	0.0181
491.669	0.0182
491.973	0.0184
492.276	0.0178
492.58	0.0166
492.883	0.0177
493.186	0.0173
493.489	0.0177
493.792	0.017
494.096	0.0167
494.399	0.0166
494.701	0.0169
495.004	0.0161
495.307	0.0151
495.61	0.0151
495.912	0.0151
496.215	0.0153
496.517	0.0149
496.82	0.0146
497.122	0.0153
497.424	0.0148
497.727	0.0138
498.029	0.0151
498.331	0.0157
498.633	0.0144
498.935	0.0137
499.237	0.0141
499.538	0.0131
499.84	0.0135
500.142	0.0145
500.443	0.0129
500.745	0.0136
501.046	0.0139
501.348	0.0127
501.649	0.0125
501.95	0.0131
502.251	0.0129
502.552	0.0115
502.853	0.0114
503.154	0.0122
503.455	0.0113
503.756	0.0121
504.057	0.0123
504.357	0.0113
504.658	0.0113
504.958	0.0112
505.259	0.0113
505.559	0.0116
505.859	0.0114
506.16	0.0109
506.46	0.0104
506.76	0.0112
507.06	0.0099
507.36	0.0107
507.66	0.0111
507.96	0.0108
508.259	0.01
508.559	0.0089
508.859	0.0103
509.158	0.0092
509.457	0.0094
509.757	0.011
510.056	0.0091
510.355	0.0089
510.655	0.0072
510.954	0.0092
511.253	0.0091
511.552	0.009
511.851	0.0084
512.149	0.0082
512.448	0.0087
512.747	0.0091
513.045	0.0076
513.344	0.0097
513.642	0.0081
513.941	0.008
514.239	0.0078
514.537	0.0078
514.836	0.008
515.134	0.0078
515.432	0.0079
515.73	0.0083
516.028	0.0061
516.326	0.0072
516.623	0.0071
516.921	0.0073
517.219	0.008
517.516	0.0072
517.814	0.0069
518.111	0.0072
518.409	0.0086
518.706	0.007
519.003	0.0075
519.3	0.0061
519.597	0.0063
519.894	0.0064
520.191	0.0067
520.488	0.0071
520.785	0.0048
521.082	0.0061
521.378	0.0076
521.675	0.0053
521.971	0.0058
522.268	0.0062
522.564	0.0058
522.861	0.0061
523.157	0.0051
523.453	0.0059
523.749	0.0067
524.045	0.0066
524.341	0.0057
524.637	0.0052
524.933	0.0057
525.229	0.0065
525.524	0.0053
525.82	0.0061
526.115	0.0056
526.411	0.0045
526.706	0.0048
527.002	0.0052
527.297	0.004
527.592	0.0061
527.887	0.0053
528.182	0.0051
528.477	0.0059
528.772	0.0051
529.067	0.0053
529.362	0.0052
529.657	0.0049
529.951	0.0042
530.246	0.0039
530.54	0.0034
530.835	0.004
531.129	0.0025
531.423	0.0053
531.718	0.0029
532.012	0.0032
532.306	0.0039
532.6	0.0044
532.894	0.0031
533.188	0.004
533.482	0.0035
533.775	0.0052
534.069	0.0036
534.363	0.0034
534.656	0.0038
534.95	0.0029
535.243	0.0029
535.536	0.0037
535.83	0.0043
536.123	0.0032
536.416	0.0042
536.709	0.0041
537.002	0.0037
537.295	0.0035
537.588	0.0047
537.881	0.003
538.173	0.0034
538.466	0.0031
538.759	0.0031
539.051	0.0026
539.344	0.0029
539.636	0.0028
539.928	0.0022
540.22	0.0038
540.513	0.003
540.805	0.0028
541.097	0.0043
541.389	0.0031
541.681	0.0036
541.972	0.0029
542.264	0.0025
542.556	0.0029
542.847	0.0034
543.139	0.0036
543.431	0.0046
543.722	0.0037
544.013	0.0048
544.305	0.0046
544.596	0.0052
544.887	0.0043
545.178	0.0038
545.469	0.0037
545.76	0.0029
546.051	0.0048
546.342	0.0046
546.632	0.0027
546.923	0.0041
547.214	0.0032
547.504	0.0032
547.795	0.0034
548.085	0.0036
548.375	0.0024
548.666	0.0036
548.956	0.003
549.246	0.0041
549.536	0.0018
549.826	0.0036
550.116	0.0033
550.406	0.0038
550.695	0.0047
550.985	0.004
551.275	0.0041
551.564	0.0039
551.854	0.0039
552.143	0.0031
552.433	0.0049
552.722	0.0033
553.011	0.0026
553.3	0.0037
553.589	0.0029
553.879	0.0028
554.167	0.0034
554.456	0.0042
554.745	0.0025
555.034	0.0026
555.323	0.0014
555.611	0.0016
555.9	0.0027
556.188	0.0029
556.477	0.0026
556.765	0.0017
557.053	0.0029
557.342	0.0018
557.63	0.0026
557.918	0.0022
558.206	0.0023
558.494	0.0037
558.782	0.0022
559.069	0.0027
559.357	0.0032
559.645	0.0023
559.932	0.0035
560.22	0.0036
560.507	0.0037
560.795	0.0038
561.082	0.0029
561.37	0.0033
561.657	0.0032
561.944	0.0039
562.231	0.0029
562.518	0.002
562.805	0.003
563.092	0.0037
563.379	0.0035
563.665	0.0027
563.952	0.0037
564.239	0.0036
564.525	0.0033
564.811	0.0047
565.098	0.0043
565.384	0.0043
565.67	0.0032
565.957	0.0038
566.243	0.0031
566.529	0.0035
566.815	0.0044
567.101	0.0022
567.387	0.0032
567.672	0.0025
567.958	0.0034
568.244	0.0031
568.529	0.0039
568.815	0.0029
569.1	0.0038
569.386	0.0031
569.671	0.0024
569.956	0.0031
570.242	0.0034
570.527	0.0035
570.812	0.0037
571.097	0.0036
571.382	0.0035
571.666	0.0031
571.951	0.0025
572.236	0.0033
572.521	0.0027
572.805	0.0033
573.09	0.0029
573.374	0.0031
573.659	0.0028
573.943	0.0038
574.227	0.0032
574.511	0.0035
574.795	0.004
575.079	0.0029
575.363	0.0026
575.647	0.0036
575.931	0.0036
576.215	0.0035
576.499	0.003
576.782	0.0035
577.066	0.0033
577.349	0.003
577.633	0.0045
577.916	0.0034
578.2	0.0042
578.483	0.0039
578.766	0.0031
579.049	0.0043
579.332	0.0031
579.615	0.0034
579.898	0.0031
580.181	0.0026
580.464	0.0022
580.746	0.0022
581.029	0.0038
581.312	0.0034
581.594	0.0032
581.877	0.0034
582.159	0.0042
582.441	0.0029
582.724	0.003
583.006	0.003
583.288	0.0021
583.57	0.0026
583.852	0.0018
584.134	0.0025
584.416	0.0034
584.697	0.0023
584.979	0.0026
585.261	0.0028
585.542	0.003
585.824	0.0029
586.105	0.0037
586.387	0.0027
586.668	0.0025
586.949	0.0033
587.231	0.0028
587.512	0.0035
587.793	0.0034
588.074	0.0031
588.355	0.0034
588.636	0.004
588.916	0.0031
589.197	0.0038
589.478	0.0035
589.758	0.0028
590.039	0.0035
590.319	0.0028
590.6	0.0027
590.88	0.003
591.16	0.0031
591.441	0.0037
591.721	0.0036
592.001	0.0031
592.281	0.0028
592.561	0.0039
592.841	0.0038
593.12	0.0033
593.4	0.003
593.68	0.004
593.959	0.0032
594.239	0.0045
594.518	0.0026
594.798	0.0038
595.077	0.0037
595.356	0.0026
595.636	0.003
595.915	0.0035
596.194	0.0034
596.473	0.003
596.752	0.0025
597.031	0.0019
597.31	0.0016
597.588	0.0025
597.867	0.0019
598.146	0.0024
598.424	0.0021
598.703	0.0025
598.981	0.0028
599.259	0.0024
599.538	0.0038
599.816	0.0035
600.094	0.0031
600.372	0.0031
600.65	0.0029
600.928	0.0036
601.206	0.0031
601.484	0.003
601.762	0.0029
602.04	0.0033
602.317	0.0033
602.595	0.0023
602.872	0.0028
603.15	0.0027
603.427	0.0016
603.704	0.0016
603.982	0.0025
604.259	0.0019
604.536	0.0019
604.813	0.0025
605.09	0.0032
605.367	0.0029
605.644	0.0024
605.921	0.0031
606.197	0.0022
606.474	0.0021
606.751	0.0028
607.027	0.0035
607.304	0.0022
607.58	0.003
607.856	0.0025
608.133	0.0028
608.409	0.0036
608.685	0.0029
608.961	0.0031
609.237	0.0027
609.513	0.0027
609.789	0.0023
610.065	0.0018
610.341	0.0027
610.616	0.0032
610.892	0.0032
611.167	0.0035
611.443	0.0028
611.718	0.0026
611.994	0.0027
612.269	0.0029
612.544	0.0021
612.819	0.0026
613.095	0.0029
613.37	0.0029
613.645	0.0024
613.919	0.002
614.194	0.0031
614.469	0.0017
614.744	0.0018
615.019	0.002
615.293	0.0014
615.568	0.0012
615.842	0.0012
616.116	0.0015
616.391	0.0009
616.665	0.0029
616.939	0.0017
617.213	0.0021
617.488	0.0011
617.762	0.0016
618.035	0.0018
618.309	0.0011
618.583	0.0011
618.857	0.0024
619.131	0.0022
619.404	0.0016
619.678	0.0016
619.951	0.0013
620.225	0.0005
620.498	0.0016
620.771	0.0014
621.045	0.0027
621.318	0.0014
621.591	0.0015
621.864	0.0009
622.137	0.0005
622.41	0.001
622.683	0.0006
622.956	0.0019
623.228	0.0016
623.501	0.0025
623.774	0.0025
624.046	0.0022
624.319	0.0024
624.591	0.0013
624.863	0.0013
625.136	0.0018
625.408	0.0023
625.68	0.0019
625.952	0.0024
626.224	0.0018
626.496	0.0019
626.768	0.0008
627.04	0.0011
627.311	0.0022
627.583	0.0018
627.855	0.0021
628.126	0.0033
628.398	0.0027
628.669	0.0012
628.941	0.0014
629.212	0.0004
629.483	0.0024
629.755	0.0017
630.026	0.0003
630.297	0.0006
630.568	0.0007
630.839	-0.0007
631.11	-0.0009
631.38	-0.0001
631.651	-0.0004
631.922	-0.0002
632.192	-0.0014
632.463	-0.0005
632.733	0.0005
633.004	-0.0003
633.274	-0.0017
633.545	0.0013
633.815	0.001
634.085	0.0017
634.355	0.0005
634.625	0.0028
634.895	0.0001
635.165	0.0002
635.435	0.0001
635.705	0.0009
635.974	-0.0005
636.244	0.0016
636.514	0.0015
636.783	0.0014
637.053	0.0011
637.322	0.0007
637.591	0.0015
637.861	0.0009
638.13	0.0022
638.399	0.0007
638.668	0.0018
638.937	0.0013
639.206	0.0018
639.475	0.0008
639.744	0.0013
640.013	0.0019
640.281	0.0035
640.55	0.0031
640.819	0.0014
641.087	0.0025
641.356	0.0024
641.624	0.0015
641.892	0.0021
642.161	0.002
642.429	0.0027
642.697	0.0012
642.965	0.0021
643.233	0.0024
643.501	0.0006
643.769	0.0007
644.037	0.0016
644.305	0.001
644.572	0.0003
644.84	-0.0001
645.108	0.0005
645.375	-0.0002
645.643	0.0014
645.91	0.001
646.177	0.0025
646.445	0.0032
646.712	0.0029
646.979	0.0035
647.246	0.0027
647.513	0.0037
647.78	0.0028
648.047	0.0035
648.314	0.0019
648.58	0.0024
648.847	0.001
649.114	0.0012
649.38	0.0011
649.647	0.0011
649.913	0.0011
650.18	0.0014
650.446	0.0018
650.712	0.0021
650.978	0.0024
651.245	0.0026
651.511	0.0019
651.777	0.0017
652.043	0.0015
652.309	0.002
652.574	0.0021
652.84	0.0017
653.106	0.0008
653.371	-0.0009
653.637	0.0006
653.903	0.0014
654.168	0.0005
654.433	0.0019
654.699	0.0019
654.964	0.0023
655.229	0.0028
655.494	0.0021
655.759	0.0027
656.024	0.0006
656.289	-0
656.554	0.0011
656.819	0.0013
657.084	0.0009
657.349	0.002
657.613	0.0019
657.878	0.0016
658.142	0.0028
658.407	0.0023
658.671	0.0021
658.936	0.0004
659.2	0.0004
659.464	0.0013
659.728	0.0004
659.992	0.0011
660.256	0.0012
660.52	0.0002
660.784	0.0003
661.048	-0.0004
661.312	-0.0006
661.575	-0.0001
661.839	-0.0016
662.103	-0.0019
662.366	-0.002
662.63	-0.0011
662.893	-0.0002
663.156	-0.0001
663.42	-0.0003
663.683	-0.0003
663.946	0.0003
664.209	0.0025
664.472	0.0016
664.735	0.0023
664.998	-0.0001
665.261	0.0003
665.524	-0.0002
665.786	0.0007
666.049	0.0004
666.312	-0.0002
666.574	0
666.837	-0.0002
667.099	-0.0019
667.361	-0.0012
667.624	-0.0018
667.886	-0.0007
668.148	-0.0003
668.41	0.0004
668.672	0.0005
668.934	0.0008
669.196	0.0002
669.458	0.0005
669.72	0.001
669.982	0.0011
670.243	0.0013
670.505	0.0006
670.766	0.0006
671.028	0.0014
671.289	0.0008
671.551	0.0003
671.812	-0.0001
672.073	0.001
672.334	0.0003
672.596	0.0004
672.857	0.0004
673.118	-0.0001
673.379	-0.0002
673.639	-0.0011
673.9	-0.0009
674.161	-0.0015
674.422	-0.0031
674.682	-0.0021
674.943	-0.0023
675.203	-0.0015
675.464	-0.0004
675.724	0.0006
675.985	0.0003
676.245	0.0015
676.505	0.0023
676.765	0.0022
677.025	0.0025
677.285	0.0018
677.545	0.0021
677.805	0.0026
678.065	0.003
678.325	0.003
678.585	0.0024
678.844	0.0019
679.104	0.0018
679.363	0.0017
679.623	0.0033
679.882	0.0029
680.142	0.0033
680.401	0.0028
680.66	0.0034
680.919	0.0037
681.178	0.0049
681.437	0.0041
681.696	0.0037
681.955	0.0035
682.214	0.0036
682.473	0.0034
682.732	0.0027
682.99	0.0016
683.249	0.0025
683.508	0.0029
683.766	0.0026
684.024	0.0029
684.283	0.003
684.541	0.0022
684.799	0.0027
685.058	0.0026
685.316	0.0024
685.574	0.0036
685.832	0.0036
686.09	0.0029
686.348	0.0034
686.606	0.0026
686.863	0.0034
687.121	0.0038
687.379	0.0032
687.636	0.0039
687.894	0.0039
688.151	0.0045
688.409	0.0036
688.666	0.0037
688.923	0.0042
689.181	0.0028
689.438	0.0019
689.695	0.002
689.952	0.0016
690.209	0.0012
690.466	0.0005
690.723	0.0025
690.979	0.0017
691.236	0.0012
691.493	0.001
691.75	0.0026
692.006	0.0027
692.263	0.0027
692.519	0.0033
692.775	0.0018
693.032	0.0014
693.288	0.0024
693.544	0.0022
693.8	0.0021
694.056	0.002
694.313	0.002
694.568	0.002
694.824	0.0022
695.08	0.0031
695.336	0.0033
695.592	0.0032
695.847	0.0033
696.103	0.0027
696.359	0.0024
696.614	0.0021
696.869	0.0015
697.125	0.0007
697.38	0.0001
697.635	-0.0008
697.891	-0.0001
698.146	0.0005
698.401	0.001
698.656	-0.0003
698.911	0.0009
699.166	0.0005
699.42	0.0004
699.675	0.0003
699.93	-0.0002
700.185	0.0005
700.439	0.002
700.694	0.0003
700.948	0.0016
701.203	0.0018
701.457	0.0014
701.711	0.0007
701.965	-0.0008
702.22	-0.0009
702.474	-0.0003
702.728	-0.0003
702.982	-0.0001
703.236	-0.0004
703.49	0.0003
703.743	-0.0004
703.997	-0.0001
704.251	0.0012
704.504	0.0012
704.758	0.0006
705.012	0.0001
705.265	-0.0001
705.518	-0.0008
705.772	-0.0009
706.025	-0.0002
706.278	-0.0013
706.531	-0.0009
706.785	-0.0012
707.038	-0.0005
707.291	-0.0007
707.543	-0.0004
707.796	-0.0005
708.049	-0.0008
708.302	-0.0016
708.555	-0.0005
708.807	-0.0003
709.06	-0.0011
709.312	-0.0025
709.565	-0.0019
709.817	-0.0031
710.069	-0.0016
710.322	-0.0024
710.574	-0.0013
710.826	-0.0017
711.078	-0.0002
711.33	-0.0004
711.582	-0.0017
711.834	0.0004
712.086	-0.0002
712.338	0.0017
712.59	0.001
712.841	0.0014
713.093	0.0011
713.344	0.0008
713.596	0.0015
713.847	0.0015
714.099	0.0013
714.35	0.0019
714.601	0.0023
714.853	0.0032
715.104	0.0021
715.355	0.0014
715.606	0.0014
715.857	0.0019
716.108	0.0025
716.359	0.0014
716.609	0.0022
716.86	0.0007
717.111	-0.0005
717.361	-0.0012
717.612	-0.0012
717.863	-0.001
718.113	-0.0017
718.363	-0.0004
718.614	-0.0004
718.864	-0.0005
719.114	-0.0001
719.364	-0.0005
719.614	-0.0007
719.865	-0.0015
720.114	-0.0013
720.364	-0.0008
720.614	0.0011
720.864	0.0012
721.114	0.0015
721.364	0.0019
721.613	0.0024
721.863	0.0028
722.112	0.0018
722.362	0.003
722.611	0.0021
722.86	0.0007
723.11	0.0003
723.359	0.0007
723.608	0.0023
723.857	0.0028
724.106	0.0043
724.355	0.0046
724.604	0.0051
724.853	0.0041
725.102	0.0028
725.351	0.0018
725.599	0.0018
725.848	0.002
726.097	0.0012
726.345	0.0016
726.594	0.0015
726.842	0.0006
727.09	0.0009
727.339	0.0006
727.587	0.0005
727.835	-0.0009
728.083	-0.0005
728.331	-0.0016
728.579	-0.0022
728.827	-0.0011
729.075	-0.0009
729.323	0.0002
729.571	-0.0001
729.818	0.0007
730.066	0.0008
730.314	0.001
730.561	-0.0008
730.809	-0.0009
731.056	-0.0002
731.303	-0.0013
731.551	-0.0007
731.798	-0.0003
732.045	-0.0004
732.292	-0.0007
732.539	-0.0007
732.786	0.0005
733.033	0.0011
733.28	0.0018
733.527	0.0024
733.774	0.0015
734.021	0.0026
734.267	0.0034
734.514	0.0033
734.76	0.0035
735.007	0.0047
735.253	0.0056
735.5	0.0053
735.746	0.0049
735.992	0.0048
736.238	0.0043
736.485	0.005
736.731	0.0046
736.977	0.0037
737.223	0.0041
737.469	0.0045
737.715	0.0045
737.96	0.0059
738.206	0.0052
738.452	0.0066
738.697	0.0061
738.943	0.0061
739.189	0.0039
739.434	0.0028
739.679	0.0016
739.925	0.0015
740.17	0.0003
740.415	0.0004
740.66	0.0013
740.906	0.0013
741.151	0.0015
741.396	0.0019
741.641	0.004
741.886	0.0044
742.13	0.0046
742.375	0.0051
742.62	0.006
742.865	0.0048
743.109	0.0037
743.354	0.0033
743.598	0.0032
743.843	0.0037
744.087	0.0028
744.331	0.0028
744.576	0.0028
744.82	0.0031
745.064	0.0031
745.308	0.0026
745.552	0.0019
745.796	0.0027
746.04	0.0022
746.284	0.0015
746.528	0.0003
746.771	0.0002
747.015	-0
747.259	0.0008
747.502	0.0007
747.746	0.001
747.989	0.0019
748.233	0.0018
748.476	0.0018
748.719	0.0028
748.963	0.0034
749.206	0.0027
749.449	0.0032
749.692	0.0021
749.935	0.0032
750.178	0.0019
750.421	0.0027
750.664	0.0034
750.906	0.0036
751.149	0.0025
751.392	0.0022
751.635	0.0009
751.877	0.0005
752.12	0.0002
752.362	0.0003
752.604	-0.0003
752.847	0.001
753.089	0.0008
753.331	0.001
753.573	0.0007
753.816	0.0017
754.058	0.0022
754.3	0.0027
754.542	0.0029
754.783	0.0031
755.025	0.0014
755.267	0.0002
755.509	0.0005
755.75	0.0003
755.992	0.0011
756.234	0.0003
756.475	-0.0005
756.716	0.0002
756.958	0.0004
757.199	0.0006
757.44	0.0016
757.682	0.0015
757.923	0.0006
758.164	0.0007
758.405	-0.0003
758.646	-0.0003
758.887	-0.0002
759.128	-0.0004
759.369	-0.0005
759.609	-0.0006
759.85	-0.0011
760.091	-0.0005
760.331	-0.0006
760.572	-0.0007
760.812	-0.0011
761.053	-0.0014
761.293	-0.0008
761.533	-0.0002
761.774	-0.0006
762.014	-0.0011
762.254	-0.0009
762.494	-0.0012
762.734	-0.0012
762.974	-0.0013
763.214	-0.0015
763.454	-0.0017
763.694	-0.0011
763.933	-0.0019
764.173	-0.0005
764.413	-0.0009
764.652	0.0002
764.892	0.0003
765.131	0.0008
765.371	0.0008
765.61	0.0013
765.849	0.0005
766.089	0.0017
766.328	0.0026
766.567	0.0021
766.806	0.0023
767.045	0.0027
767.284	0.0019
767.523	0.0027
767.762	0.0028
768.001	0.0024
768.239	0.0028
768.478	0.0019
768.717	0.0017
768.955	0.0017
769.194	0.0016
769.432	0.0011
769.671	0.002
769.909	0.0017
770.148	0.0018
770.386	0.0019
770.624	0.0019
770.862	0.0026
771.1	0.0014
771.338	0.0013
771.576	0.0016
771.814	0.0012
772.052	0.0006
772.29	0.0017
772.528	0.0019
772.765	0.0016
773.003	0.0023
773.24	0.002
773.478	0.0017
773.716	0.003
773.953	0.0026
774.19	0.0035
774.428	0.0025
774.665	0.0029
774.902	0.0037
775.139	0.0017
775.376	0.0021
775.613	0.0012
775.85	0.0014
776.087	0.0004
776.324	0.0008
776.561	0.0014
776.798	0.0029
777.034	0.0032
777.271	0.0054
777.508	0.005
777.744	0.0047
777.981	0.0043
778.217	0.0042
778.454	0.0035
778.69	0.0031
778.926	0.0038
779.162	0.0032
779.399	0.0024
779.635	0.0028
779.871	0.0023
780.107	0.0024
780.343	0.0033
780.579	0.0033
780.814	0.0028
781.05	0.0036
781.286	0.0038
781.522	0.0026
781.757	0.0047
781.993	0.0043
782.228	0.0043
782.464	0.0041
782.699	0.0038
782.934	0.0024
783.17	0.0029
783.405	0.0021
783.64	0.002
783.875	0.0014
784.11	0.0024
784.345	0.0032
784.58	0.0027
784.815	0.0026
785.05	0.0029
785.285	0.0012
785.52	0.0009
785.754	0.0012
785.989	0.0011
786.223	-0.0004
786.458	-0.0004
786.692	0
786.927	-0.001
787.161	-0.0009
787.396	-0.0016
787.63	-0.0007
787.864	-0.0012
788.098	-0.0009
788.332	-0.0001
788.566	-0.0008
788.8	-0.0006
789.034	-0.0002
789.268	0.0003
789.502	0.0005
789.736	0.0011
789.969	0.0016
790.203	0.0015
790.437	0.0014
790.67	0.0021
790.904	0.0019
791.137	0.0001
791.37	-0.0005
791.604	-0.0009
791.837	-0.001
792.07	-0.0008
792.303	0.0003
792.537	-0.0004
792.77	-0.0003
793.003	-0.0007
793.236	-0.0017
793.469	-0.0016
793.701	-0.0014
793.934	-0.0013
794.167	-0.0005
794.4	-0.0002
794.632	-0.0004
794.865	-0.0012
795.097	-0.0006
795.33	0.0008
795.562	-0.0007
795.795	0.0002
796.027	-0.0006
796.259	-0.0003
796.491	-0.0005
796.724	-0.0005
796.956	-0.0007
797.188	0.0002
797.42	-0.0002
797.652	0
797.883	-0.001
798.115	-0.0004
798.347	-0.0015
798.579	-0.0027
798.81	-0.0034
799.042	-0.0018
799.274	-0.0028
799.505	-0.0024
799.737	-0.0032
799.968	-0.0031
800.199	-0.0031
800.431	-0.0026
800.662	-0.0024
800.893	-0.001
801.124	-0.0007
801.355	-0.0001
801.586	0
801.817	-0.0002
802.048	-0.0007
802.279	-0.0003
802.51	0.0003
802.741	-0.0007
802.971	-0.0011
803.202	-0.0021
803.433	-0.0005
803.663	-0.0015
803.894	-0.0006
804.124	-0.0005
804.354	-0.0005
804.585	-0.0012
804.815	0.0001
805.045	-0.0017
805.275	-0.0017
805.506	-0.0309
805.736	0.0511
805.966	0.0265
806.196	0.0371
