Data from 03 0.2 mM BQDS 0.4 mM K2Cr2O7 1 M H2SO4 5 min_Absorbance_21-02-44-395.txt Node
Date: Tue Dec 07 21:02:44 EST 2021
User: kwabilab-user
Spectrometer: HDX00518
Trigger mode: 0
Integration Time (sec): 5.000000E-2
Scans to average: 50
Nonlinearity correction enabled: false
Boxcar width: 0
Storing dark spectrum: false
XAxis mode: Wavelengths
Number of Pixels in Spectrum: 2068
>>>>>Begin Spectral Data<<<<<
195.27	0.0758
195.642	0.0287
196.014	0.068
196.386	-0.0277
196.758	0.0123
197.129	0.0335
197.501	0.0855
197.872	0.1027
198.244	0.1231
198.615	0.1243
198.986	0.1275
199.357	0.1122
199.728	0.1236
200.099	0.1247
200.47	0.1187
200.841	0.1211
201.212	0.1423
201.582	0.1136
201.953	0.1299
202.323	0.1293
202.694	0.1202
203.064	0.1233
203.434	0.1185
203.804	0.1316
204.174	0.1291
204.544	0.1256
204.914	0.1194
205.284	0.1199
205.653	0.1373
206.023	0.1247
206.393	0.1285
206.762	0.1214
207.131	0.1364
207.501	0.1338
207.87	0.1372
208.239	0.1373
208.608	0.1269
208.977	0.1458
209.346	0.1512
209.715	0.1485
210.083	0.1573
210.452	0.1539
210.82	0.1531
211.189	0.1532
211.557	0.1493
211.925	0.1796
212.294	0.1871
212.662	0.1868
213.03	0.1799
213.398	0.178
213.766	0.1896
214.133	0.2048
214.501	0.2229
214.869	0.2138
215.236	0.2628
215.604	0.2492
215.971	0.2695
216.338	0.2936
216.705	0.2933
217.072	0.326
217.439	0.3356
217.806	0.3646
218.173	0.4053
218.54	0.4222
218.907	0.4648
219.273	0.4925
219.64	0.539
220.006	0.5895
220.373	0.6039
220.739	0.6569
221.105	0.6855
221.471	0.7073
221.837	0.7597
222.203	0.8065
222.569	0.8416
222.935	0.8608
223.3	0.8739
223.666	0.9316
224.031	0.9407
224.397	0.961
224.762	0.9841
225.127	1.0061
225.493	1.021
225.858	1.0253
226.223	1.0476
226.588	1.0513
226.952	1.0557
227.317	1.0634
227.682	1.0603
228.046	1.0575
228.411	1.0643
228.775	1.0569
229.14	1.0612
229.504	1.049
229.868	1.0429
230.232	1.0365
230.596	1.032
230.96	1.0275
231.324	1.0151
231.688	1.0055
232.052	1.0019
232.415	0.9898
232.779	0.9904
233.142	0.9773
233.505	0.9697
233.869	0.9597
234.232	0.9477
234.595	0.9375
234.958	0.9294
235.321	0.9168
235.684	0.9084
236.047	0.9003
236.409	0.8928
236.772	0.8826
237.134	0.8764
237.497	0.8655
237.859	0.8595
238.222	0.8522
238.584	0.842
238.946	0.8308
239.308	0.8252
239.67	0.8194
240.032	0.8113
240.393	0.8061
240.755	0.7974
241.117	0.7916
241.478	0.7902
241.84	0.7766
242.201	0.7712
242.562	0.7634
242.924	0.7597
243.285	0.7584
243.646	0.7515
244.007	0.7503
244.368	0.744
244.728	0.7403
245.089	0.7343
245.45	0.7291
245.81	0.7292
246.171	0.7246
246.531	0.7194
246.891	0.7179
247.252	0.7145
247.612	0.7117
247.972	0.708
248.332	0.7075
248.692	0.7056
249.051	0.7015
249.411	0.7025
249.771	0.6961
250.13	0.6967
250.49	0.6949
250.849	0.6946
251.208	0.6923
251.568	0.6913
251.927	0.6876
252.286	0.6877
252.645	0.6868
253.004	0.684
253.363	0.6824
253.721	0.6839
254.08	0.6838
254.439	0.6799
254.797	0.6805
255.155	0.6774
255.514	0.6779
255.872	0.6784
256.23	0.6782
256.588	0.6759
256.946	0.6746
257.304	0.6742
257.662	0.6736
258.02	0.6739
258.377	0.672
258.735	0.6716
259.093	0.6697
259.45	0.6687
259.807	0.6677
260.165	0.6681
260.522	0.6677
260.879	0.6638
261.236	0.6642
261.593	0.6627
261.95	0.6612
262.306	0.661
262.663	0.6592
263.02	0.6588
263.376	0.6558
263.733	0.6555
264.089	0.6528
264.445	0.6524
264.802	0.6501
265.158	0.6469
265.514	0.6484
265.87	0.6461
266.226	0.6441
266.581	0.6416
266.937	0.6383
267.293	0.6382
267.648	0.635
268.004	0.6332
268.359	0.6312
268.714	0.6271
269.07	0.625
269.425	0.6224
269.78	0.6203
270.135	0.6172
270.49	0.6164
270.844	0.6131
271.199	0.6106
271.554	0.6076
271.908	0.6051
272.263	0.6014
272.617	0.5995
272.972	0.5942
273.326	0.5914
273.68	0.588
274.034	0.5843
274.388	0.582
274.742	0.5783
275.096	0.5751
275.45	0.5721
275.803	0.5661
276.157	0.5639
276.51	0.5591
276.864	0.5543
277.217	0.5512
277.571	0.5474
277.924	0.5424
278.277	0.5375
278.63	0.5353
278.983	0.5295
279.336	0.5258
279.688	0.5213
280.041	0.5171
280.394	0.5128
280.746	0.5092
281.099	0.5037
281.451	0.4987
281.803	0.4946
282.156	0.4912
282.508	0.4857
282.86	0.4821
283.212	0.4762
283.564	0.4713
283.916	0.4669
284.267	0.463
284.619	0.458
284.971	0.4537
285.322	0.4492
285.673	0.4445
286.025	0.441
286.376	0.4354
286.727	0.4301
287.078	0.4256
287.429	0.4224
287.78	0.4161
288.131	0.4115
288.482	0.4069
288.833	0.4032
289.183	0.3976
289.534	0.3939
289.884	0.3889
290.235	0.3863
290.585	0.3786
290.935	0.3757
291.285	0.3703
291.635	0.3666
291.985	0.362
292.335	0.3569
292.685	0.3536
293.035	0.3491
293.384	0.3448
293.734	0.3395
294.083	0.3352
294.433	0.3316
294.782	0.3274
295.131	0.3227
295.48	0.3193
295.829	0.3152
296.179	0.3094
296.527	0.3067
296.876	0.3025
297.225	0.2989
297.574	0.2945
297.922	0.2911
298.271	0.2868
298.619	0.2829
298.968	0.2808
299.316	0.2765
299.664	0.2729
300.012	0.2693
300.36	0.2656
300.708	0.2631
301.056	0.2597
301.404	0.2565
301.752	0.2534
302.099	0.2508
302.447	0.2485
302.794	0.2452
303.142	0.2418
303.489	0.2401
303.836	0.2372
304.183	0.2351
304.531	0.2325
304.878	0.2299
305.224	0.2277
305.571	0.2262
305.918	0.224
306.265	0.2211
306.611	0.22
306.958	0.2187
307.304	0.2159
307.651	0.2153
307.997	0.2135
308.343	0.2125
308.689	0.2106
309.035	0.2096
309.381	0.2087
309.727	0.207
310.073	0.2062
310.419	0.2049
310.764	0.2042
311.11	0.2039
311.455	0.2028
311.801	0.202
312.146	0.2013
312.491	0.2013
312.837	0.2001
313.182	0.2003
313.527	0.1999
313.872	0.1996
314.216	0.199
314.561	0.1986
314.906	0.1996
315.251	0.1987
315.595	0.1988
315.94	0.1993
316.284	0.1995
316.628	0.199
316.972	0.1984
317.317	0.1992
317.661	0.2
318.005	0.2007
318.348	0.2005
318.692	0.2011
319.036	0.2011
319.38	0.2016
319.723	0.2025
320.067	0.2029
320.41	0.2041
320.754	0.205
321.097	0.2053
321.44	0.2065
321.783	0.2074
322.126	0.2078
322.469	0.2094
322.812	0.2102
323.155	0.2113
323.498	0.213
323.84	0.2136
324.183	0.2146
324.525	0.2163
324.868	0.2168
325.21	0.219
325.552	0.2202
325.894	0.2208
326.236	0.2223
326.578	0.2237
326.92	0.2251
327.262	0.2256
327.604	0.228
327.946	0.229
328.287	0.2306
328.629	0.2312
328.97	0.2327
329.312	0.2346
329.653	0.2358
329.994	0.2374
330.335	0.2387
330.676	0.2402
331.017	0.2419
331.358	0.2436
331.699	0.2447
332.04	0.2466
332.38	0.2476
332.721	0.25
333.061	0.2507
333.402	0.2522
333.742	0.2545
334.083	0.2565
334.423	0.2566
334.763	0.2581
335.103	0.2591
335.443	0.2606
335.783	0.2618
336.123	0.2625
336.462	0.2641
336.802	0.2659
337.141	0.2667
337.481	0.2679
337.82	0.2683
338.16	0.2698
338.499	0.2716
338.838	0.2729
339.177	0.275
339.516	0.2748
339.855	0.2765
340.194	0.2777
340.533	0.2781
340.872	0.2795
341.21	0.2812
341.549	0.2813
341.887	0.2832
342.226	0.2828
342.564	0.2832
342.902	0.2841
343.24	0.2844
343.578	0.2845
343.916	0.2856
344.254	0.2857
344.592	0.286
344.93	0.2865
345.268	0.2867
345.605	0.2859
345.943	0.2872
346.28	0.2866
346.618	0.2876
346.955	0.2882
347.292	0.2883
347.629	0.2883
347.966	0.2885
348.303	0.2888
348.64	0.2885
348.977	0.2886
349.314	0.2887
349.65	0.2886
349.987	0.2888
350.324	0.288
350.66	0.2873
350.996	0.2879
351.333	0.2861
351.669	0.2855
352.005	0.2851
352.341	0.2845
352.677	0.2836
353.013	0.2827
353.349	0.2821
353.685	0.2801
354.02	0.2792
354.356	0.2784
354.691	0.2773
355.027	0.2758
355.362	0.275
355.697	0.2744
356.033	0.2723
356.368	0.2715
356.703	0.2708
357.038	0.2695
357.373	0.2689
357.707	0.2677
358.042	0.2664
358.377	0.2655
358.711	0.2645
359.046	0.2633
359.38	0.2617
359.715	0.2614
360.049	0.2592
360.383	0.2586
360.717	0.257
361.051	0.2552
361.385	0.2542
361.719	0.2511
362.053	0.2502
362.387	0.2476
362.72	0.2452
363.054	0.2434
363.387	0.242
363.721	0.24
364.054	0.2375
364.387	0.2355
364.721	0.234
365.054	0.2316
365.387	0.2292
365.72	0.2286
366.053	0.2259
366.385	0.2245
366.718	0.2228
367.051	0.2203
367.383	0.2193
367.716	0.2176
368.048	0.2169
368.381	0.2143
368.713	0.2132
369.045	0.2115
369.377	0.2098
369.709	0.2086
370.041	0.2071
370.373	0.2061
370.705	0.2034
371.037	0.2022
371.368	0.1993
371.7	0.1982
372.031	0.196
372.363	0.194
372.694	0.1923
373.025	0.1895
373.356	0.1877
373.688	0.1844
374.019	0.1828
374.35	0.1805
374.68	0.1783
375.011	0.1755
375.342	0.1733
375.673	0.1717
376.003	0.1694
376.334	0.1672
376.664	0.1653
376.995	0.1635
377.325	0.1623
377.655	0.1603
377.985	0.1587
378.315	0.1568
378.645	0.1544
378.975	0.1536
379.305	0.1519
379.635	0.1511
379.964	0.1493
380.294	0.1477
380.623	0.1461
380.953	0.1447
381.282	0.1435
381.611	0.1412
381.941	0.14
382.27	0.1385
382.599	0.1364
382.928	0.1349
383.257	0.1333
383.585	0.1319
383.914	0.1301
384.243	0.1284
384.571	0.1263
384.9	0.1246
385.228	0.1221
385.557	0.121
385.885	0.1184
386.213	0.1169
386.541	0.1147
386.869	0.1131
387.197	0.1106
387.525	0.1092
387.853	0.1076
388.181	0.1063
388.508	0.1049
388.836	0.1042
389.164	0.1022
389.491	0.1006
389.818	0.0993
390.146	0.0975
390.473	0.096
390.8	0.0951
391.127	0.0938
391.454	0.0927
391.781	0.0918
392.108	0.0905
392.435	0.0881
392.761	0.0873
393.088	0.0863
393.415	0.0857
393.741	0.085
394.067	0.0843
394.394	0.0828
394.72	0.0819
395.046	0.0804
395.372	0.0791
395.698	0.0782
396.024	0.0779
396.35	0.0768
396.676	0.0755
397.001	0.075
397.327	0.0735
397.653	0.0717
397.978	0.0712
398.303	0.0695
398.629	0.0693
398.954	0.0687
399.279	0.0676
399.604	0.0672
399.929	0.0657
400.254	0.0651
400.579	0.0647
400.904	0.0634
401.229	0.0623
401.553	0.0616
401.878	0.0607
402.202	0.0608
402.527	0.0599
402.851	0.0594
403.175	0.0584
403.5	0.0582
403.824	0.0583
404.148	0.0576
404.472	0.0572
404.796	0.0562
405.119	0.0557
405.443	0.0559
405.767	0.0548
406.09	0.055
406.414	0.0549
406.737	0.0542
407.061	0.0541
407.384	0.0533
407.707	0.053
408.03	0.0532
408.353	0.0531
408.676	0.0523
408.999	0.0521
409.322	0.0522
409.645	0.0519
409.968	0.0516
410.29	0.0517
410.613	0.0509
410.935	0.0509
411.258	0.0515
411.58	0.0508
411.902	0.0507
412.224	0.0504
412.546	0.0501
412.868	0.0503
413.19	0.0504
413.512	0.0502
413.834	0.0503
414.156	0.0506
414.477	0.0499
414.799	0.0495
415.121	0.0498
415.442	0.0498
415.763	0.0503
416.085	0.0496
416.406	0.0499
416.727	0.0503
417.048	0.049
417.369	0.0499
417.69	0.049
418.011	0.0492
418.331	0.0494
418.652	0.0496
418.973	0.0498
419.293	0.0493
419.614	0.0496
419.934	0.0492
420.254	0.0495
420.574	0.0492
420.895	0.0495
421.215	0.0486
421.535	0.0485
421.855	0.0496
422.174	0.0493
422.494	0.0492
422.814	0.05
423.134	0.0486
423.453	0.0491
423.773	0.0495
424.092	0.0484
424.411	0.0492
424.731	0.0495
425.05	0.0491
425.369	0.0495
425.688	0.0492
426.007	0.0497
426.326	0.0498
426.644	0.0507
426.963	0.0499
427.282	0.0504
427.6	0.0496
427.919	0.0497
428.237	0.0501
428.556	0.0504
428.874	0.0499
429.192	0.0489
429.51	0.0497
429.828	0.0499
430.146	0.0506
430.464	0.0502
430.782	0.0498
431.1	0.0507
431.418	0.0497
431.735	0.0498
432.053	0.0501
432.37	0.0504
432.688	0.0494
433.005	0.0501
433.322	0.0504
433.639	0.0502
433.957	0.05
434.274	0.0507
434.591	0.0499
434.907	0.0503
435.224	0.0502
435.541	0.0502
435.858	0.0517
436.174	0.0507
436.491	0.0501
436.807	0.05
437.124	0.0496
437.44	0.0497
437.756	0.0491
438.072	0.0493
438.388	0.0506
438.704	0.0499
439.02	0.0504
439.336	0.0495
439.652	0.0494
439.968	0.0499
440.283	0.0491
440.599	0.0501
440.914	0.0495
441.23	0.0492
441.545	0.0496
441.86	0.0496
442.175	0.0498
442.491	0.0491
442.806	0.0493
443.121	0.0498
443.435	0.0489
443.75	0.0491
444.065	0.0485
444.38	0.049
444.694	0.0485
445.009	0.0495
445.323	0.0487
445.638	0.0485
445.952	0.0488
446.266	0.0487
446.58	0.0496
446.894	0.0489
447.208	0.0493
447.522	0.0486
447.836	0.0476
448.15	0.0474
448.464	0.0472
448.777	0.048
449.091	0.0472
449.404	0.0477
449.718	0.0483
450.031	0.0472
450.345	0.0472
450.658	0.0478
450.971	0.0468
451.284	0.0469
451.597	0.0469
451.91	0.0474
452.223	0.047
452.535	0.0471
452.848	0.0474
453.161	0.0462
453.473	0.0463
453.786	0.0468
454.098	0.0458
454.411	0.0458
454.723	0.0459
455.035	0.0454
455.347	0.0465
455.659	0.0462
455.971	0.0459
456.283	0.0451
456.595	0.0459
456.907	0.0455
457.218	0.0458
457.53	0.0449
457.841	0.0443
458.153	0.0442
458.464	0.0436
458.776	0.0431
459.087	0.0436
459.398	0.0441
459.709	0.0436
460.02	0.0429
460.331	0.0431
460.642	0.0422
460.953	0.0426
461.263	0.0426
461.574	0.0422
461.885	0.0419
462.195	0.0426
462.506	0.0414
462.816	0.0418
463.126	0.041
463.437	0.0413
463.747	0.0403
464.057	0.0404
464.367	0.0409
464.677	0.04
464.987	0.0406
465.296	0.0394
465.606	0.0394
465.916	0.0398
466.225	0.0389
466.535	0.039
466.844	0.0384
467.154	0.0384
467.463	0.038
467.772	0.0383
468.081	0.0375
468.39	0.0382
468.699	0.0376
469.008	0.0373
469.317	0.0372
469.626	0.0364
469.935	0.0367
470.243	0.037
470.552	0.0374
470.86	0.0369
471.169	0.0366
471.477	0.0354
471.785	0.0361
472.093	0.0362
472.402	0.0356
472.71	0.0351
473.018	0.035
473.326	0.0347
473.633	0.0347
473.941	0.0338
474.249	0.0343
474.556	0.0336
474.864	0.033
475.171	0.0323
475.479	0.0329
475.786	0.0332
476.094	0.0331
476.401	0.0336
476.708	0.0324
477.015	0.0324
477.322	0.0319
477.629	0.0314
477.936	0.0314
478.242	0.0305
478.549	0.0303
478.856	0.0304
479.162	0.0307
479.469	0.0305
479.775	0.0303
480.081	0.0296
480.388	0.0297
480.694	0.0292
481	0.0292
481.306	0.0283
481.612	0.0289
481.918	0.0282
482.224	0.0288
482.53	0.0276
482.835	0.0278
483.141	0.027
483.446	0.0271
483.752	0.0261
484.057	0.026
484.363	0.0259
484.668	0.0261
484.973	0.0258
485.278	0.0255
485.583	0.0251
485.888	0.0246
486.193	0.0245
486.498	0.0245
486.803	0.025
487.107	0.025
487.412	0.0234
487.717	0.0234
488.021	0.0235
488.325	0.0225
488.63	0.0227
488.934	0.0232
489.238	0.0234
489.542	0.023
489.846	0.0219
490.15	0.0229
490.454	0.0226
490.758	0.0217
491.062	0.0221
491.366	0.0208
491.669	0.0215
491.973	0.0214
492.276	0.0202
492.58	0.0193
492.883	0.0203
493.186	0.021
493.489	0.0203
493.792	0.0204
494.096	0.0203
494.399	0.0194
494.701	0.0193
495.004	0.0189
495.307	0.0183
495.61	0.0186
495.912	0.0178
496.215	0.0174
496.517	0.0176
496.82	0.0169
497.122	0.018
497.424	0.0171
497.727	0.0174
498.029	0.017
498.331	0.0174
498.633	0.0176
498.935	0.0169
499.237	0.0172
499.538	0.0167
499.84	0.0157
500.142	0.0164
500.443	0.016
500.745	0.0157
501.046	0.0158
501.348	0.015
501.649	0.0151
501.95	0.0144
502.251	0.0147
502.552	0.0143
502.853	0.0139
503.154	0.0142
503.455	0.0138
503.756	0.0139
504.057	0.0136
504.357	0.0136
504.658	0.0131
504.958	0.0137
505.259	0.0135
505.559	0.0131
505.859	0.0136
506.16	0.0129
506.46	0.0135
506.76	0.0126
507.06	0.0126
507.36	0.013
507.66	0.0125
507.96	0.013
508.259	0.0105
508.559	0.0108
508.859	0.0113
509.158	0.012
509.457	0.0106
509.757	0.0119
510.056	0.0113
510.355	0.0109
510.655	0.01
510.954	0.0102
511.253	0.0114
511.552	0.0116
511.851	0.0102
512.149	0.0097
512.448	0.0099
512.747	0.0103
513.045	0.0088
513.344	0.01
513.642	0.0104
513.941	0.0101
514.239	0.0097
514.537	0.0092
514.836	0.009
515.134	0.009
515.432	0.0087
515.73	0.0093
516.028	0.0079
516.326	0.0096
516.623	0.0086
516.921	0.0081
517.219	0.0098
517.516	0.0088
517.814	0.0084
518.111	0.0091
518.409	0.0096
518.706	0.0086
519.003	0.0089
519.3	0.0073
519.597	0.0072
519.894	0.0077
520.191	0.0083
520.488	0.0079
520.785	0.0063
521.082	0.0067
521.378	0.0077
521.675	0.0068
521.971	0.0066
522.268	0.0063
522.564	0.0069
522.861	0.0074
523.157	0.006
523.453	0.0067
523.749	0.0064
524.045	0.0069
524.341	0.0068
524.637	0.0065
524.933	0.0056
525.229	0.0066
525.524	0.0059
525.82	0.0067
526.115	0.0053
526.411	0.0062
526.706	0.0066
527.002	0.006
527.297	0.0046
527.592	0.0071
527.887	0.0066
528.182	0.0065
528.477	0.0064
528.772	0.0051
529.067	0.0056
529.362	0.0059
529.657	0.0058
529.951	0.0057
530.246	0.0047
530.54	0.0034
530.835	0.0054
531.129	0.0042
531.423	0.0052
531.718	0.0042
532.012	0.0053
532.306	0.0042
532.6	0.0039
532.894	0.0042
533.188	0.0051
533.482	0.0046
533.775	0.0049
534.069	0.0037
534.363	0.0024
534.656	0.0045
534.95	0.004
535.243	0.0043
535.536	0.0036
535.83	0.0039
536.123	0.003
536.416	0.0043
536.709	0.0035
537.002	0.0048
537.295	0.0037
537.588	0.0055
537.881	0.0031
538.173	0.0033
538.466	0.0033
538.759	0.0032
539.051	0.0028
539.344	0.0024
539.636	0.0031
539.928	0.0032
540.22	0.0038
540.513	0.0037
540.805	0.0041
541.097	0.0036
541.389	0.004
541.681	0.0027
541.972	0.003
542.264	0.0034
542.556	0.0037
542.847	0.0046
543.139	0.0045
543.431	0.0043
543.722	0.0038
544.013	0.005
544.305	0.0048
544.596	0.0049
544.887	0.0046
545.178	0.0034
545.469	0.0034
545.76	0.0036
546.051	0.0042
546.342	0.0039
546.632	0.0029
546.923	0.0036
547.214	0.0029
547.504	0.0034
547.795	0.0041
548.085	0.0041
548.375	0.0035
548.666	0.0037
548.956	0.002
549.246	0.0034
549.536	0.0027
549.826	0.0036
550.116	0.0034
550.406	0.0027
550.695	0.0048
550.985	0.004
551.275	0.0039
551.564	0.0032
551.854	0.0041
552.143	0.0027
552.433	0.0036
552.722	0.004
553.011	0.0033
553.3	0.0046
553.589	0.004
553.879	0.0034
554.167	0.0036
554.456	0.0038
554.745	0.0025
555.034	0.0032
555.323	0.0016
555.611	0.0027
555.9	0.003
556.188	0.0031
556.477	0.0032
556.765	0.003
557.053	0.0018
557.342	0.0015
557.63	0.0031
557.918	0.0025
558.206	0.0019
558.494	0.0035
558.782	0.0028
559.069	0.0038
559.357	0.0036
559.645	0.0023
559.932	0.0024
560.22	0.0044
560.507	0.0034
560.795	0.0026
561.082	0.0021
561.37	0.0032
561.657	0.0031
561.944	0.0042
562.231	0.0028
562.518	0.0018
562.805	0.0032
563.092	0.0034
563.379	0.0041
563.665	0.0024
563.952	0.0042
564.239	0.0039
564.525	0.0038
564.811	0.0035
565.098	0.0034
565.384	0.0035
565.67	0.0035
565.957	0.0035
566.243	0.0026
566.529	0.0035
566.815	0.0045
567.101	0.003
567.387	0.0022
567.672	0.002
567.958	0.0039
568.244	0.0032
568.529	0.0026
568.815	0.002
569.1	0.0032
569.386	0.0028
569.671	0.0032
569.956	0.0024
570.242	0.0026
570.527	0.0039
570.812	0.0022
571.097	0.0032
571.382	0.003
571.666	0.003
571.951	0.003
572.236	0.0038
572.521	0.0031
572.805	0.0031
573.09	0.0029
573.374	0.0032
573.659	0.0027
573.943	0.0031
574.227	0.0027
574.511	0.0035
574.795	0.0029
575.079	0.0029
575.363	0.0032
575.647	0.0041
575.931	0.0028
576.215	0.0029
576.499	0.0026
576.782	0.0035
577.066	0.0028
577.349	0.0031
577.633	0.0042
577.916	0.004
578.2	0.0042
578.483	0.004
578.766	0.0032
579.049	0.0038
579.332	0.0031
579.615	0.0029
579.898	0.0043
580.181	0.0035
580.464	0.0028
580.746	0.002
581.029	0.003
581.312	0.0021
581.594	0.003
581.877	0.0034
582.159	0.0034
582.441	0.0031
582.724	0.0027
583.006	0.0029
583.288	0.0024
583.57	0.0019
583.852	0.0014
584.134	0.0017
584.416	0.0025
584.697	0.0029
584.979	0.0028
585.261	0.0033
585.542	0.0033
585.824	0.0027
586.105	0.0033
586.387	0.0022
586.668	0.0024
586.949	0.0027
587.231	0.0022
587.512	0.003
587.793	0.003
588.074	0.0033
588.355	0.0026
588.636	0.0039
588.916	0.0036
589.197	0.003
589.478	0.0032
589.758	0.0025
590.039	0.0031
590.319	0.0032
590.6	0.0021
590.88	0.0028
591.16	0.0026
591.441	0.0037
591.721	0.0028
592.001	0.0027
592.281	0.0027
592.561	0.0027
592.841	0.0032
593.12	0.0031
593.4	0.0028
593.68	0.0033
593.959	0.0033
594.239	0.0035
594.518	0.0023
594.798	0.0022
595.077	0.003
595.356	0.0021
595.636	0.0025
595.915	0.0029
596.194	0.0024
596.473	0.0025
596.752	0.0021
597.031	0.002
597.31	0.0015
597.588	0.0022
597.867	0.0022
598.146	0.0029
598.424	0.0023
598.703	0.0021
598.981	0.0026
599.259	0.003
599.538	0.0034
599.816	0.0031
600.094	0.003
600.372	0.0031
600.65	0.003
600.928	0.003
601.206	0.0031
601.484	0.0037
601.762	0.0032
602.04	0.0021
602.317	0.0027
602.595	0.0017
602.872	0.0024
603.15	0.0016
603.427	0.0016
603.704	0.0012
603.982	0.0021
604.259	0.0019
604.536	0.002
604.813	0.0014
605.09	0.0017
605.367	0.0017
605.644	0.002
605.921	0.0019
606.197	0.0024
606.474	0.0024
606.751	0.002
607.027	0.0023
607.304	0.0013
607.58	0.0022
607.856	0.0019
608.133	0.0026
608.409	0.0023
608.685	0.0023
608.961	0.0027
609.237	0.0023
609.513	0.0019
609.789	0.0025
610.065	0.0011
610.341	0.0021
610.616	0.002
610.892	0.0028
611.167	0.0033
611.443	0.0025
611.718	0.002
611.994	0.0019
612.269	0.0024
612.544	0.0019
612.819	0.0026
613.095	0.0024
613.37	0.0023
613.645	0.0021
613.919	0.0018
614.194	0.0018
614.469	0.0018
614.744	0.0011
615.019	0.0009
615.293	0.0011
615.568	0.0008
615.842	0.0008
616.116	0.0012
616.391	0.0015
616.665	0.0022
616.939	0.0007
617.213	0.0009
617.488	0.0007
617.762	0.0011
618.035	0.0005
618.309	0.0007
618.583	0.0012
618.857	0.0011
619.131	0.0019
619.404	0.0007
619.678	0.0008
619.951	0.0006
620.225	0.0006
620.498	0.0013
620.771	0.0009
621.045	0.0014
621.318	0.0013
621.591	0.0012
621.864	0.0003
622.137	0.0007
622.41	0.0017
622.683	0.0001
622.956	0.0012
623.228	0.0018
623.501	0.0019
623.774	0.0017
624.046	0.0016
624.319	0.0015
624.591	-0
624.863	0.0019
625.136	0.0003
625.408	0.0012
625.68	0.0012
625.952	0.0013
626.224	0.0007
626.496	0.0006
626.768	0.0004
627.04	0.0003
627.311	0.0004
627.583	0.0014
627.855	0.0009
628.126	0.0016
628.398	0.0019
628.669	0.0014
628.941	-0.0002
629.212	-0.0005
629.483	0.0004
629.755	-0.0003
630.026	-0.0006
630.297	-0.0009
630.568	-0.0012
630.839	-0.0005
631.11	-0.0017
631.38	-0.0009
631.651	-0.001
631.922	-0.0008
632.192	-0.0019
632.463	-0.0027
632.733	-0.0013
633.004	-0.0004
633.274	-0.0014
633.545	0.0003
633.815	0.0008
634.085	0.0015
634.355	-0.0001
634.625	0.002
634.895	0.0002
635.165	-0.0004
635.435	0.0004
635.705	0.0008
635.974	-0.0003
636.244	0.0001
636.514	0.0002
636.783	-0
637.053	0.0001
637.322	-0.0008
637.591	0.0009
637.861	0.0002
638.13	0.0007
638.399	0.0003
638.668	0
638.937	-0.0008
639.206	-0.0003
639.475	-0.0005
639.744	-0.0002
640.013	0.0007
640.281	0.0022
640.55	0.0012
640.819	0.0015
641.087	0.0012
641.356	0.0008
641.624	0.0002
641.892	0.001
642.161	0.0004
642.429	0.001
642.697	0.0005
642.965	0.0017
643.233	0.0017
643.501	0.0004
643.769	0.0003
644.037	-0
644.305	-0
644.572	-0.001
644.84	-0.0006
645.108	-0.0009
645.375	-0.002
645.643	-0.0002
645.91	-0.0014
646.177	0.0012
646.445	0.0022
646.712	0.002
646.979	0.003
647.246	0.0019
647.513	0.0024
647.78	0.0019
648.047	0.0023
648.314	0.0017
648.58	0.0023
648.847	0.0001
649.114	0.0003
649.38	-0.0001
649.647	0.0001
649.913	-0.0002
650.18	-0.0003
650.446	0.0001
650.712	0.0005
650.978	0.0012
651.245	0.002
651.511	0.002
651.777	0.0005
652.043	0.0017
652.309	0.0011
652.574	0.0021
652.84	0.0003
653.106	0.0007
653.371	0.0003
653.637	0.0008
653.903	0.0008
654.168	0.001
654.433	0.0013
654.699	0.0009
654.964	0.001
655.229	0.0017
655.494	0.0014
655.759	0.0006
656.024	0.0006
656.289	-0
656.554	0.0003
656.819	0.0002
657.084	0
657.349	0.0007
657.613	0.0016
657.878	0.0012
658.142	0.0027
658.407	0.002
658.671	0.002
658.936	0.0008
659.2	0.0003
659.464	0.0011
659.728	0
659.992	0.0009
660.256	-0.0005
660.52	-0.0013
660.784	-0.0013
661.048	-0.0012
661.312	-0.0021
661.575	-0.0021
661.839	-0.0029
662.103	-0.0025
662.366	-0.0031
662.63	-0.0028
662.893	-0.0012
663.156	-0.0012
663.42	-0.0015
663.683	-0.0008
663.946	-0.0005
664.209	0.0017
664.472	0.0013
664.735	0.0014
664.998	0.0008
665.261	0
665.524	-0.0003
665.786	-0.0004
666.049	-0.0002
666.312	-0.0008
666.574	-0.0001
666.837	-0.0007
667.099	-0.0024
667.361	-0.002
667.624	-0.0018
667.886	-0.0023
668.148	-0.001
668.41	-0.0005
668.672	-0.0016
668.934	-0.0013
669.196	-0.0009
669.458	-0.0009
669.72	0.0001
669.982	-0.0003
670.243	0.0012
670.505	0.0005
670.766	-0.0002
671.028	0.0001
671.289	-0.0001
671.551	-0.0007
671.812	-0.0009
672.073	0.0002
672.334	-0.0006
672.596	0.0003
672.857	-0.0005
673.118	-0.0009
673.379	-0.0016
673.639	-0.0016
673.9	-0.0017
674.161	-0.0032
674.422	-0.0043
674.682	-0.003
674.943	-0.0033
675.203	-0.0023
675.464	-0.0017
675.724	-0.0006
675.985	-0.0008
676.245	0.0005
676.505	0.0004
676.765	0.0011
677.025	0.0006
677.285	0.0001
677.545	0.0015
677.805	0.0019
678.065	0.0017
678.325	0.0014
678.585	0.0001
678.844	0.0008
679.104	0.0004
679.363	0.0012
679.623	0.0021
679.882	0.0021
680.142	0.0028
680.401	0.0023
680.66	0.0026
680.919	0.0021
681.178	0.0034
681.437	0.0029
681.696	0.0028
681.955	0.0028
682.214	0.0028
682.473	0.0028
682.732	0.0007
682.99	0.0006
683.249	0.0013
683.508	0.0016
683.766	0.002
684.024	0.0021
684.283	0.0022
684.541	0.002
684.799	0.0031
685.058	0.0015
685.316	0.0012
685.574	0.0023
685.832	0.0024
686.09	0.0021
686.348	0.0024
686.606	0.0024
686.863	0.0023
687.121	0.0024
687.379	0.0019
687.636	0.0024
687.894	0.0025
688.151	0.0033
688.409	0.0026
688.666	0.0023
688.923	0.0025
689.181	0.0019
689.438	0.0012
689.695	0.0013
689.952	-0.0002
690.209	0.0004
690.466	-0.0006
690.723	0.0015
690.979	0.0012
691.236	0.0013
691.493	0.001
691.75	0.0018
692.006	0.0015
692.263	0.001
692.519	0.0017
692.775	0.0004
693.032	-0.0007
693.288	0.0013
693.544	0.0015
693.8	0.0007
694.056	0.0007
694.313	0.0006
694.568	0.0007
694.824	0.0013
695.08	0.002
695.336	0.0018
695.592	0.0016
695.847	0.002
696.103	0.001
696.359	0.0007
696.614	0.0007
696.869	0.0002
697.125	0
697.38	-0.0005
697.635	-0.0009
697.891	-0.0007
698.146	-0.0013
698.401	0.0002
698.656	-0
698.911	0.0002
699.166	-0.0003
699.42	-0.0005
699.675	-0.0003
699.93	-0.0013
700.185	0.0007
700.439	0.0007
700.694	-0.0002
700.948	0.0011
701.203	0.0006
701.457	0
701.711	-0.0007
701.965	-0.002
702.22	-0.0017
702.474	-0.0014
702.728	-0.0019
702.982	-0.0019
703.236	-0.0016
703.49	-0.0011
703.743	-0.0013
703.997	-0.0012
704.251	-0.0004
704.504	-0.0001
704.758	-0.0007
705.012	-0.001
705.265	-0.0009
705.518	-0.0011
705.772	-0.002
706.025	-0.0011
706.278	-0.0016
706.531	-0.0021
706.785	-0.0019
707.038	-0.0002
707.291	-0.0005
707.543	-0.0002
707.796	-0.0006
708.049	-0.0006
708.302	-0.0019
708.555	-0.0013
708.807	-0.0007
709.06	-0.0017
709.312	-0.0031
709.565	-0.0026
709.817	-0.003
710.069	-0.003
710.322	-0.002
710.574	-0.0015
710.826	-0.0004
711.078	-0.0002
711.33	-0.0014
711.582	-0.0017
711.834	0.0002
712.086	0.0003
712.338	0.0011
712.59	0.0011
712.841	0.001
713.093	0.0007
713.344	0.0004
713.596	0.001
713.847	0.0012
714.099	0.001
714.35	0.0014
714.601	0.0015
714.853	0.0026
715.104	0.0018
715.355	0.0013
715.606	0.0014
715.857	0.0008
716.108	0.0012
716.359	0.0009
716.609	0.0014
716.86	0.001
717.111	-0.0008
717.361	-0.0013
717.612	-0.0017
717.863	-0.0014
718.113	-0.0013
718.363	-0.0005
718.614	-0.0007
718.864	-0.0006
719.114	-0.0004
719.364	-0.0009
719.614	-0.0009
719.865	-0.0024
720.114	-0.0017
720.364	-0.0015
720.614	0.0001
720.864	0.0014
721.114	0.0009
721.364	0.0013
721.613	0.0017
721.863	0.002
722.112	0.0013
722.362	0.0019
722.611	0.0018
722.86	0.0001
723.11	-0.0002
723.359	0.0003
723.608	0.0016
723.857	0.0013
724.106	0.0035
724.355	0.0032
724.604	0.0036
724.853	0.0025
725.102	0.0021
725.351	0.0012
725.599	0.0012
725.848	0.001
726.097	0.0004
726.345	0.0002
726.594	-0.0002
726.842	-0.0009
727.09	-0.0001
727.339	-0.0007
727.587	-0.0009
727.835	-0.0016
728.083	-0.0021
728.331	-0.0022
728.579	-0.0032
728.827	-0.0013
729.075	-0.001
729.323	-0.001
729.571	0.0007
729.818	0.0007
730.066	0.0012
730.314	0.0004
730.561	-0.001
730.809	-0.0012
731.056	-0.0008
731.303	-0.0005
731.551	-0.0012
731.798	-0.0011
732.045	-0.0013
732.292	-0.0012
732.539	-0.0011
732.786	-0.0001
733.033	0.0009
733.28	0.0003
733.527	0.0018
733.774	0.0009
734.021	0.0022
734.267	0.0024
734.514	0.0024
734.76	0.0023
735.007	0.0031
735.253	0.0042
735.5	0.0039
735.746	0.0044
735.992	0.0039
736.238	0.0025
736.485	0.0039
736.731	0.0035
736.977	0.0033
737.223	0.003
737.469	0.0033
737.715	0.004
737.96	0.0042
738.206	0.0043
738.452	0.0055
738.697	0.0058
738.943	0.0054
739.189	0.0041
739.434	0.0013
739.679	0.0019
739.925	0.0011
740.17	0.0007
740.415	0.0001
740.66	0.0016
740.906	0.0022
741.151	0.0015
741.396	0.0017
741.641	0.004
741.886	0.0033
742.13	0.0034
742.375	0.0036
742.62	0.0049
742.865	0.0039
743.109	0.0027
743.354	0.0029
743.598	0.0023
743.843	0.0027
744.087	0.0022
744.331	0.0031
744.576	0.0021
744.82	0.0023
745.064	0.0018
745.308	0.0012
745.552	0.0011
745.796	0.0015
746.04	0.0012
746.284	-0
746.528	-0.0012
746.771	-0.0006
747.015	-0.0011
747.259	-0.0007
747.502	0
747.746	0.0004
747.989	0.0003
748.233	0.0005
748.476	0.0014
748.719	0.0014
748.963	0.0023
749.206	0.0017
749.449	0.0021
749.692	0.0016
749.935	0.0028
750.178	0.0025
750.421	0.0025
750.664	0.0025
750.906	0.0026
751.149	0.0011
751.392	0.0004
751.635	-0.0008
751.877	-0.0014
752.12	-0.0012
752.362	-0.0015
752.604	-0.0012
752.847	-0.0012
753.089	0.0001
753.331	-0.0001
753.573	0.0008
753.816	0.0013
754.058	0.0023
754.3	0.0017
754.542	0.0024
754.783	0.0021
755.025	0.001
755.267	-0.0006
755.509	-0.0005
755.75	-0.0007
755.992	0.0004
756.234	-0.0009
756.475	-0.0011
756.716	-0.0008
756.958	-0.0012
757.199	-0.0006
757.44	0.0006
757.682	0.0004
757.923	-0.0002
758.164	-0.0007
758.405	-0.0013
758.646	-0.0008
758.887	-0.0011
759.128	-0.0014
759.369	-0.0022
759.609	-0.0017
759.85	-0.0017
760.091	-0.0013
760.331	-0.0016
760.572	-0.001
760.812	-0.0017
761.053	-0.0016
761.293	-0.0005
761.533	-0.0007
761.774	-0.0004
762.014	-0.0002
762.254	-0.0004
762.494	-0.0018
762.734	-0.0015
762.974	-0.001
763.214	-0.0015
763.454	-0.0019
763.694	-0.0017
763.933	-0.0023
764.173	-0.0009
764.413	-0.0014
764.652	-0.0003
764.892	0.0001
765.131	0.0005
765.371	0.0002
765.61	0.0007
765.849	-0.0005
766.089	-0.0001
766.328	0.0015
766.567	0.0007
766.806	0.0016
767.045	0.0011
767.284	0.0013
767.523	0.0018
767.762	0.0022
768.001	0.0017
768.239	0.0015
768.478	0.0009
768.717	0.001
768.955	0.0017
769.194	0.0006
769.432	0.0011
769.671	0.0012
769.909	0.0008
770.148	0.0013
770.386	0.0015
770.624	0.0016
770.862	0.0014
771.1	0.0003
771.338	0.0001
771.576	0.0008
771.814	0.0012
772.052	0.0002
772.29	0.0017
772.528	0.001
772.765	0.0008
773.003	0.0016
773.24	0.0016
773.478	0.0008
773.716	0.0019
773.953	0.0013
774.19	0.0018
774.428	0.0014
774.665	0.0017
774.902	0.0019
775.139	0.0003
775.376	0.0016
775.613	0.0004
775.85	0.0006
776.087	0
776.324	-0
776.561	0.0011
776.798	0.0018
777.034	0.0029
777.271	0.0039
777.508	0.0044
777.744	0.0035
777.981	0.0035
778.217	0.003
778.454	0.0031
778.69	0.0021
778.926	0.0027
779.162	0.0024
779.399	0.0019
779.635	0.0017
779.871	0.0022
780.107	0.0023
780.343	0.0027
780.579	0.0028
780.814	0.0027
781.05	0.003
781.286	0.0026
781.522	0.0025
781.757	0.0046
781.993	0.0037
782.228	0.0041
782.464	0.0039
782.699	0.0028
782.934	0.002
783.17	0.0026
783.405	0.002
783.64	0.0015
783.875	0.0024
784.11	0.0023
784.345	0.0028
784.58	0.0029
784.815	0.0021
785.05	0.0029
785.285	0.0012
785.52	0.0012
785.754	0.001
785.989	0.0011
786.223	-0.0003
786.458	0.0007
786.692	0.0003
786.927	-0.001
787.161	-0.0006
787.396	-0.0001
787.63	-0.0014
787.864	-0.002
788.098	-0.0014
788.332	-0.0013
788.566	-0.0007
788.8	-0.0013
789.034	-0.0005
789.268	0
789.502	-0
789.736	0.0013
789.969	0.0008
790.203	0.0009
790.437	0.0005
790.67	0.0001
790.904	-0.0002
791.137	-0.0012
791.37	-0.0012
791.604	-0.0017
791.837	-0.0014
792.07	-0.0012
792.303	-0.0004
792.537	-0.0016
792.77	-0.0017
793.003	-0.0009
793.236	-0.0017
793.469	-0.0017
793.701	-0.002
793.934	-0.0013
794.167	-0.0007
794.4	-0.0006
794.632	0.0002
794.865	-0.0004
795.097	-0.0008
795.33	0.0003
795.562	-0.0007
795.795	-0.0003
796.027	-0.0008
796.259	-0.0005
796.491	-0.001
796.724	-0.0018
796.956	-0.0012
797.188	0.0001
797.42	-0.0012
797.652	-0.0008
797.883	-0.0016
798.115	-0.0016
798.347	-0.0023
798.579	-0.003
798.81	-0.0034
799.042	-0.0025
799.274	-0.0036
799.505	-0.0034
799.737	-0.0031
799.968	-0.0029
800.199	-0.0022
800.431	-0.0028
800.662	-0.0015
800.893	-0.0008
801.124	-0.0017
801.355	-0.0024
801.586	-0.0017
801.817	-0.0008
802.048	-0.0016
802.279	-0.0009
802.51	-0.0009
802.741	-0.002
802.971	-0.0029
803.202	-0.0025
803.433	-0.0028
803.663	-0.0028
803.894	-0.0017
804.124	-0.0006
804.354	-0.0012
804.585	-0.0008
804.815	-0.0013
805.045	-0.0017
805.275	-0.0027
805.506	-0.0461
805.736	0.0755
805.966	-0.0043
806.196	0.0619
