Data from 03 0.2 mM BQDS 0.4 mM K2Cr2O7 1 M H2SO4 5 min_Absorbance_10-12-42-355.txt Node
Date: Wed Dec 08 10:12:42 EST 2021
User: kwabilab-user
Spectrometer: HDX00518
Trigger mode: 0
Integration Time (sec): 5.000000E-2
Scans to average: 50
Nonlinearity correction enabled: false
Boxcar width: 0
Storing dark spectrum: false
XAxis mode: Wavelengths
Number of Pixels in Spectrum: 2068
>>>>>Begin Spectral Data<<<<<
195.27	0.0573
195.642	0.0235
196.014	0.0656
196.386	0.0746
196.758	0.0191
197.129	0.0086
197.501	0.0309
197.872	0.098
198.244	0.107
198.615	0.1031
198.986	0.1021
199.357	0.0883
199.728	0.1234
200.099	0.098
200.47	0.1022
200.841	0.0953
201.212	0.0957
201.582	0.0946
201.953	0.1126
202.323	0.0955
202.694	0.1082
203.064	0.1154
203.434	0.1042
203.804	0.1243
204.174	0.0981
204.544	0.1109
204.914	0.099
205.284	0.0971
205.653	0.1087
206.023	0.1092
206.393	0.1075
206.762	0.1054
207.131	0.1055
207.501	0.1239
207.87	0.1285
208.239	0.1176
208.608	0.0992
208.977	0.125
209.346	0.1365
209.715	0.1194
210.083	0.1338
210.452	0.1224
210.82	0.1301
211.189	0.1272
211.557	0.135
211.925	0.1451
212.294	0.145
212.662	0.1553
213.03	0.1567
213.398	0.1474
213.766	0.1658
214.133	0.2
214.501	0.1998
214.869	0.1861
215.236	0.2112
215.604	0.2222
215.971	0.2411
216.338	0.2621
216.705	0.2735
217.072	0.291
217.439	0.3038
217.806	0.3388
218.173	0.365
218.54	0.4038
218.907	0.4345
219.273	0.4737
219.64	0.502
220.006	0.5462
220.373	0.5838
220.739	0.6127
221.105	0.6532
221.471	0.6703
221.837	0.7241
222.203	0.7527
222.569	0.7916
222.935	0.8179
223.3	0.8456
223.666	0.8701
224.031	0.8935
224.397	0.9115
224.762	0.9252
225.127	0.9539
225.493	0.9641
225.858	0.9724
226.223	0.9876
226.588	0.9852
226.952	0.9996
227.317	1.0025
227.682	0.9976
228.046	0.9856
228.411	1.0031
228.775	0.9985
229.14	0.9893
229.504	0.9854
229.868	0.9814
230.232	0.9729
230.596	0.9674
230.96	0.966
231.324	0.9513
231.688	0.945
232.052	0.9359
232.415	0.9253
232.779	0.9177
233.142	0.9083
233.505	0.9026
233.869	0.8963
234.232	0.8851
234.595	0.8723
234.958	0.8668
235.321	0.8545
235.684	0.8473
236.047	0.8352
236.409	0.8281
236.772	0.8192
237.134	0.8132
237.497	0.8001
237.859	0.7948
238.222	0.788
238.584	0.7766
238.946	0.7645
239.308	0.7562
239.67	0.7535
240.032	0.7443
240.393	0.7383
240.755	0.729
241.117	0.724
241.478	0.7191
241.84	0.7133
242.201	0.7037
242.562	0.697
242.924	0.6901
243.285	0.687
243.646	0.678
244.007	0.6783
244.368	0.6708
244.728	0.6649
245.089	0.6608
245.45	0.655
245.81	0.6519
246.171	0.6487
246.531	0.6439
246.891	0.639
247.252	0.6337
247.612	0.634
247.972	0.6293
248.332	0.6243
248.692	0.6225
249.051	0.6202
249.411	0.6166
249.771	0.6125
250.13	0.6119
250.49	0.6096
250.849	0.6073
251.208	0.6056
251.568	0.6015
251.927	0.5988
252.286	0.5996
252.645	0.5958
253.004	0.592
253.363	0.5904
253.721	0.5904
254.08	0.5886
254.439	0.5856
254.797	0.5825
255.155	0.5824
255.514	0.5798
255.872	0.5805
256.23	0.5782
256.588	0.576
256.946	0.5749
257.304	0.5743
257.662	0.573
258.02	0.572
258.377	0.5677
258.735	0.5688
259.093	0.5657
259.45	0.5646
259.807	0.5625
260.165	0.5615
260.522	0.561
260.879	0.5579
261.236	0.556
261.593	0.5541
261.95	0.5526
262.306	0.5513
262.663	0.5478
263.02	0.5478
263.376	0.5465
263.733	0.5432
264.089	0.5429
264.445	0.5386
264.802	0.5392
265.158	0.5343
265.514	0.535
265.87	0.5338
266.226	0.5308
266.581	0.5269
266.937	0.5246
267.293	0.5225
267.648	0.5216
268.004	0.52
268.359	0.5166
268.714	0.5134
269.07	0.5104
269.425	0.5089
269.78	0.5065
270.135	0.5033
270.49	0.5018
270.844	0.5003
271.199	0.4973
271.554	0.4931
271.908	0.4909
272.263	0.4872
272.617	0.4858
272.972	0.4816
273.326	0.4796
273.68	0.4769
274.034	0.4736
274.388	0.4706
274.742	0.4676
275.096	0.4621
275.45	0.4613
275.803	0.4581
276.157	0.4544
276.51	0.4507
276.864	0.449
277.217	0.4445
277.571	0.44
277.924	0.4375
278.277	0.4331
278.63	0.4291
278.983	0.4269
279.336	0.4231
279.688	0.419
280.041	0.4153
280.394	0.412
280.746	0.4085
281.099	0.4045
281.451	0.4007
281.803	0.3971
282.156	0.3926
282.508	0.3903
282.86	0.3865
283.212	0.3819
283.564	0.378
283.916	0.3747
284.267	0.3698
284.619	0.3674
284.971	0.3623
285.322	0.36
285.673	0.3562
286.025	0.3541
286.376	0.349
286.727	0.3452
287.078	0.3401
287.429	0.3378
287.78	0.3336
288.131	0.3293
288.482	0.3256
288.833	0.3218
289.183	0.3181
289.534	0.3139
289.884	0.311
290.235	0.3064
290.585	0.3022
290.935	0.2995
291.285	0.2962
291.635	0.2922
291.985	0.2882
292.335	0.2835
292.685	0.2813
293.035	0.277
293.384	0.2729
293.734	0.2693
294.083	0.2656
294.433	0.2619
294.782	0.2594
295.131	0.255
295.48	0.2529
295.829	0.2487
296.179	0.2448
296.527	0.2421
296.876	0.2383
297.225	0.2369
297.574	0.2322
297.922	0.2294
298.271	0.2261
298.619	0.2223
298.968	0.2202
299.316	0.2173
299.664	0.215
300.012	0.2118
300.36	0.2085
300.708	0.2059
301.056	0.2038
301.404	0.2011
301.752	0.1986
302.099	0.1963
302.447	0.1942
302.794	0.192
303.142	0.1892
303.489	0.1872
303.836	0.1853
304.183	0.1834
304.531	0.1813
304.878	0.1802
305.224	0.1778
305.571	0.1764
305.918	0.1744
306.265	0.1731
306.611	0.1713
306.958	0.17
307.304	0.1688
307.651	0.1676
307.997	0.1661
308.343	0.1647
308.689	0.1643
309.035	0.1631
309.381	0.1622
309.727	0.1614
310.073	0.1609
310.419	0.1597
310.764	0.1583
311.11	0.1584
311.455	0.1579
311.801	0.1568
312.146	0.157
312.491	0.1565
312.837	0.1561
313.182	0.1565
313.527	0.1556
313.872	0.1554
314.216	0.1547
314.561	0.1547
314.906	0.1549
315.251	0.1553
315.595	0.1543
315.94	0.1547
316.284	0.1548
316.628	0.1544
316.972	0.1541
317.317	0.1552
317.661	0.1565
318.005	0.1565
318.348	0.1565
318.692	0.1567
319.036	0.1571
319.38	0.1575
319.723	0.1583
320.067	0.1584
320.41	0.1592
320.754	0.16
321.097	0.1606
321.44	0.1615
321.783	0.1617
322.126	0.1628
322.469	0.1637
322.812	0.1648
323.155	0.1657
323.498	0.1668
323.84	0.1677
324.183	0.1685
324.525	0.1695
324.868	0.1704
325.21	0.1719
325.552	0.1729
325.894	0.1732
326.236	0.1748
326.578	0.1755
326.92	0.1769
327.262	0.1771
327.604	0.179
327.946	0.1802
328.287	0.1816
328.629	0.1819
328.97	0.1835
329.312	0.1849
329.653	0.1862
329.994	0.1876
330.335	0.1884
330.676	0.1894
331.017	0.1907
331.358	0.1924
331.699	0.1934
332.04	0.1949
332.38	0.1954
332.721	0.1982
333.061	0.1977
333.402	0.1997
333.742	0.2012
334.083	0.2027
334.423	0.203
334.763	0.2038
335.103	0.2055
335.443	0.2061
335.783	0.2068
336.123	0.2078
336.462	0.2087
336.802	0.2098
337.141	0.2109
337.481	0.2124
337.82	0.2127
338.16	0.2135
338.499	0.2148
338.838	0.2154
339.177	0.2171
339.516	0.218
339.855	0.2188
340.194	0.2197
340.533	0.2205
340.872	0.2215
341.21	0.222
341.549	0.2231
341.887	0.2241
342.226	0.224
342.564	0.2239
342.902	0.2251
343.24	0.2247
343.578	0.225
343.916	0.2259
344.254	0.226
344.592	0.2261
344.93	0.2261
345.268	0.2262
345.605	0.2264
345.943	0.2264
346.28	0.2267
346.618	0.2265
346.955	0.2268
347.292	0.2273
347.629	0.2282
347.966	0.228
348.303	0.2271
348.64	0.2276
348.977	0.2273
349.314	0.2273
349.65	0.228
349.987	0.2277
350.324	0.2268
350.66	0.2266
350.996	0.227
351.333	0.2255
351.669	0.2248
352.005	0.2253
352.341	0.2241
352.677	0.2233
353.013	0.2223
353.349	0.2224
353.685	0.2202
354.02	0.2196
354.356	0.2186
354.691	0.2177
355.027	0.2166
355.362	0.2147
355.697	0.2145
356.033	0.2139
356.368	0.2131
356.703	0.2122
357.038	0.2114
357.373	0.2107
357.707	0.2097
358.042	0.2085
358.377	0.2074
358.711	0.2068
359.046	0.2058
359.38	0.2049
359.715	0.204
360.049	0.2022
360.383	0.2015
360.717	0.2003
361.051	0.1985
361.385	0.1976
361.719	0.1956
362.053	0.1945
362.387	0.1924
362.72	0.1912
363.054	0.1891
363.387	0.1874
363.721	0.1864
364.054	0.1842
364.387	0.1826
364.721	0.1815
365.054	0.1794
365.387	0.1778
365.72	0.1761
366.053	0.1747
366.385	0.1736
366.718	0.1725
367.051	0.1701
367.383	0.1688
367.716	0.1687
368.048	0.1667
368.381	0.1655
368.713	0.164
369.045	0.1636
369.377	0.1611
369.709	0.1603
370.041	0.1591
370.373	0.1584
370.705	0.156
371.037	0.1545
371.368	0.1526
371.7	0.1515
372.031	0.15
372.363	0.1485
372.694	0.1466
373.025	0.1449
373.356	0.1426
373.688	0.1416
374.019	0.1382
374.35	0.1374
374.68	0.1355
375.011	0.1338
375.342	0.1318
375.673	0.13
376.003	0.1281
376.334	0.1262
376.664	0.1249
376.995	0.1228
377.325	0.1227
377.655	0.1209
377.985	0.1195
378.315	0.1184
378.645	0.1166
378.975	0.1154
379.305	0.1143
379.635	0.1135
379.964	0.1115
380.294	0.1107
380.623	0.1096
380.953	0.109
381.282	0.1072
381.611	0.1056
381.941	0.1044
382.27	0.1033
382.599	0.1013
382.928	0.1005
383.257	0.0989
383.585	0.0984
383.914	0.0965
384.243	0.0951
384.571	0.0934
384.9	0.0917
385.228	0.0907
385.557	0.0894
385.885	0.0881
386.213	0.0861
386.541	0.0846
386.869	0.083
387.197	0.081
387.525	0.0802
387.853	0.0787
388.181	0.0774
388.508	0.0768
388.836	0.0755
389.164	0.0738
389.491	0.0732
389.818	0.0718
390.146	0.0705
390.473	0.0695
390.8	0.0685
391.127	0.068
391.454	0.067
391.781	0.0661
392.108	0.0645
392.435	0.0638
392.761	0.0624
393.088	0.0624
393.415	0.0612
393.741	0.0615
394.067	0.0602
394.394	0.0599
394.72	0.0584
395.046	0.0576
395.372	0.0567
395.698	0.0557
396.024	0.0551
396.35	0.0547
396.676	0.054
397.001	0.0536
397.327	0.052
397.653	0.0513
397.978	0.0507
398.303	0.0494
398.629	0.0488
398.954	0.0479
399.279	0.0479
399.604	0.0472
399.929	0.0465
400.254	0.0459
400.579	0.0456
400.904	0.0443
401.229	0.0445
401.553	0.043
401.878	0.0426
402.202	0.0429
402.527	0.0427
402.851	0.0418
403.175	0.0415
403.5	0.0414
403.824	0.0411
404.148	0.0409
404.472	0.0406
404.796	0.0394
405.119	0.0397
405.443	0.0394
405.767	0.0384
406.09	0.0384
406.414	0.0389
406.737	0.0381
407.061	0.0388
407.384	0.0383
407.707	0.0375
408.03	0.0382
408.353	0.0376
408.676	0.0375
408.999	0.037
409.322	0.0377
409.645	0.0374
409.968	0.0371
410.29	0.0374
410.613	0.0373
410.935	0.0369
411.258	0.0375
411.58	0.0368
411.902	0.0369
412.224	0.0369
412.546	0.0368
412.868	0.0368
413.19	0.037
413.512	0.0366
413.834	0.0365
414.156	0.0376
414.477	0.0366
414.799	0.037
415.121	0.0372
415.442	0.0368
415.763	0.0373
416.085	0.0371
416.406	0.0372
416.727	0.0373
417.048	0.0371
417.369	0.0371
417.69	0.0371
418.011	0.037
418.331	0.0372
418.652	0.0372
418.973	0.0375
419.293	0.0376
419.614	0.0377
419.934	0.0369
420.254	0.0373
420.574	0.0367
420.895	0.0375
421.215	0.0371
421.535	0.0368
421.855	0.0374
422.174	0.0365
422.494	0.0372
422.814	0.0382
423.134	0.037
423.453	0.0372
423.773	0.0376
424.092	0.0372
424.411	0.0373
424.731	0.038
425.05	0.038
425.369	0.0379
425.688	0.038
426.007	0.0383
426.326	0.0388
426.644	0.0397
426.963	0.0394
427.282	0.0391
427.6	0.0384
427.919	0.0389
428.237	0.0386
428.556	0.039
428.874	0.0385
429.192	0.0384
429.51	0.0387
429.828	0.0392
430.146	0.0388
430.464	0.0391
430.782	0.0388
431.1	0.0392
431.418	0.0385
431.735	0.0387
432.053	0.0392
432.37	0.0393
432.688	0.0389
433.005	0.0392
433.322	0.0391
433.639	0.0393
433.957	0.0394
434.274	0.0395
434.591	0.0403
434.907	0.0401
435.224	0.0397
435.541	0.0399
435.858	0.0404
436.174	0.0402
436.491	0.0397
436.807	0.0399
437.124	0.0392
437.44	0.0398
437.756	0.039
438.072	0.0388
438.388	0.0395
438.704	0.0397
439.02	0.0397
439.336	0.0389
439.652	0.0396
439.968	0.0398
440.283	0.0391
440.599	0.0393
440.914	0.0385
441.23	0.0388
441.545	0.04
441.86	0.0396
442.175	0.0396
442.491	0.0395
442.806	0.0386
443.121	0.0398
443.435	0.0395
443.75	0.0388
444.065	0.0389
444.38	0.0389
444.694	0.0388
445.009	0.0387
445.323	0.0391
445.638	0.039
445.952	0.0386
446.266	0.0388
446.58	0.0392
446.894	0.0386
447.208	0.0395
447.522	0.0389
447.836	0.0375
448.15	0.0377
448.464	0.0372
448.777	0.0381
449.091	0.038
449.404	0.0384
449.718	0.0388
450.031	0.038
450.345	0.0379
450.658	0.0378
450.971	0.0375
451.284	0.0367
451.597	0.0379
451.91	0.0376
452.223	0.0372
452.535	0.0374
452.848	0.0367
453.161	0.0369
453.473	0.0378
453.786	0.037
454.098	0.0367
454.411	0.036
454.723	0.0367
455.035	0.0367
455.347	0.0372
455.659	0.0369
455.971	0.0369
456.283	0.0368
456.595	0.036
456.907	0.0362
457.218	0.036
457.53	0.0357
457.841	0.0357
458.153	0.0357
458.464	0.0351
458.776	0.0348
459.087	0.0348
459.398	0.0349
459.709	0.034
460.02	0.0342
460.331	0.0335
460.642	0.0336
460.953	0.0342
461.263	0.0339
461.574	0.0339
461.885	0.0337
462.195	0.0337
462.506	0.0331
462.816	0.0336
463.126	0.0327
463.437	0.0329
463.747	0.0324
464.057	0.0327
464.367	0.0324
464.677	0.0318
464.987	0.0322
465.296	0.0316
465.606	0.0317
465.916	0.0311
466.225	0.0307
466.535	0.0308
466.844	0.0312
467.154	0.0308
467.463	0.0301
467.772	0.0311
468.081	0.0303
468.39	0.03
468.699	0.0297
469.008	0.0302
469.317	0.0297
469.626	0.0295
469.935	0.029
470.243	0.0295
470.552	0.0297
470.86	0.0297
471.169	0.028
471.477	0.0283
471.785	0.0295
472.093	0.0284
472.402	0.0281
472.71	0.0279
473.018	0.0273
473.326	0.0269
473.633	0.0275
473.941	0.0268
474.249	0.0264
474.556	0.0273
474.864	0.0263
475.171	0.0259
475.479	0.0267
475.786	0.0262
476.094	0.0264
476.401	0.0259
476.708	0.0256
477.015	0.0255
477.322	0.0256
477.629	0.0257
477.936	0.0249
478.242	0.0244
478.549	0.0244
478.856	0.0241
479.162	0.0245
479.469	0.0244
479.775	0.0246
480.081	0.0231
480.388	0.0239
480.694	0.0229
481	0.0228
481.306	0.0232
481.612	0.0226
481.918	0.0226
482.224	0.0222
482.53	0.0221
482.835	0.0221
483.141	0.0215
483.446	0.021
483.752	0.0213
484.057	0.0206
484.363	0.0204
484.668	0.0197
484.973	0.0202
485.278	0.0201
485.583	0.0194
485.888	0.0199
486.193	0.0192
486.498	0.0194
486.803	0.0197
487.107	0.019
487.412	0.0185
487.717	0.0184
488.021	0.0183
488.325	0.0178
488.63	0.0173
488.934	0.0178
489.238	0.0189
489.542	0.0174
489.846	0.0174
490.15	0.0178
490.454	0.017
490.758	0.0175
491.062	0.0168
491.366	0.0164
491.669	0.0171
491.973	0.016
492.276	0.0162
492.58	0.0158
492.883	0.0164
493.186	0.0161
493.489	0.0158
493.792	0.0155
494.096	0.0158
494.399	0.0154
494.701	0.0156
495.004	0.015
495.307	0.0138
495.61	0.0146
495.912	0.0139
496.215	0.0141
496.517	0.0136
496.82	0.0132
497.122	0.0136
497.424	0.0133
497.727	0.0134
498.029	0.0139
498.331	0.0136
498.633	0.0146
498.935	0.0121
499.237	0.013
499.538	0.0125
499.84	0.0125
500.142	0.0128
500.443	0.0125
500.745	0.0119
501.046	0.0132
501.348	0.0117
501.649	0.0121
501.95	0.0112
502.251	0.0117
502.552	0.0106
502.853	0.0101
503.154	0.0104
503.455	0.0104
503.756	0.0109
504.057	0.0111
504.357	0.0103
504.658	0.0101
504.958	0.0106
505.259	0.0104
505.559	0.0108
505.859	0.0101
506.16	0.0096
506.46	0.0101
506.76	0.0105
507.06	0.0094
507.36	0.0098
507.66	0.0094
507.96	0.0098
508.259	0.0092
508.559	0.0086
508.859	0.0091
509.158	0.0087
509.457	0.0095
509.757	0.0103
510.056	0.0089
510.355	0.0077
510.655	0.0067
510.954	0.0077
511.253	0.0076
511.552	0.0087
511.851	0.0079
512.149	0.0073
512.448	0.0071
512.747	0.0078
513.045	0.0063
513.344	0.0082
513.642	0.0079
513.941	0.008
514.239	0.0079
514.537	0.0072
514.836	0.0071
515.134	0.0066
515.432	0.0075
515.73	0.0076
516.028	0.0067
516.326	0.0076
516.623	0.0067
516.921	0.0061
517.219	0.0071
517.516	0.0066
517.814	0.0066
518.111	0.0071
518.409	0.0071
518.706	0.0071
519.003	0.0067
519.3	0.0058
519.597	0.0063
519.894	0.006
520.191	0.0067
520.488	0.0066
520.785	0.006
521.082	0.0057
521.378	0.0066
521.675	0.0047
521.971	0.006
522.268	0.0051
522.564	0.005
522.861	0.0059
523.157	0.005
523.453	0.0061
523.749	0.006
524.045	0.0057
524.341	0.0052
524.637	0.0039
524.933	0.0052
525.229	0.0062
525.524	0.0041
525.82	0.0059
526.115	0.0048
526.411	0.005
526.706	0.0048
527.002	0.0049
527.297	0.0038
527.592	0.0063
527.887	0.0052
528.182	0.0053
528.477	0.0057
528.772	0.0042
529.067	0.0044
529.362	0.005
529.657	0.0048
529.951	0.0034
530.246	0.0049
530.54	0.0036
530.835	0.0038
531.129	0.0026
531.423	0.0045
531.718	0.0045
532.012	0.0044
532.306	0.0026
532.6	0.0039
532.894	0.0039
533.188	0.0046
533.482	0.0027
533.775	0.0033
534.069	0.0031
534.363	0.0032
534.656	0.003
534.95	0.0027
535.243	0.0031
535.536	0.0029
535.83	0.0041
536.123	0.0032
536.416	0.0037
536.709	0.004
537.002	0.0043
537.295	0.0028
537.588	0.004
537.881	0.0031
538.173	0.0034
538.466	0.0025
538.759	0.003
539.051	0.0023
539.344	0.0029
539.636	0.003
539.928	0.003
540.22	0.0041
540.513	0.0038
540.805	0.0034
541.097	0.0029
541.389	0.0031
541.681	0.0029
541.972	0.0035
542.264	0.003
542.556	0.0028
542.847	0.0038
543.139	0.0032
543.431	0.004
543.722	0.0042
544.013	0.0048
544.305	0.0052
544.596	0.005
544.887	0.0037
545.178	0.0038
545.469	0.0043
545.76	0.0028
546.051	0.0046
546.342	0.0038
546.632	0.0027
546.923	0.0037
547.214	0.0029
547.504	0.0034
547.795	0.0037
548.085	0.0042
548.375	0.0032
548.666	0.0042
548.956	0.0026
549.246	0.0033
549.536	0.0031
549.826	0.0037
550.116	0.0038
550.406	0.0038
550.695	0.0042
550.985	0.0034
551.275	0.004
551.564	0.0034
551.854	0.004
552.143	0.0037
552.433	0.0036
552.722	0.0032
553.011	0.0027
553.3	0.004
553.589	0.0033
553.879	0.0026
554.167	0.0032
554.456	0.0028
554.745	0.0034
555.034	0.0025
555.323	0.0016
555.611	0.0017
555.9	0.003
556.188	0.0031
556.477	0.0033
556.765	0.0017
557.053	0.002
557.342	0.0023
557.63	0.0027
557.918	0.0022
558.206	0.0018
558.494	0.0036
558.782	0.003
559.069	0.0033
559.357	0.0032
559.645	0.003
559.932	0.0024
560.22	0.0031
560.507	0.0033
560.795	0.0035
561.082	0.0032
561.37	0.0026
561.657	0.0024
561.944	0.004
562.231	0.0023
562.518	0.0021
562.805	0.0036
563.092	0.0043
563.379	0.0031
563.665	0.0029
563.952	0.0032
564.239	0.0041
564.525	0.0042
564.811	0.0044
565.098	0.0035
565.384	0.0042
565.67	0.0034
565.957	0.0034
566.243	0.0031
566.529	0.0042
566.815	0.0056
567.101	0.0032
567.387	0.0031
567.672	0.003
567.958	0.004
568.244	0.0039
568.529	0.0027
568.815	0.0028
569.1	0.0033
569.386	0.0027
569.671	0.0026
569.956	0.003
570.242	0.0025
570.527	0.0032
570.812	0.003
571.097	0.0024
571.382	0.0026
571.666	0.0024
571.951	0.0026
572.236	0.003
572.521	0.0023
572.805	0.0035
573.09	0.0027
573.374	0.0028
573.659	0.0023
573.943	0.0027
574.227	0.0025
574.511	0.0027
574.795	0.0029
575.079	0.0025
575.363	0.0025
575.647	0.0032
575.931	0.0025
576.215	0.0026
576.499	0.0021
576.782	0.0021
577.066	0.0024
577.349	0.0033
577.633	0.0039
577.916	0.0033
578.2	0.0039
578.483	0.0032
578.766	0.0026
579.049	0.0037
579.332	0.0033
579.615	0.0031
579.898	0.0037
580.181	0.0034
580.464	0.0033
580.746	0.0022
581.029	0.0034
581.312	0.0026
581.594	0.0023
581.877	0.0031
582.159	0.0036
582.441	0.003
582.724	0.0028
583.006	0.0026
583.288	0.002
583.57	0.0024
583.852	0.0015
584.134	0.0018
584.416	0.0029
584.697	0.0035
584.979	0.0031
585.261	0.003
585.542	0.0025
585.824	0.0037
586.105	0.0027
586.387	0.0023
586.668	0.0031
586.949	0.0029
587.231	0.0031
587.512	0.0033
587.793	0.0029
588.074	0.0028
588.355	0.0034
588.636	0.0037
588.916	0.0029
589.197	0.0033
589.478	0.0034
589.758	0.0029
590.039	0.0032
590.319	0.0031
590.6	0.003
590.88	0.0029
591.16	0.0039
591.441	0.0034
591.721	0.0032
592.001	0.0043
592.281	0.0029
592.561	0.0036
592.841	0.0038
593.12	0.0024
593.4	0.0019
593.68	0.0027
593.959	0.0028
594.239	0.0039
594.518	0.0022
594.798	0.0037
595.077	0.0039
595.356	0.0032
595.636	0.0033
595.915	0.0032
596.194	0.0028
596.473	0.003
596.752	0.0031
597.031	0.0026
597.31	0.0017
597.588	0.0019
597.867	0.0021
598.146	0.0023
598.424	0.0023
598.703	0.0028
598.981	0.0027
599.259	0.0029
599.538	0.0029
599.816	0.0029
600.094	0.0027
600.372	0.0032
600.65	0.0033
600.928	0.0037
601.206	0.0034
601.484	0.0042
601.762	0.0032
602.04	0.0029
602.317	0.0032
602.595	0.0027
602.872	0.0032
603.15	0.003
603.427	0.0024
603.704	0.0022
603.982	0.0022
604.259	0.0023
604.536	0.0022
604.813	0.0023
605.09	0.0026
605.367	0.003
605.644	0.0018
605.921	0.0024
606.197	0.0023
606.474	0.003
606.751	0.0024
607.027	0.0026
607.304	0.0026
607.58	0.0027
607.856	0.0023
608.133	0.0033
608.409	0.0033
608.685	0.0028
608.961	0.0031
609.237	0.0037
609.513	0.0031
609.789	0.0035
610.065	0.0021
610.341	0.0024
610.616	0.0029
610.892	0.0042
611.167	0.004
611.443	0.0035
611.718	0.0022
611.994	0.0026
612.269	0.0037
612.544	0.0025
612.819	0.0022
613.095	0.0036
613.37	0.0026
613.645	0.0023
613.919	0.0025
614.194	0.0031
614.469	0.0023
614.744	0.0019
615.019	0.002
615.293	0.0016
615.568	0.0015
615.842	0.0025
616.116	0.0011
616.391	0.0012
616.665	0.0029
616.939	0.0025
617.213	0.0027
617.488	0.0026
617.762	0.0029
618.035	0.0027
618.309	0.002
618.583	0.0022
618.857	0.0026
619.131	0.0032
619.404	0.0024
619.678	0.0021
619.951	0.0016
620.225	0.0012
620.498	0.0014
620.771	0.0019
621.045	0.003
621.318	0.002
621.591	0.0022
621.864	0.0013
622.137	0.0007
622.41	0.0014
622.683	0.0012
622.956	0.0016
623.228	0.0025
623.501	0.0033
623.774	0.0041
624.046	0.0022
624.319	0.0023
624.591	0.0017
624.863	0.0026
625.136	0.0025
625.408	0.0027
625.68	0.0034
625.952	0.0027
626.224	0.0036
626.496	0.0026
626.768	0.0024
627.04	0.0023
627.311	0.0034
627.583	0.0034
627.855	0.0029
628.126	0.0029
628.398	0.0034
628.669	0.0025
628.941	0.0023
629.212	0.0014
629.483	0.0016
629.755	0.0017
630.026	0.0018
630.297	0.0022
630.568	0.0018
630.839	0.0009
631.11	0.0009
631.38	0.0002
631.651	0.0007
631.922	0.0009
632.192	-0.0007
632.463	0.0003
632.733	0.0006
633.004	-0.0002
633.274	-0.0017
633.545	0.0009
633.815	0.0021
634.085	0.0017
634.355	0.0008
634.625	0.0028
634.895	0.0007
635.165	0.0003
635.435	0.0008
635.705	0.0009
635.974	0.0008
636.244	0.0014
636.514	0.0019
636.783	0.0015
637.053	0.0031
637.322	0.0015
637.591	0.0032
637.861	0.0022
638.13	0.0021
638.399	0.002
638.668	0.0024
638.937	0.0006
639.206	0.0013
639.475	0.0024
639.744	0.0013
640.013	0.0032
640.281	0.0033
640.55	0.0033
640.819	0.0019
641.087	0.0033
641.356	0.0028
641.624	0.0026
641.892	0.0025
642.161	0.0033
642.429	0.0034
642.697	0.0022
642.965	0.0034
643.233	0.0029
643.501	0.0025
643.769	0.0018
644.037	0.0033
644.305	0.0025
644.572	0.0004
644.84	0.0015
645.108	0.002
645.375	0.0006
645.643	0.0021
645.91	0.0009
646.177	0.0037
646.445	0.0042
646.712	0.0051
646.979	0.0047
647.246	0.0037
647.513	0.0043
647.78	0.004
648.047	0.0043
648.314	0.0038
648.58	0.0035
648.847	0.0019
649.114	0.0018
649.38	0.0014
649.647	0.001
649.913	0.0014
650.18	0.0014
650.446	0.0018
650.712	0.003
650.978	0.0041
651.245	0.0039
651.511	0.0032
651.777	0.0026
652.043	0.0031
652.309	0.0022
652.574	0.0031
652.84	0.0019
653.106	0.001
653.371	0.0008
653.637	0.0014
653.903	0.0016
654.168	0.002
654.433	0.0031
654.699	0.0027
654.964	0.0038
655.229	0.0029
655.494	0.0034
655.759	0.0023
656.024	0.0004
656.289	-0
656.554	-0.0005
656.819	-0.0001
657.084	0.002
657.349	0.0033
657.613	0.0028
657.878	0.0027
658.142	0.003
658.407	0.003
658.671	0.0018
658.936	0.0021
659.2	0.0004
659.464	0.0012
659.728	0.0016
659.992	0.0016
660.256	0.001
660.52	0.0009
660.784	0.0014
661.048	0.0005
661.312	0.0007
661.575	0.0007
661.839	-0.0006
662.103	-0.0002
662.366	-0.0012
662.63	0.0004
662.893	0.0007
663.156	0.0008
663.42	0.0001
663.683	0.0002
663.946	0.0018
664.209	0.003
664.472	0.0027
664.735	0.0029
664.998	0.0017
665.261	0.0013
665.524	0
665.786	0.001
666.049	0.0017
666.312	0.0012
666.574	0.0013
666.837	0.0001
667.099	-0.0007
667.361	-0.0002
667.624	-0.0004
667.886	-0.0006
668.148	0.0006
668.41	0.0021
668.672	0.001
668.934	0.0017
669.196	0.0016
669.458	0.0016
669.72	0.0018
669.982	0.0011
670.243	0.0013
670.505	0.0016
670.766	0.0012
671.028	0.0024
671.289	0.0025
671.551	0.0013
671.812	0.0009
672.073	0.0013
672.334	0.001
672.596	0.0012
672.857	0.0001
673.118	0.0003
673.379	0.0003
673.639	-0.0007
673.9	0.0008
674.161	-0.0008
674.422	-0.0014
674.682	-0.0003
674.943	-0.0012
675.203	-0.0001
675.464	0.0008
675.724	0.0012
675.985	0.0016
676.245	0.002
676.505	0.0034
676.765	0.0031
677.025	0.0028
677.285	0.0026
677.545	0.0036
677.805	0.0034
678.065	0.0036
678.325	0.0037
678.585	0.0028
678.844	0.0023
679.104	0.0017
679.363	0.0026
679.623	0.0025
679.882	0.0026
680.142	0.0032
680.401	0.0034
680.66	0.0038
680.919	0.0035
681.178	0.0047
681.437	0.0048
681.696	0.0042
681.955	0.0038
682.214	0.0035
682.473	0.0042
682.732	0.0016
682.99	0.003
683.249	0.0035
683.508	0.0036
683.766	0.003
684.024	0.0026
684.283	0.003
684.541	0.0036
684.799	0.0041
685.058	0.004
685.316	0.0032
685.574	0.0037
685.832	0.0037
686.09	0.0031
686.348	0.0045
686.606	0.0045
686.863	0.0051
687.121	0.0054
687.379	0.0043
687.636	0.0045
687.894	0.0048
688.151	0.0051
688.409	0.0052
688.666	0.0034
688.923	0.0043
689.181	0.0039
689.438	0.0036
689.695	0.0028
689.952	0.001
690.209	0.0012
690.466	0.0007
690.723	0.0025
690.979	0.0018
691.236	0.0015
691.493	0.0018
691.75	0.0031
692.006	0.0036
692.263	0.0049
692.519	0.005
692.775	0.0028
693.032	0.0023
693.288	0.0033
693.544	0.0035
693.8	0.0029
694.056	0.0027
694.313	0.0029
694.568	0.0027
694.824	0.0034
695.08	0.0039
695.336	0.0048
695.592	0.003
695.847	0.0033
696.103	0.003
696.359	0.0033
696.614	0.0031
696.869	0.0026
697.125	0.0011
697.38	0.0005
697.635	0.0004
697.891	0.0009
698.146	0.0007
698.401	0.0022
698.656	0.0011
698.911	0.0022
699.166	0.0002
699.42	0.0006
699.675	0.0009
699.93	0.0001
700.185	0.001
700.439	0.0014
700.694	0.0012
700.948	0.0018
701.203	0.0019
701.457	0.0007
701.711	0.0017
701.965	0.0008
702.22	-0
702.474	0.0016
702.728	0.0004
702.982	0.0003
703.236	0.001
703.49	0.0014
703.743	0.0008
703.997	0.0011
704.251	0.0018
704.504	0.0022
704.758	0.0013
705.012	0.0012
705.265	0.0007
705.518	-0.0002
705.772	0.0003
706.025	0.0012
706.278	0.0002
706.531	0.0003
706.785	-0
707.038	0.0003
707.291	-0.0003
707.543	-0.0008
707.796	-0.0004
708.049	-0.0016
708.302	-0.0016
708.555	-0.0009
708.807	0
709.06	-0.0011
709.312	-0.0024
709.565	-0.0018
709.817	-0.0023
710.069	-0.0011
710.322	-0.0011
710.574	-0.0014
710.826	-0.001
711.078	-0.0007
711.33	-0.0007
711.582	-0.0006
711.834	0.0006
712.086	0.0005
712.338	0.0009
712.59	0.001
712.841	0.0017
713.093	0.0003
713.344	0.0001
713.596	0.0016
713.847	0.0014
714.099	0.0011
714.35	0.0016
714.601	0.0021
714.853	0.0027
715.104	0.0027
715.355	0.0015
715.606	0.002
715.857	0.0023
716.108	0.0028
716.359	0.0034
716.609	0.0024
716.86	0.0018
717.111	0.001
717.361	-0.0002
717.612	-0.0003
717.863	-0
718.113	-0.0001
718.363	0.001
718.614	0.0007
718.864	0.0012
719.114	0.0015
719.364	0.0013
719.614	0.0001
719.865	-0.0011
720.114	0.0007
720.364	0.0007
720.614	0.0018
720.864	0.0023
721.114	0.0019
721.364	0.0025
721.613	0.003
721.863	0.0035
722.112	0.0031
722.362	0.0036
722.611	0.0026
722.86	0.0016
723.11	0.0022
723.359	0.0025
723.608	0.003
723.857	0.0039
724.106	0.0053
724.355	0.0053
724.604	0.0064
724.853	0.0051
725.102	0.0036
725.351	0.0031
725.599	0.0028
725.848	0.0033
726.097	0.0026
726.345	0.0031
726.594	0.0019
726.842	0.0022
727.09	0.0015
727.339	0.0013
727.587	0.0011
727.835	0.001
728.083	-0.0003
728.331	-0.0004
728.579	-0.0016
728.827	-0.0008
729.075	-0.0011
729.323	0.0002
729.571	0.0004
729.818	0.0008
730.066	0.0011
730.314	0.0015
730.561	-0.0005
730.809	-0.0002
731.056	-0.0006
731.303	-0.0014
731.551	-0.0006
731.798	0.0001
732.045	-0.0002
732.292	-0.0007
732.539	0.0004
732.786	0.0007
733.033	0.0017
733.28	0.0012
733.527	0.0029
733.774	0.0023
734.021	0.0031
734.267	0.0039
734.514	0.0033
734.76	0.0033
735.007	0.0057
735.253	0.0057
735.5	0.0057
735.746	0.0059
735.992	0.0049
736.238	0.0043
736.485	0.0053
736.731	0.0052
736.977	0.0043
737.223	0.0032
737.469	0.004
737.715	0.0049
737.96	0.0059
738.206	0.0056
738.452	0.0061
738.697	0.0063
738.943	0.0049
739.189	0.0038
739.434	0.0012
739.679	0.0009
739.925	0.0011
740.17	0.0003
740.415	0.0007
740.66	0.0018
740.906	0.0014
741.151	0.0019
741.396	0.0018
741.641	0.0044
741.886	0.0048
742.13	0.0052
742.375	0.0052
742.62	0.006
742.865	0.005
743.109	0.0047
743.354	0.0045
743.598	0.0037
743.843	0.0043
744.087	0.0039
744.331	0.004
744.576	0.0041
744.82	0.0045
745.064	0.004
745.308	0.0029
745.552	0.0031
745.796	0.0038
746.04	0.0031
746.284	0.0023
746.528	0.0008
746.771	0.0019
747.015	0.0023
747.259	0.002
747.502	0.0016
747.746	0.0028
747.989	0.0026
748.233	0.0035
748.476	0.0032
748.719	0.0034
748.963	0.0037
749.206	0.0039
749.449	0.0036
749.692	0.0023
749.935	0.0041
750.178	0.0028
750.421	0.003
750.664	0.0037
750.906	0.0038
751.149	0.0027
751.392	0.003
751.635	0.0018
751.877	0.0002
752.12	0
752.362	0.0018
752.604	0.0007
752.847	0.0012
753.089	0.0019
753.331	0.0023
753.573	0.0012
753.816	0.002
754.058	0.0021
754.3	0.0021
754.542	0.0035
754.783	0.0026
755.025	0.0031
755.267	0.0012
755.509	0.001
755.75	0.0009
755.992	0.0015
756.234	0.0013
756.475	0.0001
756.716	0.0001
756.958	0.0006
757.199	0.0011
757.44	0.0019
757.682	0.0023
757.923	0.0009
758.164	0.0008
758.405	-0.0001
758.646	0.0013
758.887	0.0008
759.128	0.0009
759.369	0.0002
759.609	-0.0004
759.85	-0.0001
760.091	0.001
760.331	0.0005
760.572	0.0002
760.812	-0.0004
761.053	-0.0013
761.293	-0.0005
761.533	0.0001
761.774	0.0005
762.014	-0.0006
762.254	-0.0002
762.494	-0.0008
762.734	-0.0015
762.974	-0.0016
763.214	-0.0015
763.454	-0.0007
763.694	-0.0004
763.933	-0.0008
764.173	0.0002
764.413	0.0007
764.652	0.0001
764.892	0.0006
765.131	0.0014
765.371	0.0015
765.61	0.0021
765.849	0.0012
766.089	0.0017
766.328	0.0031
766.567	0.0027
766.806	0.0033
767.045	0.0036
767.284	0.0028
767.523	0.0031
767.762	0.0028
768.001	0.0029
768.239	0.0028
768.478	0.0016
768.717	0.0019
768.955	0.0024
769.194	0.0008
769.432	0.0018
769.671	0.0015
769.909	0.0018
770.148	0.002
770.386	0.0019
770.624	0.0027
770.862	0.0031
771.1	0.002
771.338	0.0022
771.576	0.0018
771.814	0.0013
772.052	0.0007
772.29	0.0017
772.528	0.0027
772.765	0.0018
773.003	0.0024
773.24	0.0024
773.478	0.0028
773.716	0.0032
773.953	0.004
774.19	0.0048
774.428	0.004
774.665	0.0046
774.902	0.0036
775.139	0.0032
775.376	0.0034
775.613	0.0024
775.85	0.0025
776.087	0.002
776.324	0.0022
776.561	0.0029
776.798	0.0036
777.034	0.005
777.271	0.0065
777.508	0.0063
777.744	0.0058
777.981	0.0051
778.217	0.0051
778.454	0.0044
778.69	0.0039
778.926	0.0044
779.162	0.0049
779.399	0.0037
779.635	0.0037
779.871	0.0028
780.107	0.0037
780.343	0.0033
780.579	0.0044
780.814	0.0036
781.05	0.0041
781.286	0.0038
781.522	0.0028
781.757	0.0044
781.993	0.0048
782.228	0.0045
782.464	0.0039
782.699	0.0035
782.934	0.0018
783.17	0.0016
783.405	0.0021
783.64	0.0018
783.875	0.0023
784.11	0.003
784.345	0.0035
784.58	0.0028
784.815	0.0033
785.05	0.0038
785.285	0.0019
785.52	0.0015
785.754	0.002
785.989	0.001
786.223	0.0007
786.458	0.0005
786.692	0.0006
786.927	-0.0009
787.161	0
787.396	-0.0006
787.63	-0.0008
787.864	-0.0012
788.098	-0.0008
788.332	-0.0007
788.566	0.0001
788.8	0.0002
789.034	0.0003
789.268	0.0014
789.502	0.0014
789.736	0.002
789.969	0.0024
790.203	0.0035
790.437	0.0026
790.67	0.0022
790.904	0.0025
791.137	0.0005
791.37	0.0012
791.604	-0.0001
791.837	0.0006
792.07	-0.0003
792.303	0.0014
792.537	-0.0001
792.77	-0.0001
793.003	0.0006
793.236	-0.0012
793.469	-0.0013
793.701	-0.0002
793.934	-0.0007
794.167	-0.0002
794.4	0.0002
794.632	0.0006
794.865	-0.0008
795.097	0.0005
795.33	0.0021
795.562	0.0005
795.795	0.0009
796.027	0.0011
796.259	0.0008
796.491	0.0001
796.724	0.0001
796.956	0.0016
797.188	0.0016
797.42	0.0008
797.652	0.0013
797.883	0.0004
798.115	-0.0001
798.347	-0.0015
798.579	-0.0017
798.81	-0.0026
799.042	-0.0019
799.274	-0.003
799.505	-0.0022
799.737	-0.0028
799.968	-0.0025
800.199	-0.001
800.431	-0.0029
800.662	-0.0008
800.893	-0.0014
801.124	-0.0003
801.355	0.0003
801.586	0.0007
801.817	0.0009
802.048	0.0008
802.279	0.001
802.51	0.0015
802.741	-0.0004
802.971	0.0007
803.202	-0.0008
803.433	-0.0014
803.663	-0.0009
803.894	-0.001
804.124	-0.0007
804.354	-0.0006
804.585	-0.0004
804.815	-0.0003
805.045	-0.0005
805.275	-0.0022
805.506	-0.055
805.736	0.1024
805.966	-0.0014
806.196	0.1379
