Data from 03 0.2 mM BQDS 0.4 mM K2Cr2O7 1 M H2SO4 5 min_Absorbance_22-07-42-222.txt Node
Date: Tue Dec 07 22:07:42 EST 2021
User: kwabilab-user
Spectrometer: HDX00518
Trigger mode: 0
Integration Time (sec): 5.000000E-2
Scans to average: 50
Nonlinearity correction enabled: false
Boxcar width: 0
Storing dark spectrum: false
XAxis mode: Wavelengths
Number of Pixels in Spectrum: 2068
>>>>>Begin Spectral Data<<<<<
195.27	-0.1008
195.642	0.021
196.014	0.0315
196.386	-0.0842
196.758	-0.0034
197.129	0.0009
197.501	0.0234
197.872	0.0798
198.244	0.0911
198.615	0.1066
198.986	0.0858
199.357	0.0962
199.728	0.0958
200.099	0.0892
200.47	0.0971
200.841	0.0965
201.212	0.0899
201.582	0.0962
201.953	0.0954
202.323	0.0888
202.694	0.0921
203.064	0.0874
203.434	0.0778
203.804	0.1035
204.174	0.086
204.544	0.0949
204.914	0.088
205.284	0.0969
205.653	0.103
206.023	0.1022
206.393	0.0965
206.762	0.1023
207.131	0.1035
207.501	0.0991
207.87	0.1207
208.239	0.1066
208.608	0.0996
208.977	0.1106
209.346	0.1178
209.715	0.1136
210.083	0.1201
210.452	0.1158
210.82	0.1099
211.189	0.1418
211.557	0.1273
211.925	0.1319
212.294	0.1497
212.662	0.15
213.03	0.1475
213.398	0.1421
213.766	0.1668
214.133	0.1632
214.501	0.1941
214.869	0.1902
215.236	0.1987
215.604	0.2194
215.971	0.233
216.338	0.2488
216.705	0.2609
217.072	0.2855
217.439	0.2874
217.806	0.3289
218.173	0.3462
218.54	0.3877
218.907	0.4199
219.273	0.4642
219.64	0.4851
220.006	0.5398
220.373	0.57
220.739	0.6018
221.105	0.6437
221.471	0.6781
221.837	0.7134
222.203	0.7595
222.569	0.8002
222.935	0.8294
223.3	0.8435
223.666	0.8833
224.031	0.9076
224.397	0.9241
224.762	0.9451
225.127	0.9695
225.493	0.989
225.858	0.9899
226.223	1.0039
226.588	1.0071
226.952	1.009
227.317	1.0196
227.682	1.02
228.046	1.0195
228.411	1.0234
228.775	1.0154
229.14	1.0131
229.504	1.0124
229.868	1.0081
230.232	1.0037
230.596	0.9895
230.96	0.987
231.324	0.9761
231.688	0.9669
232.052	0.9663
232.415	0.9595
232.779	0.9463
233.142	0.9386
233.505	0.9324
233.869	0.9223
234.232	0.9117
234.595	0.9065
234.958	0.8958
235.321	0.8841
235.684	0.8765
236.047	0.8636
236.409	0.8571
236.772	0.8489
237.134	0.8409
237.497	0.8303
237.859	0.8256
238.222	0.8179
238.584	0.8061
238.946	0.7998
239.308	0.7927
239.67	0.7837
240.032	0.7819
240.393	0.7725
240.755	0.7671
241.117	0.7606
241.478	0.7548
241.84	0.7483
242.201	0.7397
242.562	0.74
242.924	0.7305
243.285	0.7239
243.646	0.7219
244.007	0.718
244.368	0.7141
244.728	0.7093
245.089	0.7042
245.45	0.7022
245.81	0.699
246.171	0.6955
246.531	0.6907
246.891	0.6889
247.252	0.6866
247.612	0.6821
247.972	0.6791
248.332	0.6792
248.692	0.6761
249.051	0.6761
249.411	0.6722
249.771	0.6695
250.13	0.6676
250.49	0.6675
250.849	0.6665
251.208	0.6632
251.568	0.6629
251.927	0.6602
252.286	0.661
252.645	0.6595
253.004	0.655
253.363	0.6545
253.721	0.657
254.08	0.656
254.439	0.6524
254.797	0.6519
255.155	0.6508
255.514	0.6505
255.872	0.6507
256.23	0.6479
256.588	0.648
256.946	0.6475
257.304	0.6461
257.662	0.6463
258.02	0.6449
258.377	0.6449
258.735	0.6436
259.093	0.6429
259.45	0.643
259.807	0.6411
260.165	0.6389
260.522	0.6391
260.879	0.6387
261.236	0.6374
261.593	0.6372
261.95	0.6344
262.306	0.6341
262.663	0.6325
263.02	0.6296
263.376	0.6298
263.733	0.6248
264.089	0.6256
264.445	0.6229
264.802	0.6217
265.158	0.6205
265.514	0.62
265.87	0.6166
266.226	0.6144
266.581	0.6123
266.937	0.6093
267.293	0.6079
267.648	0.6056
268.004	0.6019
268.359	0.5996
268.714	0.597
269.07	0.5949
269.425	0.5923
269.78	0.5905
270.135	0.5863
270.49	0.5849
270.844	0.581
271.199	0.5779
271.554	0.5747
271.908	0.5712
272.263	0.5702
272.617	0.5669
272.972	0.5631
273.326	0.5584
273.68	0.5558
274.034	0.5516
274.388	0.5493
274.742	0.5455
275.096	0.5408
275.45	0.5371
275.803	0.5327
276.157	0.5289
276.51	0.5248
276.864	0.5214
277.217	0.5171
277.571	0.512
277.924	0.5071
278.277	0.5039
278.63	0.4982
278.983	0.4955
279.336	0.4909
279.688	0.4866
280.041	0.482
280.394	0.4766
280.746	0.4743
281.099	0.467
281.451	0.4626
281.803	0.4591
282.156	0.4528
282.508	0.4496
282.86	0.4438
283.212	0.4412
283.564	0.4368
283.916	0.4321
284.267	0.4275
284.619	0.4238
284.971	0.4192
285.322	0.4145
285.673	0.4106
286.025	0.4056
286.376	0.4009
286.727	0.397
287.078	0.3929
287.429	0.3887
287.78	0.3834
288.131	0.3787
288.482	0.3741
288.833	0.3707
289.183	0.3657
289.534	0.3625
289.884	0.3566
290.235	0.3529
290.585	0.3481
290.935	0.3442
291.285	0.3401
291.635	0.3359
291.985	0.3314
292.335	0.3279
292.685	0.3235
293.035	0.32
293.384	0.3152
293.734	0.3115
294.083	0.3061
294.433	0.3025
294.782	0.2988
295.131	0.2952
295.48	0.2914
295.829	0.2875
296.179	0.2825
296.527	0.2803
296.876	0.2766
297.225	0.2732
297.574	0.2689
297.922	0.2648
298.271	0.2618
298.619	0.2578
298.968	0.2558
299.316	0.2512
299.664	0.2485
300.012	0.2449
300.36	0.2408
300.708	0.2391
301.056	0.2357
301.404	0.2331
301.752	0.2299
302.099	0.2274
302.447	0.225
302.794	0.2224
303.142	0.2197
303.489	0.2163
303.836	0.2141
304.183	0.2127
304.531	0.2106
304.878	0.2083
305.224	0.2062
305.571	0.2047
305.918	0.2026
306.265	0.2004
306.611	0.1987
306.958	0.1973
307.304	0.1957
307.651	0.1947
307.997	0.193
308.343	0.1917
308.689	0.19
309.035	0.1888
309.381	0.1881
309.727	0.1866
310.073	0.1862
310.419	0.185
310.764	0.1849
311.11	0.1836
311.455	0.1832
311.801	0.182
312.146	0.1821
312.491	0.1812
312.837	0.1809
313.182	0.1808
313.527	0.1799
313.872	0.1796
314.216	0.1802
314.561	0.1796
314.906	0.1794
315.251	0.1798
315.595	0.1795
315.94	0.1798
316.284	0.1796
316.628	0.1794
316.972	0.1792
317.317	0.1797
317.661	0.1806
318.005	0.1811
318.348	0.1813
318.692	0.1814
319.036	0.1823
319.38	0.183
319.723	0.1837
320.067	0.1837
320.41	0.1843
320.754	0.1853
321.097	0.1859
321.44	0.1872
321.783	0.1875
322.126	0.1884
322.469	0.1902
322.812	0.1908
323.155	0.1922
323.498	0.1926
323.84	0.1941
324.183	0.1953
324.525	0.1966
324.868	0.1973
325.21	0.1995
325.552	0.2003
325.894	0.2013
326.236	0.2021
326.578	0.2033
326.92	0.205
327.262	0.206
327.604	0.2074
327.946	0.2089
328.287	0.2101
328.629	0.2115
328.97	0.2127
329.312	0.2139
329.653	0.2159
329.994	0.2168
330.335	0.2193
330.676	0.2201
331.017	0.2209
331.358	0.2225
331.699	0.2247
332.04	0.2264
332.38	0.2269
332.721	0.2292
333.061	0.2301
333.402	0.2319
333.742	0.2332
334.083	0.2348
334.423	0.2357
334.763	0.2363
335.103	0.2386
335.443	0.2394
335.783	0.2403
336.123	0.2414
336.462	0.2429
336.802	0.2441
337.141	0.2453
337.481	0.2467
337.82	0.247
338.16	0.248
338.499	0.2496
338.838	0.2504
339.177	0.2519
339.516	0.2529
339.855	0.2538
340.194	0.2557
340.533	0.2566
340.872	0.2571
341.21	0.2584
341.549	0.2594
341.887	0.2602
342.226	0.2608
342.564	0.2609
342.902	0.2608
343.24	0.2616
343.578	0.2622
343.916	0.2631
344.254	0.2629
344.592	0.2627
344.93	0.2631
345.268	0.2636
345.605	0.2634
345.943	0.2638
346.28	0.2644
346.618	0.2634
346.955	0.2653
347.292	0.2646
347.629	0.2656
347.966	0.2655
348.303	0.2646
348.64	0.265
348.977	0.2651
349.314	0.2654
349.65	0.266
349.987	0.2655
350.324	0.2645
350.66	0.264
350.996	0.2643
351.333	0.2635
351.669	0.2623
352.005	0.2629
352.341	0.2614
352.677	0.2602
353.013	0.2594
353.349	0.2587
353.685	0.2576
354.02	0.2561
354.356	0.2551
354.691	0.2534
355.027	0.253
355.362	0.2516
355.697	0.2505
356.033	0.2495
356.368	0.2486
356.703	0.2478
357.038	0.2474
357.373	0.2464
357.707	0.2453
358.042	0.2443
358.377	0.2429
358.711	0.2415
359.046	0.2404
359.38	0.2393
359.715	0.2386
360.049	0.2369
360.383	0.2358
360.717	0.2347
361.051	0.2325
361.385	0.2319
361.719	0.2297
362.053	0.2288
362.387	0.2253
362.72	0.2241
363.054	0.2219
363.387	0.2208
363.721	0.2187
364.054	0.2161
364.387	0.2142
364.721	0.2132
365.054	0.2117
365.387	0.2091
365.72	0.2075
366.053	0.2055
366.385	0.2033
366.718	0.2032
367.051	0.1999
367.383	0.1997
367.716	0.1978
368.048	0.197
368.381	0.1951
368.713	0.194
369.045	0.1926
369.377	0.1909
369.709	0.1892
370.041	0.1871
370.373	0.1866
370.705	0.1854
371.037	0.1819
371.368	0.1809
371.7	0.1797
372.031	0.1775
372.363	0.1763
372.694	0.1737
373.025	0.1714
373.356	0.1697
373.688	0.1671
374.019	0.1651
374.35	0.1626
374.68	0.1613
375.011	0.1586
375.342	0.1566
375.673	0.1549
376.003	0.1525
376.334	0.151
376.664	0.149
376.995	0.1472
377.325	0.1459
377.655	0.1449
377.985	0.1434
378.315	0.1418
378.645	0.1397
378.975	0.1387
379.305	0.137
379.635	0.1361
379.964	0.1343
380.294	0.1331
380.623	0.1314
380.953	0.1306
381.282	0.1285
381.611	0.1272
381.941	0.1257
382.27	0.124
382.599	0.1225
382.928	0.1207
383.257	0.1193
383.585	0.1184
383.914	0.1166
384.243	0.1152
384.571	0.1124
384.9	0.1111
385.228	0.1092
385.557	0.1077
385.885	0.1064
386.213	0.1043
386.541	0.1022
386.869	0.1008
387.197	0.0991
387.525	0.0971
387.853	0.0957
388.181	0.0944
388.508	0.0936
388.836	0.0924
389.164	0.0905
389.491	0.0897
389.818	0.0879
390.146	0.0869
390.473	0.0848
390.8	0.0844
391.127	0.0832
391.454	0.0817
391.781	0.0809
392.108	0.0795
392.435	0.0782
392.761	0.0773
393.088	0.0768
393.415	0.0758
393.741	0.0755
394.067	0.074
394.394	0.0734
394.72	0.0723
395.046	0.0713
395.372	0.0703
395.698	0.0688
396.024	0.0681
396.35	0.0671
396.676	0.0669
397.001	0.066
397.327	0.0647
397.653	0.0638
397.978	0.0628
398.303	0.062
398.629	0.061
398.954	0.0603
399.279	0.0596
399.604	0.0588
399.929	0.0581
400.254	0.0574
400.579	0.057
400.904	0.056
401.229	0.0551
401.553	0.054
401.878	0.0534
402.202	0.0534
402.527	0.0533
402.851	0.0524
403.175	0.0518
403.5	0.0517
403.824	0.0517
404.148	0.0505
404.472	0.0507
404.796	0.0494
405.119	0.0493
405.443	0.0487
405.767	0.0488
406.09	0.0482
406.414	0.0485
406.737	0.0475
407.061	0.0481
407.384	0.0479
407.707	0.0464
408.03	0.047
408.353	0.0478
408.676	0.0466
408.999	0.0461
409.322	0.0471
409.645	0.047
409.968	0.046
410.29	0.0459
410.613	0.0457
410.935	0.0455
411.258	0.0464
411.58	0.0456
411.902	0.046
412.224	0.0457
412.546	0.0455
412.868	0.0451
413.19	0.0455
413.512	0.0452
413.834	0.0459
414.156	0.0458
414.477	0.0452
414.799	0.0452
415.121	0.046
415.442	0.0456
415.763	0.0457
416.085	0.0453
416.406	0.0456
416.727	0.0452
417.048	0.045
417.369	0.0448
417.69	0.045
418.011	0.0452
418.331	0.0454
418.652	0.045
418.973	0.0451
419.293	0.0448
419.614	0.0455
419.934	0.0449
420.254	0.0457
420.574	0.0447
420.895	0.0454
421.215	0.0447
421.535	0.0449
421.855	0.045
422.174	0.0446
422.494	0.0455
422.814	0.0459
423.134	0.0461
423.453	0.0455
423.773	0.0458
424.092	0.045
424.411	0.0452
424.731	0.0456
425.05	0.0453
425.369	0.0464
425.688	0.0456
426.007	0.0457
426.326	0.046
426.644	0.0466
426.963	0.0461
427.282	0.0465
427.6	0.0461
427.919	0.0464
428.237	0.0464
428.556	0.0466
428.874	0.0464
429.192	0.0458
429.51	0.0464
429.828	0.0464
430.146	0.0472
430.464	0.0468
430.782	0.0464
431.1	0.0474
431.418	0.0467
431.735	0.0466
432.053	0.0467
432.37	0.0466
432.688	0.0464
433.005	0.0467
433.322	0.047
433.639	0.0465
433.957	0.0464
434.274	0.047
434.591	0.0473
434.907	0.0475
435.224	0.047
435.541	0.0473
435.858	0.0483
436.174	0.0476
436.491	0.0471
436.807	0.0471
437.124	0.0462
437.44	0.046
437.756	0.047
438.072	0.0464
438.388	0.0473
438.704	0.0469
439.02	0.0464
439.336	0.0466
439.652	0.0465
439.968	0.047
440.283	0.0465
440.599	0.0469
440.914	0.0471
441.23	0.0463
441.545	0.0466
441.86	0.0465
442.175	0.0463
442.491	0.0463
442.806	0.0458
443.121	0.0465
443.435	0.0461
443.75	0.0463
444.065	0.0463
444.38	0.0464
444.694	0.0458
445.009	0.0465
445.323	0.0458
445.638	0.0461
445.952	0.0454
446.266	0.0454
446.58	0.046
446.894	0.0457
447.208	0.0462
447.522	0.046
447.836	0.0443
448.15	0.0449
448.464	0.0443
448.777	0.0455
449.091	0.0441
449.404	0.045
449.718	0.0452
450.031	0.0449
450.345	0.0446
450.658	0.0443
450.971	0.0444
451.284	0.0438
451.597	0.0443
451.91	0.0445
452.223	0.0442
452.535	0.0443
452.848	0.0444
453.161	0.044
453.473	0.0443
453.786	0.044
454.098	0.0432
454.411	0.0438
454.723	0.0429
455.035	0.0431
455.347	0.0429
455.659	0.0434
455.971	0.0433
456.283	0.0431
456.595	0.0427
456.907	0.0431
457.218	0.0433
457.53	0.0425
457.841	0.0413
458.153	0.0415
458.464	0.042
458.776	0.0411
459.087	0.0408
459.398	0.0414
459.709	0.0407
460.02	0.0404
460.331	0.0399
460.642	0.0403
460.953	0.0404
461.263	0.0405
461.574	0.0406
461.885	0.0396
462.195	0.0402
462.506	0.04
462.816	0.0395
463.126	0.0388
463.437	0.0391
463.747	0.038
464.057	0.0385
464.367	0.0384
464.677	0.0379
464.987	0.0377
465.296	0.0376
465.606	0.0371
465.916	0.0367
466.225	0.0365
466.535	0.0369
466.844	0.036
467.154	0.0365
467.463	0.0359
467.772	0.0366
468.081	0.0363
468.39	0.0357
468.699	0.0355
469.008	0.0361
469.317	0.0358
469.626	0.035
469.935	0.0345
470.243	0.0344
470.552	0.0351
470.86	0.0344
471.169	0.0337
471.477	0.0339
471.785	0.0339
472.093	0.0336
472.402	0.0327
472.71	0.0326
473.018	0.0325
473.326	0.0316
473.633	0.0325
473.941	0.0323
474.249	0.0321
474.556	0.0315
474.864	0.0309
475.171	0.0306
475.479	0.0312
475.786	0.0313
476.094	0.0312
476.401	0.0307
476.708	0.0304
477.015	0.0303
477.322	0.03
477.629	0.0301
477.936	0.0294
478.242	0.0297
478.549	0.029
478.856	0.0284
479.162	0.0293
479.469	0.0286
479.775	0.0288
480.081	0.0273
480.388	0.0274
480.694	0.0266
481	0.0272
481.306	0.0271
481.612	0.0272
481.918	0.0263
482.224	0.027
482.53	0.0265
482.835	0.0264
483.141	0.0249
483.446	0.0251
483.752	0.0255
484.057	0.0245
484.363	0.0245
484.668	0.0239
484.973	0.024
485.278	0.0243
485.583	0.0231
485.888	0.0232
486.193	0.0226
486.498	0.0228
486.803	0.0234
487.107	0.0225
487.412	0.0228
487.717	0.0225
488.021	0.0224
488.325	0.0216
488.63	0.021
488.934	0.0209
489.238	0.0216
489.542	0.0213
489.846	0.0204
490.15	0.0216
490.454	0.0215
490.758	0.0206
491.062	0.0203
491.366	0.0203
491.669	0.0205
491.973	0.0201
492.276	0.0197
492.58	0.0183
492.883	0.0194
493.186	0.0194
493.489	0.0195
493.792	0.0183
494.096	0.0184
494.399	0.0187
494.701	0.0186
495.004	0.018
495.307	0.0179
495.61	0.0169
495.912	0.0168
496.215	0.0166
496.517	0.0169
496.82	0.0167
497.122	0.0171
497.424	0.0161
497.727	0.0165
498.029	0.0162
498.331	0.0166
498.633	0.0167
498.935	0.0155
499.237	0.0162
499.538	0.0159
499.84	0.0152
500.142	0.0153
500.443	0.0152
500.745	0.0144
501.046	0.0153
501.348	0.0136
501.649	0.0152
501.95	0.0136
502.251	0.0137
502.552	0.0132
502.853	0.0135
503.154	0.0129
503.455	0.0126
503.756	0.0125
504.057	0.0137
504.357	0.0125
504.658	0.0123
504.958	0.0123
505.259	0.0132
505.559	0.0128
505.859	0.0119
506.16	0.0121
506.46	0.012
506.76	0.0126
507.06	0.0112
507.36	0.0125
507.66	0.0118
507.96	0.0115
508.259	0.0096
508.559	0.0099
508.859	0.0109
509.158	0.0107
509.457	0.0106
509.757	0.0118
510.056	0.0105
510.355	0.0097
510.655	0.0088
510.954	0.0093
511.253	0.0105
511.552	0.0101
511.851	0.0098
512.149	0.0092
512.448	0.0091
512.747	0.0097
513.045	0.0088
513.344	0.0092
513.642	0.0097
513.941	0.0089
514.239	0.0089
514.537	0.0077
514.836	0.0085
515.134	0.0082
515.432	0.0093
515.73	0.0089
516.028	0.0069
516.326	0.0082
516.623	0.008
516.921	0.0079
517.219	0.0088
517.516	0.0083
517.814	0.0083
518.111	0.0078
518.409	0.0097
518.706	0.0078
519.003	0.0083
519.3	0.0065
519.597	0.0069
519.894	0.0063
520.191	0.0082
520.488	0.0072
520.785	0.0058
521.082	0.0075
521.378	0.0072
521.675	0.0056
521.971	0.0062
522.268	0.0065
522.564	0.0072
522.861	0.0062
523.157	0.0053
523.453	0.0063
523.749	0.0063
524.045	0.0069
524.341	0.0064
524.637	0.005
524.933	0.0061
525.229	0.0055
525.524	0.0051
525.82	0.0062
526.115	0.0048
526.411	0.0055
526.706	0.0056
527.002	0.0051
527.297	0.0037
527.592	0.0062
527.887	0.0061
528.182	0.0053
528.477	0.0069
528.772	0.0053
529.067	0.0057
529.362	0.0052
529.657	0.0056
529.951	0.005
530.246	0.0048
530.54	0.0044
530.835	0.0045
531.129	0.0033
531.423	0.0053
531.718	0.0044
532.012	0.0048
532.306	0.0038
532.6	0.0045
532.894	0.0037
533.188	0.0041
533.482	0.0037
533.775	0.0048
534.069	0.0039
534.363	0.0034
534.656	0.0038
534.95	0.003
535.243	0.0032
535.536	0.0044
535.83	0.0041
536.123	0.0035
536.416	0.0045
536.709	0.0033
537.002	0.0043
537.295	0.0043
537.588	0.0034
537.881	0.0035
538.173	0.0037
538.466	0.0036
538.759	0.0027
539.051	0.0033
539.344	0.0035
539.636	0.0025
539.928	0.0034
540.22	0.0042
540.513	0.0037
540.805	0.0031
541.097	0.0033
541.389	0.0036
541.681	0.0033
541.972	0.0043
542.264	0.0032
542.556	0.0038
542.847	0.0033
543.139	0.0033
543.431	0.005
543.722	0.0039
544.013	0.0042
544.305	0.0043
544.596	0.0049
544.887	0.0038
545.178	0.0045
545.469	0.0039
545.76	0.0042
546.051	0.0045
546.342	0.0046
546.632	0.0031
546.923	0.0043
547.214	0.0037
547.504	0.0042
547.795	0.0035
548.085	0.0045
548.375	0.0034
548.666	0.0042
548.956	0.0032
549.246	0.0043
549.536	0.0031
549.826	0.0045
550.116	0.0038
550.406	0.0034
550.695	0.0045
550.985	0.0039
551.275	0.0031
551.564	0.003
551.854	0.0035
552.143	0.0034
552.433	0.003
552.722	0.0033
553.011	0.0025
553.3	0.003
553.589	0.0025
553.879	0.0024
554.167	0.0023
554.456	0.0028
554.745	0.0019
555.034	0.0022
555.323	0.0012
555.611	0.0021
555.9	0.0034
556.188	0.0028
556.477	0.0026
556.765	0.0024
557.053	0.0025
557.342	0.0008
557.63	0.0026
557.918	0.0017
558.206	0.002
558.494	0.0039
558.782	0.0024
559.069	0.0025
559.357	0.0019
559.645	0.0024
559.932	0.0022
560.22	0.0026
560.507	0.0029
560.795	0.002
561.082	0.0021
561.37	0.0033
561.657	0.0027
561.944	0.0034
562.231	0.0017
562.518	0.0019
562.805	0.0038
563.092	0.0032
563.379	0.0027
563.665	0.0021
563.952	0.0036
564.239	0.0034
564.525	0.0031
564.811	0.0036
565.098	0.0032
565.384	0.0034
565.67	0.0029
565.957	0.0025
566.243	0.0032
566.529	0.0028
566.815	0.0037
567.101	0.002
567.387	0.0018
567.672	0.0021
567.958	0.0027
568.244	0.0038
568.529	0.003
568.815	0.0026
569.1	0.0027
569.386	0.0024
569.671	0.0026
569.956	0.0027
570.242	0.0025
570.527	0.0031
570.812	0.0023
571.097	0.0028
571.382	0.0027
571.666	0.0025
571.951	0.0025
572.236	0.0033
572.521	0.0021
572.805	0.0026
573.09	0.0024
573.374	0.0023
573.659	0.0025
573.943	0.0028
574.227	0.0026
574.511	0.0035
574.795	0.0027
575.079	0.0022
575.363	0.0027
575.647	0.0029
575.931	0.0028
576.215	0.0033
576.499	0.002
576.782	0.0029
577.066	0.003
577.349	0.0029
577.633	0.0036
577.916	0.0032
578.2	0.0042
578.483	0.0037
578.766	0.003
579.049	0.004
579.332	0.0032
579.615	0.0031
579.898	0.0031
580.181	0.0031
580.464	0.0032
580.746	0.0023
581.029	0.0033
581.312	0.0021
581.594	0.0026
581.877	0.0037
582.159	0.0042
582.441	0.0034
582.724	0.0026
583.006	0.0025
583.288	0.0024
583.57	0.0032
583.852	0.0019
584.134	0.0024
584.416	0.0033
584.697	0.0036
584.979	0.0032
585.261	0.0032
585.542	0.0024
585.824	0.0029
586.105	0.0027
586.387	0.0023
586.668	0.0025
586.949	0.0028
587.231	0.0026
587.512	0.0034
587.793	0.0032
588.074	0.0036
588.355	0.0036
588.636	0.0037
588.916	0.0035
589.197	0.0033
589.478	0.0023
589.758	0.0023
590.039	0.0034
590.319	0.0035
590.6	0.0028
590.88	0.0028
591.16	0.0034
591.441	0.0034
591.721	0.003
592.001	0.003
592.281	0.0034
592.561	0.0032
592.841	0.0034
593.12	0.0027
593.4	0.0025
593.68	0.0031
593.959	0.0026
594.239	0.0032
594.518	0.0022
594.798	0.0021
595.077	0.002
595.356	0.0026
595.636	0.0025
595.915	0.003
596.194	0.0025
596.473	0.0017
596.752	0.0023
597.031	0.0029
597.31	0.002
597.588	0.0018
597.867	0.0018
598.146	0.0028
598.424	0.0018
598.703	0.0028
598.981	0.002
599.259	0.0029
599.538	0.0034
599.816	0.0037
600.094	0.0028
600.372	0.0032
600.65	0.0032
600.928	0.0034
601.206	0.0036
601.484	0.0034
601.762	0.0033
602.04	0.0025
602.317	0.0032
602.595	0.0021
602.872	0.002
603.15	0.0021
603.427	0.0014
603.704	0.0015
603.982	0.0022
604.259	0.0018
604.536	0.0024
604.813	0.0018
605.09	0.003
605.367	0.0015
605.644	0.0017
605.921	0.0026
606.197	0.0028
606.474	0.0025
606.751	0.003
607.027	0.0022
607.304	0.0023
607.58	0.0026
607.856	0.0025
608.133	0.0034
608.409	0.0027
608.685	0.0014
608.961	0.0029
609.237	0.0022
609.513	0.0019
609.789	0.0022
610.065	0.0012
610.341	0.002
610.616	0.0022
610.892	0.003
611.167	0.0034
611.443	0.002
611.718	0.0021
611.994	0.0026
612.269	0.0023
612.544	0.0019
612.819	0.0018
613.095	0.0024
613.37	0.0024
613.645	0.0022
613.919	0.0021
614.194	0.0025
614.469	0.0027
614.744	0.0018
615.019	0.0016
615.293	0.0017
615.568	0.0013
615.842	0.0017
616.116	0.002
616.391	0.0019
616.665	0.0026
616.939	0.0019
617.213	0.0018
617.488	0.0014
617.762	0.0024
618.035	0.0022
618.309	0.0021
618.583	0.0016
618.857	0.0016
619.131	0.0017
619.404	0.0012
619.678	0.0018
619.951	0.0006
620.225	0.001
620.498	0.0011
620.771	0.0016
621.045	0.0018
621.318	0.0003
621.591	0.0004
621.864	0.0001
622.137	-0.0003
622.41	0.0004
622.683	0.0005
622.956	0.001
623.228	0.0018
623.501	0.0022
623.774	0.0023
624.046	0.0023
624.319	0.0016
624.591	0.0008
624.863	0.002
625.136	0.0015
625.408	0.0012
625.68	0.0019
625.952	0.0018
626.224	0.0009
626.496	0.001
626.768	0.0007
627.04	0.0014
627.311	0.0022
627.583	0.0023
627.855	0.0014
628.126	0.0019
628.398	0.0014
628.669	0.0006
628.941	0.0002
629.212	0.0004
629.483	0.0008
629.755	0.0017
630.026	0.0014
630.297	0.001
630.568	0.0005
630.839	0
631.11	-0.0006
631.38	-0.0022
631.651	-0.0012
631.922	-0.0015
632.192	-0.0021
632.463	-0.0022
632.733	-0.0015
633.004	-0.0012
633.274	-0.0019
633.545	-0.0013
633.815	-0.0003
634.085	0.0005
634.355	0.0003
634.625	0.0015
634.895	0
635.165	-0.0016
635.435	0.0002
635.705	0.0003
635.974	0
636.244	0.0003
636.514	0.0018
636.783	0.0013
637.053	0.0018
637.322	0.001
637.591	0.0022
637.861	0.0009
638.13	0.0009
638.399	0.0003
638.668	0.0013
638.937	-0.0008
639.206	0.0006
639.475	0.0009
639.744	0.0009
640.013	0.002
640.281	0.0017
640.55	0.0021
640.819	0.0017
641.087	0.0013
641.356	0.0001
641.624	0.001
641.892	0.0008
642.161	0.0004
642.429	0.0013
642.697	-0.0004
642.965	0.0008
643.233	0.0021
643.501	0.0002
643.769	0.0006
644.037	0.0002
644.305	0.0003
644.572	-0.0011
644.84	0.0003
645.108	0.0001
645.375	0.0003
645.643	0.0009
645.91	-0.0001
646.177	0.0019
646.445	0.0032
646.712	0.0035
646.979	0.0028
647.246	0.0032
647.513	0.0023
647.78	0.0026
648.047	0.0038
648.314	0.0021
648.58	0.0026
648.847	0.0011
649.114	-0.0001
649.38	-0.0013
649.647	0.0007
649.913	-0.0006
650.18	0.0006
650.446	0.0002
650.712	0.0016
650.978	0.0018
651.245	0.0023
651.511	0.0014
651.777	0.0007
652.043	0.0013
652.309	0.001
652.574	0.0015
652.84	0.0002
653.106	-0.0003
653.371	-0.0014
653.637	-0.0001
653.903	-0.0004
654.168	0.0001
654.433	0.0001
654.699	0.001
654.964	0.0016
655.229	0.0007
655.494	0.0011
655.759	0.0011
656.024	0.0012
656.289	-0
656.554	0.0016
656.819	0.0005
657.084	0.0005
657.349	0.001
657.613	0.0011
657.878	0.0003
658.142	0.0003
658.407	0.0003
658.671	0
658.936	-0.0012
659.2	-0.0011
659.464	-0.0009
659.728	-0.0011
659.992	-0.0011
660.256	-0.0011
660.52	-0.0011
660.784	-0.0014
661.048	-0.0009
661.312	-0.0015
661.575	-0.002
661.839	-0.0033
662.103	-0.0028
662.366	-0.0028
662.63	-0.0019
662.893	-0.0009
663.156	-0.0016
663.42	-0.001
663.683	-0.0007
663.946	-0.0005
664.209	0.0011
664.472	0.0005
664.735	0.0008
664.998	-0.0007
665.261	-0.0011
665.524	-0.001
665.786	-0.0004
666.049	-0.0008
666.312	-0.0015
666.574	-0.0016
666.837	-0.0016
667.099	-0.003
667.361	-0.0034
667.624	-0.003
667.886	-0.0022
668.148	-0.001
668.41	0.0004
668.672	-0.0009
668.934	-0.0013
669.196	-0.001
669.458	-0.0007
669.72	-0.0004
669.982	-0.0008
670.243	-0.0001
670.505	-0.0008
670.766	-0.0013
671.028	-0
671.289	-0.0009
671.551	-0.0004
671.812	-0.0008
672.073	0.0001
672.334	-0.0008
672.596	-0.0006
672.857	-0.0013
673.118	-0.0011
673.379	-0.0016
673.639	-0.0017
673.9	-0.0016
674.161	-0.0023
674.422	-0.0026
674.682	-0.0024
674.943	-0.003
675.203	-0.0016
675.464	-0.0016
675.724	-0.0006
675.985	-0.0008
676.245	0.0004
676.505	0.0017
676.765	0.0007
677.025	0.0009
677.285	0.0012
677.545	0.001
677.805	0.0014
678.065	0.0018
678.325	0.0014
678.585	0.0011
678.844	0.0008
679.104	0.0007
679.363	0.0007
679.623	0.0011
679.882	0.0015
680.142	0.0018
680.401	0.0019
680.66	0.002
680.919	0.002
681.178	0.003
681.437	0.0034
681.696	0.003
681.955	0.0025
682.214	0.0026
682.473	0.0022
682.732	0.0006
682.99	0.0021
683.249	0.0024
683.508	0.0031
683.766	0.002
684.024	0.0029
684.283	0.0021
684.541	0.0023
684.799	0.0026
685.058	0.002
685.316	0.0022
685.574	0.003
685.832	0.0031
686.09	0.0032
686.348	0.0039
686.606	0.0037
686.863	0.0038
687.121	0.0031
687.379	0.0027
687.636	0.0027
687.894	0.0025
688.151	0.0034
688.409	0.0023
688.666	0.0007
688.923	0.0016
689.181	0.0007
689.438	0.0007
689.695	0.0011
689.952	-0
690.209	-0.0005
690.466	-0.0008
690.723	0.0007
690.979	0.0005
691.236	0.0001
691.493	0.0008
691.75	0.0014
692.006	0.0023
692.263	0.0029
692.519	0.0037
692.775	0.0026
693.032	0.0009
693.288	0.003
693.544	0.002
693.8	0.002
694.056	0.0025
694.313	0.001
694.568	0.0012
694.824	0.0013
695.08	0.002
695.336	0.0026
695.592	0.0021
695.847	0.002
696.103	0.0012
696.359	0.0012
696.614	0.0001
696.869	-0.0002
697.125	0.0001
697.38	-0
697.635	-0.0014
697.891	-0.0009
698.146	-0.0016
698.401	-0.0011
698.656	-0.0026
698.911	-0.0006
699.166	-0.0022
699.42	-0.0011
699.675	-0.002
699.93	-0.0029
700.185	-0.002
700.439	-0.0002
700.694	-0.0009
700.948	-0
701.203	-0.0003
701.457	-0.0009
701.711	-0.0007
701.965	-0.0014
702.22	-0.0008
702.474	0.0004
702.728	-0.0004
702.982	0.0001
703.236	-0.0004
703.49	0
703.743	-0.0001
703.997	0.0003
704.251	0
704.504	0.0004
704.758	-0.0006
705.012	-0.0005
705.265	-0.0012
705.518	-0.0022
705.772	-0.0025
706.025	-0.0015
706.278	-0.0016
706.531	-0.0008
706.785	-0.002
707.038	-0.0005
707.291	-0.0013
707.543	-0.0017
707.796	-0.0022
708.049	-0.0025
708.302	-0.0029
708.555	-0.0025
708.807	-0.0017
709.06	-0.0023
709.312	-0.004
709.565	-0.0032
709.817	-0.0033
710.069	-0.0029
710.322	-0.0031
710.574	-0.0026
710.826	-0.0024
711.078	-0.002
711.33	-0.0024
711.582	-0.0032
711.834	-0.0023
712.086	-0.0025
712.338	-0.0014
712.59	-0.0016
712.841	-0.0012
713.093	-0.0011
713.344	-0.0018
713.596	-0.0004
713.847	-0.0005
714.099	-0.001
714.35	-0.0001
714.601	0.0004
714.853	0.0012
715.104	0.0006
715.355	-0.0002
715.606	0.0003
715.857	0.0004
716.108	0.0009
716.359	0.0017
716.609	0.0008
716.86	-0.0007
717.111	-0.0014
717.361	-0.0022
717.612	-0.0012
717.863	-0.0021
718.113	-0.002
718.363	-0.0009
718.614	-0.0011
718.864	-0.002
719.114	-0.0008
719.364	-0.0001
719.614	-0.0016
719.865	-0.0028
720.114	-0.0021
720.364	-0.0022
720.614	-0.0011
720.864	0
721.114	0
721.364	0.0006
721.613	0.0013
721.863	0.0019
722.112	0.0018
722.362	0.0012
722.611	0.0008
722.86	0.0005
723.11	0.0003
723.359	-0
723.608	0.0014
723.857	0.002
724.106	0.0036
724.355	0.0031
724.604	0.0033
724.853	0.0019
725.102	0.002
725.351	0.0014
725.599	0.0015
725.848	0.0017
726.097	0.0014
726.345	0.001
726.594	0.0006
726.842	-0.0002
727.09	-0.0003
727.339	-0.0001
727.587	-0.0013
727.835	-0.0014
728.083	-0.0018
728.331	-0.0024
728.579	-0.0033
728.827	-0.0023
729.075	-0.0034
729.323	-0.0024
729.571	-0.0025
729.818	-0.0006
730.066	-0.0007
730.314	-0.0007
730.561	-0.0018
730.809	-0.0024
731.056	-0.0006
731.303	-0.0022
731.551	-0.0018
731.798	-0.0014
732.045	-0.0015
732.292	-0.0023
732.539	-0.0019
732.786	-0.0016
733.033	-0.0002
733.28	-0.0002
733.527	0.0018
733.774	0.0002
734.021	0.0017
734.267	0.002
734.514	0.0021
734.76	0.0022
735.007	0.0028
735.253	0.0047
735.5	0.0038
735.746	0.0038
735.992	0.003
736.238	0.0021
736.485	0.0027
736.731	0.0022
736.977	0.002
737.223	0.0018
737.469	0.0023
737.715	0.0017
737.96	0.0017
738.206	0.0022
738.452	0.0032
738.697	0.0021
738.943	0.0026
739.189	0.0007
739.434	-0.0001
739.679	-0.0007
739.925	-0.0015
740.17	-0.0024
740.415	-0.0023
740.66	-0.001
740.906	-0.0009
741.151	-0.0012
741.396	-0.0007
741.641	0.0017
741.886	0.0019
742.13	0.0024
742.375	0.0029
742.62	0.0044
742.865	0.0041
743.109	0.0027
743.354	0.0026
743.598	0.0026
743.843	0.0023
744.087	0.0023
744.331	0.0025
744.576	0.0016
744.82	0.0031
745.064	0.0021
745.308	0.0027
745.552	0.0018
745.796	0.0019
746.04	0.0015
746.284	0.0016
746.528	0
746.771	0.0006
747.015	0.0003
747.259	0.0006
747.502	0.0001
747.746	0.0013
747.989	0.0012
748.233	0.0017
748.476	0.0018
748.719	0.0018
748.963	0.0022
749.206	0.0005
749.449	0.0012
749.692	0.0002
749.935	0.0015
750.178	0.0006
750.421	0.001
750.664	0.0015
750.906	0.0017
751.149	0.0009
751.392	0.0007
751.635	-0.0002
751.877	-0.001
752.12	-0.0015
752.362	-0.0008
752.604	-0.0013
752.847	-0.0007
753.089	-0
753.331	-0.0012
753.573	-0
753.816	-0.0001
754.058	0.0002
754.3	0.0005
754.542	0.0003
754.783	0.0004
755.025	0.0004
755.267	-0.0014
755.509	-0.0013
755.75	-0.0008
755.992	0.0009
756.234	-0.0004
756.475	-0.0007
756.716	-0.0005
756.958	-0.0008
757.199	-0
757.44	0.0016
757.682	0.0015
757.923	0.0009
758.164	0.0006
758.405	-0.0002
758.646	-0.0004
758.887	-0.0002
759.128	-0.0008
759.369	-0.0013
759.609	-0.0009
759.85	-0.0013
760.091	-0.0002
760.331	-0.001
760.572	-0.0011
760.812	-0.0014
761.053	-0.0025
761.293	-0.0019
761.533	-0.0007
761.774	-0.0022
762.014	-0.0031
762.254	-0.0022
762.494	-0.0036
762.734	-0.0037
762.974	-0.003
763.214	-0.0031
763.454	-0.003
763.694	-0.0019
763.933	-0.0028
764.173	-0.0018
764.413	-0.0014
764.652	-0.0007
764.892	-0.0004
765.131	-0.0005
765.371	-0.0004
765.61	0.0003
765.849	-0.0007
766.089	0.0003
766.328	0.0013
766.567	-0.0002
766.806	0.0003
767.045	0.0003
767.284	-0.0004
767.523	0.0006
767.762	0.0004
768.001	-0.0002
768.239	0.0006
768.478	-0.0003
768.717	-0.0009
768.955	-0.0001
769.194	-0.0009
769.432	-0.0014
769.671	-0.0004
769.909	-0.0015
770.148	-0.0004
770.386	-0.0005
770.624	-0.001
770.862	0.0005
771.1	-0.0008
771.338	-0.0006
771.576	-0.0004
771.814	-0.0013
772.052	-0.0012
772.29	-0.0003
772.528	0.0003
772.765	-0.0002
773.003	-0.0001
773.24	0.0002
773.478	0.001
773.716	0.0011
773.953	0.0012
774.19	0.0029
774.428	0.002
774.665	0.0018
774.902	0.0022
775.139	0.0004
775.376	0.0004
775.613	0.0001
775.85	0.0006
776.087	-0.0006
776.324	-0.0011
776.561	0.0004
776.798	0.0015
777.034	0.0023
777.271	0.0038
777.508	0.004
777.744	0.0026
777.981	0.0019
778.217	0.0021
778.454	0.0018
778.69	0.002
778.926	0.0019
779.162	0.0015
779.399	0.0001
779.635	0.0006
779.871	-0.0006
780.107	0.0002
780.343	-0.0002
780.579	0.0007
780.814	-0
781.05	0.0001
781.286	0.0007
781.522	0.0004
781.757	0.0016
781.993	0.0009
782.228	0.0013
782.464	0.0012
782.699	0.0005
782.934	-0.0004
783.17	0.0002
783.405	-0
783.64	-0.0003
783.875	0.0006
784.11	0.0009
784.345	0.0017
784.58	0.0018
784.815	0.0012
785.05	0.0011
785.285	0.0004
785.52	-0
785.754	0.0011
785.989	-0.0003
786.223	-0.0015
786.458	-0.0016
786.692	-0.0022
786.927	-0.0034
787.161	-0.0029
787.396	-0.004
787.63	-0.0038
787.864	-0.0035
788.098	-0.0026
788.332	-0.002
788.566	-0.0009
788.8	-0.0019
789.034	-0.0009
789.268	-0.0011
789.502	-0.0006
789.736	0.0006
789.969	0.0014
790.203	0.0015
790.437	0.0012
790.67	0.0005
790.904	-0.0007
791.137	-0.0019
791.37	-0.0025
791.604	-0.0024
791.837	-0.0025
792.07	-0.0025
792.303	-0.0011
792.537	-0.0015
792.77	-0.002
793.003	-0.0023
793.236	-0.0029
793.469	-0.0029
793.701	-0.0024
793.934	-0.0026
794.167	-0.0015
794.4	-0.0009
794.632	-0.0007
794.865	-0.0015
795.097	-0.0006
795.33	0.0007
795.562	-0.0003
795.795	-0.0001
796.027	-0.0004
796.259	-0.0007
796.491	-0.0019
796.724	-0.001
796.956	-0.001
797.188	-0.0005
797.42	-0.0006
797.652	-0.001
797.883	-0.0015
798.115	-0.0021
798.347	-0.0028
798.579	-0.0043
798.81	-0.0046
799.042	-0.0038
799.274	-0.0049
799.505	-0.0048
799.737	-0.0054
799.968	-0.0047
800.199	-0.0036
800.431	-0.0047
800.662	-0.0036
800.893	-0.0035
801.124	-0.0027
801.355	-0.0025
801.586	-0.0021
801.817	-0.0014
802.048	-0.0023
802.279	-0.0013
802.51	-0.0011
802.741	-0.0028
802.971	-0.0022
803.202	-0.0033
803.433	-0.0029
803.663	-0.0026
803.894	-0.0017
804.124	-0.0015
804.354	-0.0024
804.585	-0.0019
804.815	-0.0021
805.045	-0.0016
805.275	-0.0024
805.506	-0.0105
805.736	0.0773
805.966	-0.0499
806.196	0.0719
