Data from 01 0.5 mM K2Cr2O7 1 M H2SO4_Absorbance_0001.txt Node
Date: Mon Dec 13 17:28:49 EST 2021
User: kwabilab-user
Spectrometer: HDX00518
Trigger mode: 0
Integration Time (sec): 5.000000E-2
Scans to average: 50
Nonlinearity correction enabled: false
Boxcar width: 0
Storing dark spectrum: false
XAxis mode: Wavelengths
Number of Pixels in Spectrum: 2068
>>>>>Begin Spectral Data<<<<<
195.27	0.0992
195.642	0.2387
196.014	0.1078
196.386	0.4274
196.758	0.0547
197.129	0.0142
197.501	0.0191
197.872	0.0739
198.244	0.071
198.615	0.0875
198.986	0.0831
199.357	0.0871
199.728	0.0748
200.099	0.0903
200.47	0.0719
200.841	0.0753
201.212	0.0756
201.582	0.0958
201.953	0.0966
202.323	0.0891
202.694	0.0703
203.064	0.0725
203.434	0.109
203.804	0.0763
204.174	0.0837
204.544	0.0913
204.914	0.0771
205.284	0.0897
205.653	0.0687
206.023	0.0732
206.393	0.0656
206.762	0.0972
207.131	0.094
207.501	0.0751
207.87	0.1126
208.239	0.0855
208.608	0.0867
208.977	0.0843
209.346	0.0891
209.715	0.0767
210.083	0.0762
210.452	0.0887
210.82	0.1015
211.189	0.0866
211.557	0.1079
211.925	0.0669
212.294	0.0915
212.662	0.0732
213.03	0.0922
213.398	0.1114
213.766	0.1029
214.133	0.096
214.501	0.1346
214.869	0.0959
215.236	0.117
215.604	0.11
215.971	0.1151
216.338	0.121
216.705	0.1238
217.072	0.1557
217.439	0.0927
217.806	0.1307
218.173	0.0991
218.54	0.1203
218.907	0.1302
219.273	0.1467
219.64	0.1437
220.006	0.1531
220.373	0.143
220.739	0.1859
221.105	0.1746
221.471	0.2056
221.837	0.2245
222.203	0.2436
222.569	0.2522
222.935	0.2849
223.3	0.2831
223.666	0.3131
224.031	0.3263
224.397	0.3373
224.762	0.3663
225.127	0.4053
225.493	0.4217
225.858	0.444
226.223	0.4802
226.588	0.4714
226.952	0.4991
227.317	0.5308
227.682	0.5372
228.046	0.5476
228.411	0.5803
228.775	0.5827
229.14	0.599
229.504	0.6061
229.868	0.6238
230.232	0.6199
230.596	0.6321
230.96	0.6589
231.324	0.6349
231.688	0.6754
232.052	0.6843
232.415	0.6748
232.779	0.6922
233.142	0.6902
233.505	0.6906
233.869	0.7089
234.232	0.6983
234.595	0.7056
234.958	0.6989
235.321	0.6966
235.684	0.7044
236.047	0.7138
236.409	0.6869
236.772	0.6948
237.134	0.7126
237.497	0.708
237.859	0.7111
238.222	0.7159
238.584	0.7081
238.946	0.699
239.308	0.7019
239.67	0.7005
240.032	0.7061
240.393	0.7027
240.755	0.6952
241.117	0.6968
241.478	0.7099
241.84	0.7124
242.201	0.6934
242.562	0.7036
242.924	0.7012
243.285	0.6976
243.646	0.7089
244.007	0.7024
244.368	0.7086
244.728	0.7101
245.089	0.7032
245.45	0.7054
245.81	0.7085
246.171	0.7141
246.531	0.7085
246.891	0.7127
247.252	0.7152
247.612	0.7102
247.972	0.7205
248.332	0.7239
248.692	0.7202
249.051	0.7307
249.411	0.7294
249.771	0.7213
250.13	0.725
250.49	0.733
250.849	0.7324
251.208	0.7264
251.568	0.7279
251.927	0.7319
252.286	0.737
252.645	0.744
253.004	0.7417
253.363	0.7414
253.721	0.7515
254.08	0.7473
254.439	0.7419
254.797	0.7349
255.155	0.7448
255.514	0.7448
255.872	0.7545
256.23	0.7426
256.588	0.7483
256.946	0.7424
257.304	0.7489
257.662	0.7574
258.02	0.7555
258.377	0.7534
258.735	0.7519
259.093	0.7537
259.45	0.7502
259.807	0.7554
260.165	0.7504
260.522	0.7585
260.879	0.7492
261.236	0.7519
261.593	0.7527
261.95	0.7515
262.306	0.7517
262.663	0.7478
263.02	0.7483
263.376	0.7494
263.733	0.7502
264.089	0.7475
264.445	0.7436
264.802	0.7518
265.158	0.7499
265.514	0.7423
265.87	0.7393
266.226	0.7456
266.581	0.7471
266.937	0.7469
267.293	0.7422
267.648	0.7339
268.004	0.741
268.359	0.7418
268.714	0.7401
269.07	0.7358
269.425	0.7276
269.78	0.7293
270.135	0.7329
270.49	0.7345
270.844	0.7362
271.199	0.7358
271.554	0.7323
271.908	0.7278
272.263	0.728
272.617	0.7273
272.972	0.7262
273.326	0.7223
273.68	0.7182
274.034	0.7276
274.388	0.7242
274.742	0.7225
275.096	0.7267
275.45	0.7239
275.803	0.7181
276.157	0.7157
276.51	0.7096
276.864	0.7056
277.217	0.7072
277.571	0.707
277.924	0.7119
278.277	0.7017
278.63	0.6996
278.983	0.6951
279.336	0.6892
279.688	0.6913
280.041	0.6839
280.394	0.6828
280.746	0.6789
281.099	0.678
281.451	0.6787
281.803	0.6693
282.156	0.6623
282.508	0.665
282.86	0.6571
283.212	0.6552
283.564	0.6508
283.916	0.646
284.267	0.6398
284.619	0.6328
284.971	0.6324
285.322	0.6242
285.673	0.6212
286.025	0.6129
286.376	0.6082
286.727	0.6017
287.078	0.5987
287.429	0.5902
287.78	0.5874
288.131	0.5791
288.482	0.572
288.833	0.5623
289.183	0.5586
289.534	0.5496
289.884	0.5445
290.235	0.5395
290.585	0.5299
290.935	0.5231
291.285	0.5167
291.635	0.5046
291.985	0.5029
292.335	0.4924
292.685	0.4871
293.035	0.4807
293.384	0.4719
293.734	0.4664
294.083	0.4575
294.433	0.4486
294.782	0.4438
295.131	0.4355
295.48	0.426
295.829	0.4198
296.179	0.4133
296.527	0.4059
296.876	0.3987
297.225	0.3935
297.574	0.3851
297.922	0.38
298.271	0.3723
298.619	0.3652
298.968	0.3593
299.316	0.3526
299.664	0.3472
300.012	0.3406
300.36	0.3353
300.708	0.3284
301.056	0.3236
301.404	0.3173
301.752	0.313
302.099	0.3071
302.447	0.3013
302.794	0.2972
303.142	0.2932
303.489	0.2876
303.836	0.2833
304.183	0.2798
304.531	0.2754
304.878	0.2715
305.224	0.2688
305.571	0.2626
305.918	0.2608
306.265	0.2581
306.611	0.2539
306.958	0.252
307.304	0.2495
307.651	0.2466
307.997	0.2446
308.343	0.242
308.689	0.2399
309.035	0.2377
309.381	0.2367
309.727	0.2351
310.073	0.2335
310.419	0.2334
310.764	0.231
311.11	0.2304
311.455	0.23
311.801	0.2287
312.146	0.2291
312.491	0.2287
312.837	0.2282
313.182	0.2291
313.527	0.229
313.872	0.2292
314.216	0.2304
314.561	0.2304
314.906	0.2313
315.251	0.232
315.595	0.2335
315.94	0.2343
316.284	0.2359
316.628	0.2378
316.972	0.2395
317.317	0.2417
317.661	0.2428
318.005	0.2438
318.348	0.2465
318.692	0.2497
319.036	0.2508
319.38	0.2532
319.723	0.2557
320.067	0.2579
320.41	0.2611
320.754	0.2638
321.097	0.2673
321.44	0.2696
321.783	0.2728
322.126	0.2755
322.469	0.2795
322.812	0.2816
323.155	0.2856
323.498	0.289
323.84	0.2927
324.183	0.2965
324.525	0.2993
324.868	0.3045
325.21	0.307
325.552	0.312
325.894	0.3147
326.236	0.3184
326.578	0.3222
326.92	0.3268
327.262	0.3314
327.604	0.3341
327.946	0.3384
328.287	0.3425
328.629	0.3472
328.97	0.3509
329.312	0.354
329.653	0.3585
329.994	0.3628
330.335	0.3668
330.676	0.3716
331.017	0.3752
331.358	0.381
331.699	0.3848
332.04	0.3886
332.38	0.3929
332.721	0.3964
333.061	0.4013
333.402	0.406
333.742	0.4097
334.083	0.4135
334.423	0.4173
334.763	0.4204
335.103	0.4245
335.443	0.4278
335.783	0.4315
336.123	0.4348
336.462	0.4373
336.802	0.4421
337.141	0.4452
337.481	0.4485
337.82	0.451
338.16	0.4546
338.499	0.4597
338.838	0.4617
339.177	0.4659
339.516	0.4682
339.855	0.4719
340.194	0.4746
340.533	0.4779
340.872	0.4801
341.21	0.4847
341.549	0.4853
341.887	0.488
342.226	0.4905
342.564	0.4932
342.902	0.494
343.24	0.4959
343.578	0.4973
343.916	0.4995
344.254	0.4997
344.592	0.501
344.93	0.5024
345.268	0.5025
345.605	0.5045
345.943	0.5065
346.28	0.5074
346.618	0.508
346.955	0.508
347.292	0.5095
347.629	0.5099
347.966	0.5112
348.303	0.5124
348.64	0.5128
348.977	0.5134
349.314	0.5143
349.65	0.5141
349.987	0.5156
350.324	0.5149
350.66	0.5145
350.996	0.5127
351.333	0.5116
351.669	0.5117
352.005	0.5112
352.341	0.5091
352.677	0.5074
353.013	0.5068
353.349	0.5038
353.685	0.5024
354.02	0.5003
354.356	0.4989
354.691	0.4964
355.027	0.4943
355.362	0.4941
355.697	0.4916
356.033	0.489
356.368	0.488
356.703	0.4855
357.038	0.4838
357.373	0.4814
357.707	0.4798
358.042	0.4788
358.377	0.4762
358.711	0.4741
359.046	0.4729
359.38	0.4698
359.715	0.468
360.049	0.4661
360.383	0.4629
360.717	0.4595
361.051	0.4573
361.385	0.454
361.719	0.4506
362.053	0.447
362.387	0.443
362.72	0.439
363.054	0.4349
363.387	0.4318
363.721	0.4284
364.054	0.4231
364.387	0.4193
364.721	0.4159
365.054	0.412
365.387	0.4087
365.72	0.4049
366.053	0.4015
366.385	0.3971
366.718	0.3942
367.051	0.3911
367.383	0.3888
367.716	0.3847
368.048	0.3824
368.381	0.379
368.713	0.3765
369.045	0.3738
369.377	0.3695
369.709	0.3678
370.041	0.3643
370.373	0.3605
370.705	0.3573
371.037	0.3542
371.368	0.3502
371.7	0.3474
372.031	0.3421
372.363	0.3388
372.694	0.3336
373.025	0.3295
373.356	0.3257
373.688	0.321
374.019	0.3157
374.35	0.3117
374.68	0.3082
375.011	0.3034
375.342	0.2994
375.673	0.2947
376.003	0.2911
376.334	0.2867
376.664	0.2821
376.995	0.2791
377.325	0.2749
377.655	0.2721
377.985	0.2687
378.315	0.2656
378.645	0.2628
378.975	0.2599
379.305	0.2569
379.635	0.2546
379.964	0.252
380.294	0.2483
380.623	0.2458
380.953	0.2428
381.282	0.2403
381.611	0.2372
381.941	0.234
382.27	0.2307
382.599	0.2269
382.928	0.2239
383.257	0.2209
383.585	0.2178
383.914	0.2147
384.243	0.2102
384.571	0.2069
384.9	0.2023
385.228	0.1997
385.557	0.196
385.885	0.1923
386.213	0.1885
386.541	0.1849
386.869	0.1818
387.197	0.1779
387.525	0.1747
387.853	0.1709
388.181	0.1687
388.508	0.1644
388.836	0.1618
389.164	0.1584
389.491	0.1563
389.818	0.1537
390.146	0.1516
390.473	0.1491
390.8	0.1463
391.127	0.1437
391.454	0.1414
391.781	0.1393
392.108	0.1372
392.435	0.1353
392.761	0.1327
393.088	0.1314
393.415	0.1294
393.741	0.1276
394.067	0.1251
394.394	0.1241
394.72	0.122
395.046	0.1202
395.372	0.1183
395.698	0.1164
396.024	0.1143
396.35	0.1127
396.676	0.1104
397.001	0.1083
397.327	0.1069
397.653	0.1049
397.978	0.1028
398.303	0.1012
398.629	0.099
398.954	0.0966
399.279	0.0954
399.604	0.0943
399.929	0.0928
400.254	0.0913
400.579	0.0902
400.904	0.0883
401.229	0.0859
401.553	0.0856
401.878	0.0842
402.202	0.0831
402.527	0.0823
402.851	0.0816
403.175	0.0799
403.5	0.0792
403.824	0.0785
404.148	0.0777
404.472	0.0768
404.796	0.0763
405.119	0.0755
405.443	0.0753
405.767	0.0739
406.09	0.0737
406.414	0.0733
406.737	0.0729
407.061	0.0726
407.384	0.072
407.707	0.0726
408.03	0.0713
408.353	0.0723
408.676	0.0712
408.999	0.0711
409.322	0.0708
409.645	0.0701
409.968	0.0704
410.29	0.07
410.613	0.07
410.935	0.0704
411.258	0.07
411.58	0.0695
411.902	0.0696
412.224	0.07
412.546	0.07
412.868	0.0699
413.19	0.0702
413.512	0.0698
413.834	0.0691
414.156	0.0694
414.477	0.0703
414.799	0.07
415.121	0.0708
415.442	0.0707
415.763	0.0705
416.085	0.0703
416.406	0.071
416.727	0.0712
417.048	0.0706
417.369	0.0712
417.69	0.0711
418.011	0.0713
418.331	0.072
418.652	0.0724
418.973	0.0722
419.293	0.0722
419.614	0.0727
419.934	0.0738
420.254	0.0733
420.574	0.0742
420.895	0.0737
421.215	0.0738
421.535	0.0745
421.855	0.0741
422.174	0.0751
422.494	0.0741
422.814	0.0746
423.134	0.0746
423.453	0.0752
423.773	0.0753
424.092	0.0757
424.411	0.0755
424.731	0.0761
425.05	0.076
425.369	0.0767
425.688	0.078
426.007	0.0768
426.326	0.0767
426.644	0.0776
426.963	0.0787
427.282	0.0781
427.6	0.0785
427.919	0.0784
428.237	0.0796
428.556	0.0793
428.874	0.08
429.192	0.0801
429.51	0.0801
429.828	0.0804
430.146	0.08
430.464	0.0796
430.782	0.0806
431.1	0.0811
431.418	0.0812
431.735	0.0816
432.053	0.0823
432.37	0.0823
432.688	0.0822
433.005	0.0818
433.322	0.0824
433.639	0.0828
433.957	0.0831
434.274	0.083
434.591	0.0827
434.907	0.0828
435.224	0.0841
435.541	0.0841
435.858	0.0846
436.174	0.0853
436.491	0.0838
436.807	0.0838
437.124	0.0847
437.44	0.0847
437.756	0.0849
438.072	0.0859
438.388	0.0857
438.704	0.0848
439.02	0.0855
439.336	0.0854
439.652	0.0857
439.968	0.0843
440.283	0.0846
440.599	0.085
440.914	0.0861
441.23	0.0862
441.545	0.0856
441.86	0.0862
442.175	0.0866
442.491	0.0865
442.806	0.0865
443.121	0.0861
443.435	0.0855
443.75	0.086
444.065	0.0859
444.38	0.0858
444.694	0.0863
445.009	0.0862
445.323	0.086
445.638	0.0854
445.952	0.0863
446.266	0.086
446.58	0.0863
446.894	0.0856
447.208	0.0859
447.522	0.086
447.836	0.0857
448.15	0.0854
448.464	0.0857
448.777	0.0858
449.091	0.0852
449.404	0.0856
449.718	0.0847
450.031	0.0849
450.345	0.0851
450.658	0.0849
450.971	0.0851
451.284	0.0843
451.597	0.0832
451.91	0.0833
452.223	0.0837
452.535	0.0832
452.848	0.0838
453.161	0.0837
453.473	0.0837
453.786	0.083
454.098	0.0827
454.411	0.0836
454.723	0.0824
455.035	0.0825
455.347	0.0816
455.659	0.0818
455.971	0.0826
456.283	0.0816
456.595	0.0817
456.907	0.0825
457.218	0.0812
457.53	0.0803
457.841	0.0812
458.153	0.0814
458.464	0.0811
458.776	0.0804
459.087	0.08
459.398	0.0795
459.709	0.0796
460.02	0.0798
460.331	0.0783
460.642	0.0784
460.953	0.0779
461.263	0.0766
461.574	0.0777
461.885	0.077
462.195	0.0766
462.506	0.0765
462.816	0.076
463.126	0.0763
463.437	0.076
463.747	0.0752
464.057	0.0751
464.367	0.0748
464.677	0.0738
464.987	0.0732
465.296	0.0733
465.606	0.0721
465.916	0.073
466.225	0.0727
466.535	0.0718
466.844	0.0714
467.154	0.0717
467.463	0.0711
467.772	0.0709
468.081	0.0708
468.39	0.0698
468.699	0.0698
469.008	0.0693
469.317	0.0685
469.626	0.0674
469.935	0.0673
470.243	0.0672
470.552	0.0679
470.86	0.0669
471.169	0.0663
471.477	0.0659
471.785	0.0656
472.093	0.0657
472.402	0.0645
472.71	0.065
473.018	0.0643
473.326	0.0635
473.633	0.0636
473.941	0.063
474.249	0.0622
474.556	0.063
474.864	0.0622
475.171	0.0614
475.479	0.061
475.786	0.0603
476.094	0.0603
476.401	0.0595
476.708	0.0598
477.015	0.0589
477.322	0.0584
477.629	0.058
477.936	0.057
478.242	0.0562
478.549	0.0558
478.856	0.056
479.162	0.0551
479.469	0.0558
479.775	0.0558
480.081	0.0547
480.388	0.0541
480.694	0.0531
481	0.0528
481.306	0.0519
481.612	0.0518
481.918	0.0523
482.224	0.0514
482.53	0.051
482.835	0.0506
483.141	0.0501
483.446	0.0491
483.752	0.0482
484.057	0.0483
484.363	0.0481
484.668	0.0478
484.973	0.0472
485.278	0.0462
485.583	0.0471
485.888	0.046
486.193	0.0457
486.498	0.0447
486.803	0.0445
487.107	0.0448
487.412	0.0436
487.717	0.0443
488.021	0.0432
488.325	0.0437
488.63	0.0431
488.934	0.0419
489.238	0.0422
489.542	0.0404
489.846	0.0408
490.15	0.0398
490.454	0.0401
490.758	0.0391
491.062	0.0392
491.366	0.039
491.669	0.039
491.973	0.0381
492.276	0.0378
492.58	0.0373
492.883	0.0373
493.186	0.0359
493.489	0.0359
493.792	0.0347
494.096	0.0346
494.399	0.0345
494.701	0.0354
495.004	0.034
495.307	0.0339
495.61	0.033
495.912	0.0334
496.215	0.0319
496.517	0.0315
496.82	0.0316
497.122	0.0315
497.424	0.0317
497.727	0.0313
498.029	0.0299
498.331	0.0304
498.633	0.0307
498.935	0.0299
499.237	0.0289
499.538	0.0286
499.84	0.029
500.142	0.0287
500.443	0.0277
500.745	0.0274
501.046	0.0263
501.348	0.0265
501.649	0.026
501.95	0.026
502.251	0.0263
502.552	0.0255
502.853	0.0246
503.154	0.0249
503.455	0.0246
503.756	0.0243
504.057	0.025
504.357	0.0223
504.658	0.0236
504.958	0.0229
505.259	0.0227
505.559	0.0219
505.859	0.0214
506.16	0.0218
506.46	0.0213
506.76	0.0216
507.06	0.0201
507.36	0.02
507.66	0.0199
507.96	0.0206
508.259	0.0198
508.559	0.0207
508.859	0.0192
509.158	0.0197
509.457	0.0189
509.757	0.0195
510.056	0.0178
510.355	0.0178
510.655	0.0176
510.954	0.0184
511.253	0.0181
511.552	0.0171
511.851	0.0169
512.149	0.0154
512.448	0.0163
512.747	0.0162
513.045	0.0156
513.344	0.0152
513.642	0.0153
513.941	0.015
514.239	0.0158
514.537	0.0145
514.836	0.0151
515.134	0.013
515.432	0.0149
515.73	0.0138
516.028	0.013
516.326	0.0137
516.623	0.0135
516.921	0.0115
517.219	0.0131
517.516	0.0122
517.814	0.0123
518.111	0.0125
518.409	0.0113
518.706	0.011
519.003	0.0131
519.3	0.0113
519.597	0.0102
519.894	0.0104
520.191	0.0106
520.488	0.0101
520.785	0.0087
521.082	0.0093
521.378	0.0091
521.675	0.0089
521.971	0.0088
522.268	0.0089
522.564	0.0087
522.861	0.0088
523.157	0.0089
523.453	0.0097
523.749	0.0088
524.045	0.0083
524.341	0.0085
524.637	0.0073
524.933	0.0079
525.229	0.0081
525.524	0.0061
525.82	0.0072
526.115	0.0078
526.411	0.007
526.706	0.0062
527.002	0.0079
527.297	0.0063
527.592	0.0067
527.887	0.0083
528.182	0.0075
528.477	0.0062
528.772	0.0064
529.067	0.006
529.362	0.0055
529.657	0.0057
529.951	0.0057
530.246	0.0055
530.54	0.0063
530.835	0.0053
531.129	0.0053
531.423	0.0043
531.718	0.005
532.012	0.0049
532.306	0.0056
532.6	0.005
532.894	0.0045
533.188	0.0052
533.482	0.0045
533.775	0.0037
534.069	0.0033
534.363	0.0033
534.656	0.0023
534.95	0.0039
535.243	0.0027
535.536	0.0038
535.83	0.0017
536.123	0.0033
536.416	0.0033
536.709	0.0035
537.002	0.0021
537.295	0.0025
537.588	0.0018
537.881	0.0011
538.173	0.0024
538.466	0.0022
538.759	0.0017
539.051	0.0016
539.344	0.0022
539.636	0.002
539.928	0.0023
540.22	0.0027
540.513	0.002
540.805	0.003
541.097	0.0007
541.389	0.0011
541.681	0.0018
541.972	0.0022
542.264	0.0019
542.556	0.0016
542.847	0.002
543.139	0.0016
543.431	0.0002
543.722	0.0015
544.013	0.0017
544.305	0.0019
544.596	0.0002
544.887	0.0012
545.178	0.0014
545.469	-0.0003
545.76	-0.0003
546.051	0.0022
546.342	0.0005
546.632	0.0009
546.923	0.0001
547.214	0.0005
547.504	-0.0001
547.795	-0.0004
548.085	-0.0002
548.375	0.0002
548.666	-0.0003
548.956	-0.0004
549.246	-0.0001
549.536	0.0007
549.826	-0.0006
550.116	-0.0001
550.406	-0.0003
550.695	-0.0012
550.985	0.001
551.275	0.0001
551.564	0.0002
551.854	0.0014
552.143	0.0004
552.433	0.0004
552.722	-0.0009
553.011	0.0009
553.3	0.0003
553.589	0.0003
553.879	-0.0009
554.167	0.0003
554.456	0.0013
554.745	-0.0002
555.034	-0.001
555.323	0.0008
555.611	0.0008
555.9	-0.0003
556.188	-0.0015
556.477	0.0005
556.765	-0.0018
557.053	-0.0016
557.342	-0.0003
557.63	0.0001
557.918	-0
558.206	0.0019
558.494	0.0012
558.782	0.0004
559.069	0.0018
559.357	0.0005
559.645	-0.0013
559.932	0.0001
560.22	0.0002
560.507	-0.0015
560.795	-0.0007
561.082	-0.0022
561.37	-0.0002
561.657	-0.0016
561.944	-0.0011
562.231	-0.0012
562.518	0
562.805	0.0003
563.092	0.0007
563.379	-0.0004
563.665	-0.0002
563.952	-0.0012
564.239	0.0006
564.525	0.0001
564.811	0.0013
565.098	-0.0001
565.384	0.0003
565.67	0.0006
565.957	0.0011
566.243	0.0013
566.529	-0.0001
566.815	0.0005
567.101	0.0004
567.387	0.0004
567.672	-0.0003
567.958	-0.0002
568.244	-0.0004
568.529	-0.0005
568.815	-0.0003
569.1	-0.0011
569.386	-0.0018
569.671	-0.0006
569.956	-0.0012
570.242	-0.0012
570.527	-0.0019
570.812	-0.0008
571.097	-0.0001
571.382	-0.0003
571.666	-0.0001
571.951	-0.0011
572.236	-0.0009
572.521	-0.0001
572.805	-0.0007
573.09	-0.0014
573.374	-0.002
573.659	-0.0007
573.943	-0.0018
574.227	-0.0019
574.511	-0.0013
574.795	-0.0012
575.079	-0.0011
575.363	-0.002
575.647	-0.0017
575.931	-0.0017
576.215	-0.0018
576.499	-0.0013
576.782	-0.002
577.066	-0.0009
577.349	-0.0003
577.633	-0.0011
577.916	-0.0016
578.2	-0.0007
578.483	-0.0018
578.766	-0.0016
579.049	-0.0015
579.332	-0.0005
579.615	-0.0006
579.898	-0.0006
580.181	-0.0007
580.464	-0.0007
580.746	-0.0011
581.029	-0.0019
581.312	-0.0015
581.594	-0.0017
581.877	-0.0022
582.159	-0.0028
582.441	-0.0027
582.724	-0.0018
583.006	-0.0009
583.288	-0.0014
583.57	-0.0007
583.852	-0.0007
584.134	-0.0003
584.416	-0.0001
584.697	-0.0007
584.979	-0.0017
585.261	-0.002
585.542	-0.0022
585.824	-0.0022
586.105	-0.0024
586.387	-0.0018
586.668	-0.001
586.949	-0.0008
587.231	-0.0006
587.512	-0.0011
587.793	-0.0008
588.074	-0.001
588.355	-0.0001
588.636	-0.0011
588.916	-0.0012
589.197	-0.0009
589.478	-0.0018
589.758	-0.0012
590.039	-0.0013
590.319	-0.0016
590.6	-0.0012
590.88	-0.0012
591.16	-0.0017
591.441	-0.001
591.721	-0.0024
592.001	-0.0025
592.281	-0.002
592.561	-0.0008
592.841	-0.0006
593.12	-0.0017
593.4	-0.0019
593.68	-0.0033
593.959	-0.0026
594.239	-0.0018
594.518	-0.0011
594.798	0.0001
595.077	-0.0007
595.356	-0.0005
595.636	-0.0017
595.915	-0.0014
596.194	-0.0007
596.473	-0.0016
596.752	-0.0008
597.031	-0.0008
597.31	-0.0021
597.588	-0.0024
597.867	-0.0022
598.146	-0.0021
598.424	-0.0024
598.703	-0.0023
598.981	-0.0034
599.259	-0.0027
599.538	-0.0032
599.816	-0.002
600.094	-0.0026
600.372	-0.0029
600.65	-0.0029
600.928	-0.0018
601.206	-0.0015
601.484	-0.0008
601.762	-0.0009
602.04	-0.0003
602.317	-0.0007
602.595	-0.0007
602.872	-0.0001
603.15	0.0005
603.427	-0.0018
603.704	-0.0016
603.982	-0.0017
604.259	-0.0014
604.536	-0.0012
604.813	-0.0014
605.09	-0.0009
605.367	-0.0008
605.644	-0.0014
605.921	-0.0012
606.197	-0.0015
606.474	-0.0009
606.751	-0.0018
607.027	-0.0014
607.304	-0.0009
607.58	-0.0015
607.856	-0.0017
608.133	-0.0015
608.409	-0.001
608.685	-0.0016
608.961	-0.0023
609.237	-0.0017
609.513	-0.0019
609.789	-0.0024
610.065	-0.0008
610.341	-0.0017
610.616	-0.0018
610.892	-0.0013
611.167	-0.0008
611.443	-0.0022
611.718	-0.0018
611.994	-0.001
612.269	-0.001
612.544	-0.0009
612.819	-0.0014
613.095	-0.0015
613.37	-0.0001
613.645	-0.0015
613.919	-0.002
614.194	-0.001
614.469	-0.0008
614.744	-0.001
615.019	-0.0018
615.293	-0.0023
615.568	-0.0028
615.842	-0.0015
616.116	-0.0007
616.391	-0.0004
616.665	-0.0008
616.939	-0.0011
617.213	-0.001
617.488	-0.0015
617.762	-0.002
618.035	-0.0011
618.309	-0.0017
618.583	-0.0005
618.857	0.0002
619.131	0.0002
619.404	-0.0001
619.678	-0.0001
619.951	-0.0004
620.225	-0.0007
620.498	-0.0011
620.771	-0.0007
621.045	-0.0005
621.318	-0.0017
621.591	-0.0007
621.864	-0.0014
622.137	-0.0019
622.41	-0.0013
622.683	-0.0014
622.956	-0.0017
623.228	-0.0012
623.501	-0.001
623.774	-0.0016
624.046	-0.0011
624.319	-0.0019
624.591	-0.0021
624.863	-0.0015
625.136	-0.0004
625.408	0.0003
625.68	0.0012
625.952	0.0014
626.224	0.0018
626.496	0.0028
626.768	0.0017
627.04	0.0016
627.311	0.0008
627.583	0.0004
627.855	0.0013
628.126	0.0023
628.398	0.0024
628.669	0.0029
628.941	0.0027
629.212	0.002
629.483	0.0014
629.755	0.0007
630.026	0.0004
630.297	-0.0002
630.568	-0.0003
630.839	-0.0002
631.11	-0.0003
631.38	0.0008
631.651	0.0015
631.922	0.0006
632.192	0.0015
632.463	0.0013
632.733	0.0013
633.004	0.0019
633.274	0.002
633.545	0.0029
633.815	0.0018
634.085	0.0015
634.355	0.0008
634.625	0.0016
634.895	0.0016
635.165	0.0018
635.435	0.0009
635.705	0.0007
635.974	-0.0002
636.244	0.0004
636.514	0.0018
636.783	-0.0001
637.053	-0.0001
637.322	-0.0001
637.591	0.001
637.861	-0.0015
638.13	-0.0019
638.399	-0.0021
638.668	-0.0008
638.937	-0.0024
639.206	-0.0026
639.475	-0.002
639.744	-0.0017
640.013	-0.0008
640.281	-0.0012
640.55	-0.0002
640.819	0.0002
641.087	0.0009
641.356	0.0018
641.624	0.0026
641.892	0.0023
642.161	0.0015
642.429	0.0014
642.697	0.0004
642.965	0.0022
643.233	0.0013
643.501	0.0004
643.769	0.0012
644.037	0.0013
644.305	0.0001
644.572	0.0008
644.84	0
645.108	-0.0008
645.375	-0.0002
645.643	-0.0002
645.91	0.0011
646.177	0.0011
646.445	0.0006
646.712	0.0018
646.979	0.0035
647.246	0.0042
647.513	0.0043
647.78	0.0028
648.047	0.0011
648.314	0.0002
648.58	0.0008
648.847	0.0011
649.114	0.0027
649.38	0.0019
649.647	0.0011
649.913	0.0013
650.18	0.002
650.446	0.0026
650.712	0.0007
650.978	0.0019
651.245	0.0014
651.511	0.002
651.777	0.0015
652.043	0.0007
652.309	0.0008
652.574	0.001
652.84	0.0009
653.106	0.001
653.371	0.0011
653.637	0.0016
653.903	0.0009
654.168	0.0012
654.433	0.0016
654.699	0.0011
654.964	0.0029
655.229	0.0007
655.494	0.0002
655.759	-0.0002
656.024	0.0004
656.289	-0
656.554	-0.0028
656.819	-0.0027
657.084	-0.0012
657.349	-0.0013
657.613	-0.0009
657.878	0.0001
658.142	0.0004
658.407	-0.0001
658.671	0.0016
658.936	0.0008
659.2	0.0002
659.464	0.0007
659.728	0.0016
659.992	0.0014
660.256	0.0012
660.52	0.0014
660.784	0.0003
661.048	-0.0004
661.312	0.0007
661.575	0.0014
661.839	0.0029
662.103	0.0014
662.366	0.0009
662.63	0.001
662.893	0.0011
663.156	0.0003
663.42	-0.0012
663.683	-0.002
663.946	-0.0009
664.209	-0.0009
664.472	-0.0009
664.735	-0.0011
664.998	0.0009
665.261	0.0011
665.524	0.001
665.786	0.0004
666.049	0.0001
666.312	0.0011
666.574	0.0007
666.837	0.0019
667.099	0.003
667.361	0.0015
667.624	0.0024
667.886	0.0016
668.148	0.0018
668.41	0.0031
668.672	0.0014
668.934	0.0027
669.196	0.0012
669.458	0.0015
669.72	0.0017
669.982	0.0006
670.243	0.0014
670.505	0.0003
670.766	0.0001
671.028	0
671.289	-0.0004
671.551	0.0013
671.812	0.0001
672.073	0.0005
672.334	0.0009
672.596	0.0007
672.857	0.0013
673.118	0.0024
673.379	0.0016
673.639	0.0016
673.9	0.0022
674.161	0.001
674.422	0.0017
674.682	0.0013
674.943	0.0019
675.203	0.0009
675.464	0.0009
675.724	-0.0001
675.985	0.0003
676.245	0.0006
676.505	0.0004
676.765	-0.0001
677.025	-0.001
677.285	0.0003
677.545	0.0007
677.805	0.0004
678.065	0.0006
678.325	0.0022
678.585	0.0015
678.844	0.0008
679.104	0.0004
679.363	-0.0006
679.623	-0.0007
679.882	0.0002
680.142	0.0003
680.401	0.0005
680.66	0.0018
680.919	0.0027
681.178	0.002
681.437	0.0017
681.696	0.0008
681.955	0.0014
682.214	0.0024
682.473	0.0018
682.732	0.0004
682.99	-0.0001
683.249	0.0001
683.508	-0.0003
683.766	-0.0008
684.024	-0.0016
684.283	0
684.541	-0.0009
684.799	-0.0003
685.058	-0.0008
685.316	-0.0012
685.574	-0.0021
685.832	-0.0031
686.09	-0.0034
686.348	-0.0041
686.606	-0.0033
686.863	-0.0025
687.121	-0.0013
687.379	-0.0005
687.636	-0.0016
687.894	-0.0008
688.151	-0.0007
688.409	0
688.666	-0.0004
688.923	-0.0007
689.181	-0.0004
689.438	-0.0003
689.695	-0.0006
689.952	-0.0015
690.209	-0.0005
690.466	-0.0002
690.723	0.0003
690.979	0.0001
691.236	-0.0001
691.493	0.0002
691.75	0.0009
692.006	0.0005
692.263	0.0002
692.519	0.0002
692.775	-0.0004
693.032	-0.0013
693.288	-0.0007
693.544	-0.0007
693.8	-0.0005
694.056	0.0001
694.313	-0.0014
694.568	-0.0009
694.824	-0.0016
695.08	-0.0017
695.336	-0.0015
695.592	-0.0017
695.847	-0.0011
696.103	-0.0009
696.359	-0.0001
696.614	-0.0011
696.869	-0.0003
697.125	-0.0008
697.38	-0.0011
697.635	-0.0006
697.891	0.0002
698.146	0.0006
698.401	0.0013
698.656	-0.0005
698.911	-0.0006
699.166	0.0003
699.42	0.0003
699.675	0.0003
699.93	0.0003
700.185	0
700.439	-0.0003
700.694	0.0003
700.948	0.0001
701.203	-0.0002
701.457	0.0004
701.711	-0.0008
701.965	-0.0005
702.22	-0.0011
702.474	-0.0024
702.728	-0.0017
702.982	-0.0023
703.236	-0.0012
703.49	-0.0003
703.743	-0.0013
703.997	-0.0009
704.251	-0.002
704.504	-0.0011
704.758	-0.002
705.012	-0.0004
705.265	0.0006
705.518	0.0011
705.772	0.0003
706.025	0.0009
706.278	-0.0001
706.531	0.0007
706.785	0.0008
707.038	-0.0004
707.291	-0.0005
707.543	-0.0002
707.796	-0.0017
708.049	-0.0018
708.302	-0.0027
708.555	-0.0033
708.807	-0.0022
709.06	-0.0029
709.312	-0.0019
709.565	-0.0017
709.817	-0.001
710.069	-0
710.322	0.0008
710.574	-0.0002
710.826	-0.0007
711.078	-0.0016
711.33	-0.0016
711.582	-0.0032
711.834	-0.0031
712.086	-0.0021
712.338	-0.0021
712.59	-0.0004
712.841	-0.0005
713.093	-0
713.344	0.0001
713.596	0.0001
713.847	0.0004
714.099	-0.0006
714.35	-0.0014
714.601	-0.0003
714.853	-0.001
715.104	-0.0006
715.355	-0.0004
715.606	-0.0009
715.857	0.0002
716.108	-0.0008
716.359	0.0003
716.609	0.0001
716.86	0.0016
717.111	0.0018
717.361	0.0018
717.612	0.0024
717.863	0.0023
718.113	0.0027
718.363	0.0017
718.614	0.0013
718.864	0.0024
719.114	0.0018
719.364	0.0035
719.614	0.0015
719.865	0.001
720.114	0.0013
720.364	0.0015
720.614	0.0017
720.864	0.0012
721.114	0.0006
721.364	-0.0001
721.613	-0.0004
721.863	-0.0006
722.112	0.0002
722.362	0.0006
722.611	0.0003
722.86	0.0003
723.11	0.0007
723.359	-0.0004
723.608	-0.0013
723.857	-0.0024
724.106	-0.0011
724.355	-0.0008
724.604	0.0009
724.853	0.0021
725.102	0.0005
725.351	0.0008
725.599	-0.0007
725.848	-0.0001
726.097	0.0019
726.345	0.0021
726.594	0.0011
726.842	0.0018
727.09	0.0011
727.339	-0.0006
727.587	-0.0014
727.835	-0.0012
728.083	-0.0005
728.331	-0.0016
728.579	-0.0008
728.827	-0.001
729.075	0.0004
729.323	0.0006
729.571	-0.0004
729.818	-0.0003
730.066	-0.002
730.314	-0.0025
730.561	-0.0012
730.809	-0.001
731.056	-0.0013
731.303	-0.0014
731.551	-0.0026
731.798	-0.0021
732.045	-0.0021
732.292	-0.0005
732.539	-0.0003
732.786	0.0011
733.033	0.0009
733.28	0.0014
733.527	0.0017
733.774	0.0018
734.021	0.0002
734.267	0
734.514	0.0003
734.76	-0.0006
735.007	-0.0011
735.253	-0.0024
735.5	-0.0023
735.746	-0.0026
735.992	-0.0025
736.238	-0.003
736.485	-0.0014
736.731	-0.0019
736.977	-0.0012
737.223	-0.0012
737.469	-0.0011
737.715	-0.0005
737.96	-0.0013
738.206	-0.0018
738.452	-0.0023
738.697	-0.0021
738.943	-0.0016
739.189	-0.0021
739.434	-0.0023
739.679	-0.0029
739.925	-0.0024
740.17	-0.0026
740.415	-0.0024
740.66	-0.0032
740.906	-0.0032
741.151	-0.0023
741.396	-0.0028
741.641	-0.0036
741.886	-0.0028
742.13	-0.0011
742.375	-0.0006
742.62	-0.0005
742.865	-0.0006
743.109	0.0009
743.354	0.0019
743.598	0.0035
743.843	0.0041
744.087	0.0038
744.331	0.0038
744.576	0.0034
744.82	0.003
745.064	0.0031
745.308	0.0032
745.552	0.0046
745.796	0.0024
746.04	0.003
746.284	0.0026
746.528	0.0032
746.771	0.0037
747.015	0.0039
747.259	0.0032
747.502	0.0024
747.746	0.0018
747.989	0.0019
748.233	0.0012
748.476	0.0032
748.719	0.003
748.963	0.0043
749.206	0.0047
749.449	0.0032
749.692	0.0032
749.935	0.0039
750.178	0.003
750.421	0.0028
750.664	0.0026
750.906	0.0037
751.149	0.0031
751.392	0.002
751.635	0.001
751.877	0.0004
752.12	-0.0002
752.362	-0.0001
752.604	0.0002
752.847	0.0026
753.089	0.0023
753.331	0.0013
753.573	0.0017
753.816	0.0013
754.058	0.0005
754.3	-0.0003
754.542	0.0005
754.783	0.0001
755.025	0.0012
755.267	0.0016
755.509	0.0004
755.75	0.0006
755.992	-0.0002
756.234	-0.0003
756.475	-0.0009
756.716	-0.0015
756.958	-0.0009
757.199	-0.0011
757.44	0.0001
757.682	0
757.923	0.0008
758.164	0.0006
758.405	0.0001
758.646	0.0007
758.887	-0
759.128	-0.0002
759.369	-0.0004
759.609	0.0001
759.85	-0.0002
760.091	-0.0002
760.331	-0.0018
760.572	-0.0023
760.812	-0.0014
761.053	-0.0018
761.293	-0.0005
761.533	-0.0003
761.774	0.0006
762.014	0.0014
762.254	0.001
762.494	-0.0008
762.734	0.0007
762.974	0
763.214	0.0013
763.454	0.0019
763.694	0.0009
763.933	-0.0002
764.173	-0.0016
764.413	-0.003
764.652	-0.0033
764.892	-0.0037
765.131	-0.0033
765.371	-0.0032
765.61	-0.003
765.849	-0.0031
766.089	-0.003
766.328	-0.0023
766.567	-0.0019
766.806	-0.0026
767.045	-0.0016
767.284	-0.0017
767.523	-0.0009
767.762	-0.0017
768.001	-0.0012
768.239	-0.001
768.478	-0.0011
768.717	-0.0008
768.955	-0.0002
769.194	-0.0007
769.432	0.0005
769.671	0.0015
769.909	0.0019
770.148	0.0014
770.386	0.0025
770.624	0.002
770.862	0.002
771.1	0.0021
771.338	0.0017
771.576	0.0006
771.814	0.001
772.052	0.0005
772.29	-0.0001
772.528	-0.0002
772.765	0.0005
773.003	-0.0004
773.24	0.0007
773.478	-0.0017
773.716	-0.0015
773.953	-0.0014
774.19	-0.0014
774.428	0.0004
774.665	-0.0005
774.902	0.0017
775.139	0.0014
775.376	0.0011
775.613	0.0016
775.85	0.0024
776.087	0.0026
776.324	0.0014
776.561	0.0007
776.798	-0.0005
777.034	-0.0014
777.271	0
777.508	0.0004
777.744	0.0009
777.981	0.0014
778.217	0.0019
778.454	0.001
778.69	0.0014
778.926	0.0016
779.162	0.0032
779.399	0.0035
779.635	0.0039
779.871	0.0039
780.107	0.0044
780.343	0.0031
780.579	0.003
780.814	0.0023
781.05	0.0023
781.286	0.0013
781.522	0.0004
781.757	0.0009
781.993	-0
782.228	-0.0006
782.464	-0.0006
782.699	-0.0017
782.934	-0.0024
783.17	-0.0024
783.405	-0.002
783.64	-0.0016
783.875	-0.0022
784.11	-0.0017
784.345	-0.001
784.58	0.0002
784.815	0.0009
785.05	-0
785.285	-0.0009
785.52	-0.0017
785.754	-0.0026
785.989	-0.0035
786.223	-0.0057
786.458	-0.0048
786.692	-0.0041
786.927	-0.0022
787.161	-0.0009
787.396	-0.0012
787.63	-0.0006
787.864	-0.0021
788.098	-0.0028
788.332	-0.0018
788.566	-0.0013
788.8	-0.0011
789.034	-0.0011
789.268	-0.0019
789.502	-0.0016
789.736	-0.0018
789.969	-0.0014
790.203	-0.0023
790.437	-0.0026
790.67	-0.0031
790.904	-0.0033
791.137	-0.0036
791.37	-0.0032
791.604	-0.0035
791.837	-0.003
792.07	-0.002
792.303	-0.0019
792.537	-0.0012
792.77	-0.0019
793.003	-0.0031
793.236	-0.003
793.469	-0.0038
793.701	-0.0031
793.934	-0.0022
794.167	-0.0024
794.4	-0.0028
794.632	-0.0025
794.865	-0.001
795.097	0.0002
795.33	-0.001
795.562	-0.0001
795.795	0.0008
796.027	0.0011
796.259	0.0011
796.491	0.0006
796.724	-0.0002
796.956	0.0002
797.188	-0.0009
797.42	-0.0017
797.652	-0.0017
797.883	-0.0014
798.115	-0.0007
798.347	-0.0013
798.579	0.0003
798.81	0.0004
799.042	0.0002
799.274	-0.0013
799.505	-0.0023
799.737	-0.0013
799.968	-0.0031
800.199	-0.0034
800.431	-0.0046
800.662	-0.0044
800.893	-0.005
801.124	-0.0054
801.355	-0.0053
801.586	-0.0042
801.817	-0.0034
802.048	-0.0023
802.279	-0.0028
802.51	-0.0017
802.741	-0.0015
802.971	-0.0007
803.202	-0.0005
803.433	0.0005
803.663	-0.0009
803.894	-0.0014
804.124	-0.0007
804.354	0
804.585	-0.0002
804.815	-0
805.045	-0.0011
805.275	-0.0001
805.506	-0.0642
805.736	0.042
805.966	0.0654
806.196	0.1641
