Data from 03 0.5 mM K2Cr2O7 0.3 mM BQDS 1 M H2SO4 5 min_Absorbance_0192.txt Node
Date: Tue Dec 14 09:39:45 EST 2021
User: kwabilab-user
Spectrometer: HDX00518
Trigger mode: 0
Integration Time (sec): 5.000000E-2
Scans to average: 50
Nonlinearity correction enabled: false
Boxcar width: 0
Storing dark spectrum: false
XAxis mode: Wavelengths
Number of Pixels in Spectrum: 2068
>>>>>Begin Spectral Data<<<<<
195.27	0.0787
195.642	0.1639
196.014	0.058
196.386	0.4162
196.758	-0
197.129	-0.009
197.501	0.0025
197.872	0.0096
198.244	0.0221
198.615	0.0516
198.986	0.029
199.357	0.0547
199.728	0.0333
200.099	0.045
200.47	0.032
200.841	0.0252
201.212	0.0396
201.582	0.041
201.953	0.05
202.323	0.0554
202.694	0.0403
203.064	0.0288
203.434	0.0499
203.804	0.0318
204.174	0.057
204.544	0.0418
204.914	0.0519
205.284	0.0444
205.653	0.0302
206.023	0.0429
206.393	0.0114
206.762	0.0392
207.131	0.0375
207.501	0.0349
207.87	0.0454
208.239	0.0475
208.608	0.0289
208.977	0.0311
209.346	0.0146
209.715	0.0402
210.083	0.025
210.452	0.0191
210.82	0.0502
211.189	0.0271
211.557	0.0344
211.925	0.0031
212.294	0.0313
212.662	0.0471
213.03	0.0322
213.398	0.0571
213.766	0.0359
214.133	0.0581
214.501	0.0517
214.869	0.0452
215.236	0.0427
215.604	0.0479
215.971	0.0484
216.338	0.0695
216.705	0.0628
217.072	0.0848
217.439	0.0509
217.806	0.0595
218.173	0.0458
218.54	0.0667
218.907	0.0768
219.273	0.1066
219.64	0.0874
220.006	0.1065
220.373	0.105
220.739	0.1286
221.105	0.1367
221.471	0.14
221.837	0.1402
222.203	0.1678
222.569	0.1984
222.935	0.2314
223.3	0.2209
223.666	0.2602
224.031	0.2775
224.397	0.2713
224.762	0.3237
225.127	0.3363
225.493	0.3533
225.858	0.3707
226.223	0.4031
226.588	0.4131
226.952	0.4573
227.317	0.455
227.682	0.4737
228.046	0.4756
228.411	0.4955
228.775	0.5153
229.14	0.5455
229.504	0.5606
229.868	0.5563
230.232	0.5655
230.596	0.5983
230.96	0.6066
231.324	0.5892
231.688	0.6031
232.052	0.6353
232.415	0.6233
232.779	0.6434
233.142	0.6479
233.505	0.6512
233.869	0.6572
234.232	0.6491
234.595	0.642
234.958	0.6567
235.321	0.6539
235.684	0.6587
236.047	0.653
236.409	0.6558
236.772	0.6525
237.134	0.6637
237.497	0.6555
237.859	0.6536
238.222	0.6574
238.584	0.6517
238.946	0.6509
239.308	0.6481
239.67	0.6435
240.032	0.6409
240.393	0.6368
240.755	0.6315
241.117	0.6347
241.478	0.6282
241.84	0.6361
242.201	0.6238
242.562	0.6175
242.924	0.6142
243.285	0.6213
243.646	0.6158
244.007	0.6159
244.368	0.612
244.728	0.6111
245.089	0.6134
245.45	0.6033
245.81	0.6107
246.171	0.6064
246.531	0.5981
246.891	0.5975
247.252	0.6022
247.612	0.5942
247.972	0.6083
248.332	0.5967
248.692	0.5971
249.051	0.5974
249.411	0.595
249.771	0.584
250.13	0.5833
250.49	0.5915
250.849	0.5815
251.208	0.5829
251.568	0.5823
251.927	0.5862
252.286	0.5821
252.645	0.5794
253.004	0.5799
253.363	0.5824
253.721	0.583
254.08	0.5801
254.439	0.5744
254.797	0.5704
255.155	0.5727
255.514	0.5696
255.872	0.5715
256.23	0.5688
256.588	0.5713
256.946	0.569
257.304	0.5646
257.662	0.5657
258.02	0.5641
258.377	0.5651
258.735	0.5579
259.093	0.5565
259.45	0.5614
259.807	0.5531
260.165	0.5521
260.522	0.5577
260.879	0.5483
261.236	0.5537
261.593	0.5506
261.95	0.5502
262.306	0.5376
262.663	0.5404
263.02	0.54
263.376	0.5341
263.733	0.5336
264.089	0.5344
264.445	0.5255
264.802	0.5288
265.158	0.5284
265.514	0.5239
265.87	0.5225
266.226	0.5205
266.581	0.5161
266.937	0.5158
267.293	0.5127
267.648	0.5082
268.004	0.5018
268.359	0.5014
268.714	0.5007
269.07	0.4979
269.425	0.4961
269.78	0.4885
270.135	0.4891
270.49	0.4866
270.844	0.4853
271.199	0.4816
271.554	0.477
271.908	0.4721
272.263	0.4742
272.617	0.4666
272.972	0.4645
273.326	0.4672
273.68	0.4566
274.034	0.4548
274.388	0.4491
274.742	0.4513
275.096	0.4448
275.45	0.4453
275.803	0.4379
276.157	0.4367
276.51	0.4317
276.864	0.4307
277.217	0.4223
277.571	0.4228
277.924	0.4154
278.277	0.412
278.63	0.4092
278.983	0.4039
279.336	0.4003
279.688	0.3962
280.041	0.3926
280.394	0.3916
280.746	0.3874
281.099	0.3856
281.451	0.3785
281.803	0.3717
282.156	0.3703
282.508	0.3659
282.86	0.3643
283.212	0.3563
283.564	0.3555
283.916	0.353
284.267	0.3475
284.619	0.3429
284.971	0.3407
285.322	0.3365
285.673	0.3325
286.025	0.3262
286.376	0.325
286.727	0.3212
287.078	0.3158
287.429	0.312
287.78	0.3105
288.131	0.3053
288.482	0.3002
288.833	0.2968
289.183	0.2919
289.534	0.2876
289.884	0.2852
290.235	0.2824
290.585	0.2768
290.935	0.2726
291.285	0.2689
291.635	0.2663
291.985	0.2628
292.335	0.2587
292.685	0.2577
293.035	0.2538
293.384	0.248
293.734	0.2458
294.083	0.2432
294.433	0.2371
294.782	0.2352
295.131	0.2309
295.48	0.2258
295.829	0.2229
296.179	0.2206
296.527	0.2169
296.876	0.2143
297.225	0.2108
297.574	0.206
297.922	0.2045
298.271	0.2012
298.619	0.1978
298.968	0.1944
299.316	0.1921
299.664	0.189
300.012	0.1879
300.36	0.1837
300.708	0.1812
301.056	0.1794
301.404	0.1754
301.752	0.1751
302.099	0.1712
302.447	0.1676
302.794	0.1663
303.142	0.1652
303.489	0.1619
303.836	0.1605
304.183	0.1591
304.531	0.1565
304.878	0.156
305.224	0.1546
305.571	0.1516
305.918	0.1504
306.265	0.1485
306.611	0.1476
306.958	0.1473
307.304	0.1444
307.651	0.1444
307.997	0.1429
308.343	0.1425
308.689	0.1413
309.035	0.1398
309.381	0.1398
309.727	0.1387
310.073	0.1383
310.419	0.1383
310.764	0.1365
311.11	0.1366
311.455	0.1365
311.801	0.137
312.146	0.135
312.491	0.1352
312.837	0.135
313.182	0.1352
313.527	0.1353
313.872	0.1345
314.216	0.1355
314.561	0.1352
314.906	0.135
315.251	0.1362
315.595	0.137
315.94	0.1372
316.284	0.1376
316.628	0.1376
316.972	0.1385
317.317	0.1389
317.661	0.1388
318.005	0.1397
318.348	0.1416
318.692	0.142
319.036	0.1425
319.38	0.1426
319.723	0.1438
320.067	0.1454
320.41	0.1459
320.754	0.1473
321.097	0.1482
321.44	0.1489
321.783	0.1509
322.126	0.1521
322.469	0.1527
322.812	0.1542
323.155	0.156
323.498	0.1558
323.84	0.1586
324.183	0.1603
324.525	0.1617
324.868	0.1631
325.21	0.1636
325.552	0.1661
325.894	0.1663
326.236	0.1679
326.578	0.1697
326.92	0.1718
327.262	0.1732
327.604	0.1748
327.946	0.1763
328.287	0.1781
328.629	0.1804
328.97	0.1812
329.312	0.1822
329.653	0.1842
329.994	0.186
330.335	0.1875
330.676	0.1894
331.017	0.1916
331.358	0.1932
331.699	0.1942
332.04	0.1964
332.38	0.1988
332.721	0.1988
333.061	0.202
333.402	0.2036
333.742	0.2052
334.083	0.2066
334.423	0.2079
334.763	0.2087
335.103	0.2105
335.443	0.212
335.783	0.2133
336.123	0.2146
336.462	0.2162
336.802	0.2182
337.141	0.2192
337.481	0.2203
337.82	0.2212
338.16	0.223
338.499	0.2252
338.838	0.2262
339.177	0.2274
339.516	0.2294
339.855	0.2302
340.194	0.2316
340.533	0.2326
340.872	0.2339
341.21	0.2342
341.549	0.236
341.887	0.237
342.226	0.2368
342.564	0.2382
342.902	0.239
343.24	0.2398
343.578	0.2394
343.916	0.241
344.254	0.2412
344.592	0.2413
344.93	0.242
345.268	0.2414
345.605	0.242
345.943	0.243
346.28	0.2431
346.618	0.2435
346.955	0.2439
347.292	0.2442
347.629	0.2445
347.966	0.2441
348.303	0.2444
348.64	0.2453
348.977	0.2453
349.314	0.2469
349.65	0.2451
349.987	0.2462
350.324	0.2462
350.66	0.2455
350.996	0.2444
351.333	0.2452
351.669	0.2441
352.005	0.2436
352.341	0.242
352.677	0.2418
353.013	0.2424
353.349	0.2403
353.685	0.2391
354.02	0.2377
354.356	0.2366
354.691	0.2359
355.027	0.2349
355.362	0.2347
355.697	0.2339
356.033	0.2335
356.368	0.2319
356.703	0.2308
357.038	0.231
357.373	0.229
357.707	0.2284
358.042	0.2274
358.377	0.2272
358.711	0.2253
359.046	0.2245
359.38	0.2238
359.715	0.2233
360.049	0.2221
360.383	0.2211
360.717	0.2195
361.051	0.218
361.385	0.2168
361.719	0.2144
362.053	0.213
362.387	0.2111
362.72	0.2096
363.054	0.208
363.387	0.2065
363.721	0.2047
364.054	0.2022
364.387	0.2005
364.721	0.1994
365.054	0.1972
365.387	0.1957
365.72	0.1938
366.053	0.1923
366.385	0.1907
366.718	0.1887
367.051	0.1874
367.383	0.1864
367.716	0.1852
368.048	0.1837
368.381	0.1816
368.713	0.1809
369.045	0.1803
369.377	0.178
369.709	0.1772
370.041	0.1763
370.373	0.1743
370.705	0.1723
371.037	0.1711
371.368	0.1693
371.7	0.1693
372.031	0.1656
372.363	0.1642
372.694	0.1613
373.025	0.1603
373.356	0.1581
373.688	0.1561
374.019	0.1541
374.35	0.1526
374.68	0.1499
375.011	0.1488
375.342	0.1456
375.673	0.1446
376.003	0.1422
376.334	0.1403
376.664	0.1387
376.995	0.1376
377.325	0.1355
377.655	0.1335
377.985	0.1328
378.315	0.131
378.645	0.1301
378.975	0.1289
379.305	0.127
379.635	0.1262
379.964	0.1253
380.294	0.1226
380.623	0.1227
380.953	0.121
381.282	0.1192
381.611	0.1179
381.941	0.1163
382.27	0.1149
382.599	0.1139
382.928	0.1116
383.257	0.1105
383.585	0.1091
383.914	0.1082
384.243	0.1059
384.571	0.1049
384.9	0.1021
385.228	0.1009
385.557	0.0992
385.885	0.0973
386.213	0.0958
386.541	0.0942
386.869	0.0931
387.197	0.0912
387.525	0.0897
387.853	0.0883
388.181	0.0868
388.508	0.0847
388.836	0.0832
389.164	0.0816
389.491	0.0814
389.818	0.0796
390.146	0.079
390.473	0.0785
390.8	0.0771
391.127	0.0758
391.454	0.0738
391.781	0.0729
392.108	0.0716
392.435	0.0704
392.761	0.0699
393.088	0.0688
393.415	0.0681
393.741	0.0672
394.067	0.0663
394.394	0.0659
394.72	0.0646
395.046	0.0643
395.372	0.0633
395.698	0.063
396.024	0.0616
396.35	0.0606
396.676	0.0592
397.001	0.0585
397.327	0.0578
397.653	0.0565
397.978	0.055
398.303	0.0555
398.629	0.0528
398.954	0.0523
399.279	0.052
399.604	0.052
399.929	0.0509
400.254	0.0504
400.579	0.0499
400.904	0.0496
401.229	0.048
401.553	0.0477
401.878	0.0475
402.202	0.0467
402.527	0.0458
402.851	0.0455
403.175	0.0449
403.5	0.0446
403.824	0.0446
404.148	0.0443
404.472	0.0427
404.796	0.0427
405.119	0.0426
405.443	0.0424
405.767	0.0412
406.09	0.0414
406.414	0.0411
406.737	0.0414
407.061	0.0409
407.384	0.0411
407.707	0.0404
408.03	0.0394
408.353	0.041
408.676	0.0406
408.999	0.0393
409.322	0.04
409.645	0.0393
409.968	0.0394
410.29	0.0391
410.613	0.0392
410.935	0.0391
411.258	0.0387
411.58	0.0387
411.902	0.0389
412.224	0.0382
412.546	0.0383
412.868	0.0386
413.19	0.0382
413.512	0.0381
413.834	0.0376
414.156	0.0379
414.477	0.0383
414.799	0.0378
415.121	0.0385
415.442	0.0382
415.763	0.0377
416.085	0.038
416.406	0.0386
416.727	0.0381
417.048	0.0378
417.369	0.0379
417.69	0.0372
418.011	0.0378
418.331	0.0379
418.652	0.0385
418.973	0.0379
419.293	0.0383
419.614	0.038
419.934	0.0391
420.254	0.038
420.574	0.0389
420.895	0.0385
421.215	0.0381
421.535	0.0376
421.855	0.0376
422.174	0.038
422.494	0.0376
422.814	0.0374
423.134	0.0378
423.453	0.0385
423.773	0.0378
424.092	0.038
424.411	0.0376
424.731	0.0383
425.05	0.0377
425.369	0.0383
425.688	0.0381
426.007	0.0379
426.326	0.0381
426.644	0.0383
426.963	0.0386
427.282	0.0381
427.6	0.0383
427.919	0.0378
428.237	0.0379
428.556	0.0381
428.874	0.0383
429.192	0.0389
429.51	0.0387
429.828	0.0379
430.146	0.0388
430.464	0.0379
430.782	0.0382
431.1	0.0383
431.418	0.038
431.735	0.0377
432.053	0.0388
432.37	0.0386
432.688	0.0383
433.005	0.038
433.322	0.0389
433.639	0.0391
433.957	0.0389
434.274	0.0381
434.591	0.0386
434.907	0.0382
435.224	0.0389
435.541	0.0388
435.858	0.0396
436.174	0.0396
436.491	0.0386
436.807	0.0375
437.124	0.0379
437.44	0.0384
437.756	0.038
438.072	0.0382
438.388	0.0389
438.704	0.0387
439.02	0.0381
439.336	0.0384
439.652	0.0381
439.968	0.0371
440.283	0.0376
440.599	0.0377
440.914	0.0381
441.23	0.0381
441.545	0.0375
441.86	0.0374
442.175	0.0379
442.491	0.0378
442.806	0.0379
443.121	0.0375
443.435	0.0374
443.75	0.0371
444.065	0.0372
444.38	0.0367
444.694	0.0375
445.009	0.037
445.323	0.0374
445.638	0.0355
445.952	0.0371
446.266	0.037
446.58	0.0371
446.894	0.0375
447.208	0.0369
447.522	0.0364
447.836	0.0363
448.15	0.0359
448.464	0.0362
448.777	0.0363
449.091	0.0358
449.404	0.0362
449.718	0.0357
450.031	0.0356
450.345	0.0354
450.658	0.0358
450.971	0.0355
451.284	0.0351
451.597	0.0351
451.91	0.0351
452.223	0.0351
452.535	0.0343
452.848	0.035
453.161	0.0344
453.473	0.034
453.786	0.0344
454.098	0.0337
454.411	0.0344
454.723	0.0333
455.035	0.0334
455.347	0.0325
455.659	0.0331
455.971	0.0338
456.283	0.0329
456.595	0.0324
456.907	0.0332
457.218	0.0329
457.53	0.0315
457.841	0.0326
458.153	0.0327
458.464	0.0325
458.776	0.0324
459.087	0.0319
459.398	0.032
459.709	0.0315
460.02	0.0313
460.331	0.0308
460.642	0.0315
460.953	0.0303
461.263	0.0304
461.574	0.0297
461.885	0.0298
462.195	0.0295
462.506	0.03
462.816	0.0297
463.126	0.0299
463.437	0.0296
463.747	0.0289
464.057	0.0289
464.367	0.0288
464.677	0.0288
464.987	0.0282
465.296	0.0279
465.606	0.027
465.916	0.0277
466.225	0.0277
466.535	0.0272
466.844	0.0275
467.154	0.0278
467.463	0.0265
467.772	0.0264
468.081	0.0267
468.39	0.0259
468.699	0.026
469.008	0.0248
469.317	0.0254
469.626	0.0251
469.935	0.0251
470.243	0.025
470.552	0.0251
470.86	0.0249
471.169	0.0248
471.477	0.0247
471.785	0.0245
472.093	0.0242
472.402	0.023
472.71	0.0243
473.018	0.0234
473.326	0.0227
473.633	0.0223
473.941	0.0228
474.249	0.023
474.556	0.0231
474.864	0.0229
475.171	0.0217
475.479	0.0217
475.786	0.0217
476.094	0.0208
476.401	0.0212
476.708	0.021
477.015	0.0207
477.322	0.0211
477.629	0.0205
477.936	0.0204
478.242	0.0202
478.549	0.0203
478.856	0.0203
479.162	0.0193
479.469	0.02
479.775	0.0197
480.081	0.0186
480.388	0.0181
480.694	0.0187
481	0.0176
481.306	0.0181
481.612	0.0183
481.918	0.0174
482.224	0.0178
482.53	0.0173
482.835	0.0176
483.141	0.0169
483.446	0.0171
483.752	0.0164
484.057	0.0165
484.363	0.015
484.668	0.0159
484.973	0.0152
485.278	0.0152
485.583	0.0153
485.888	0.0151
486.193	0.0137
486.498	0.0134
486.803	0.014
487.107	0.0142
487.412	0.0136
487.717	0.0136
488.021	0.0137
488.325	0.0146
488.63	0.0141
488.934	0.0143
489.238	0.0138
489.542	0.0122
489.846	0.0128
490.15	0.0129
490.454	0.0113
490.758	0.0119
491.062	0.0122
491.366	0.0117
491.669	0.0121
491.973	0.0128
492.276	0.0115
492.58	0.0121
492.883	0.0112
493.186	0.0106
493.489	0.0105
493.792	0.01
494.096	0.0096
494.399	0.0103
494.701	0.0098
495.004	0.0093
495.307	0.0096
495.61	0.0088
495.912	0.0099
496.215	0.0088
496.517	0.0084
496.82	0.0083
497.122	0.0079
497.424	0.0086
497.727	0.0079
498.029	0.0074
498.331	0.0079
498.633	0.008
498.935	0.008
499.237	0.0077
499.538	0.0068
499.84	0.0068
500.142	0.0072
500.443	0.007
500.745	0.0067
501.046	0.0057
501.348	0.0064
501.649	0.0054
501.95	0.0049
502.251	0.0056
502.552	0.006
502.853	0.0055
503.154	0.0055
503.455	0.0047
503.756	0.0056
504.057	0.0059
504.357	0.0039
504.658	0.0061
504.958	0.0053
505.259	0.0046
505.559	0.0045
505.859	0.0045
506.16	0.005
506.46	0.004
506.76	0.0051
507.06	0.0043
507.36	0.004
507.66	0.0042
507.96	0.0052
508.259	0.0039
508.559	0.0037
508.859	0.0042
509.158	0.0034
509.457	0.003
509.757	0.0034
510.056	0.003
510.355	0.0036
510.655	0.0027
510.954	0.0031
511.253	0.0034
511.552	0.0024
511.851	0.0033
512.149	0.0014
512.448	0.0019
512.747	0.0023
513.045	0.0018
513.344	0.0008
513.642	0.002
513.941	0.0021
514.239	0.0024
514.537	0.0005
514.836	0.001
515.134	0.001
515.432	0.0025
515.73	0.0011
516.028	0.0017
516.326	0.0016
516.623	0.0014
516.921	-0.0002
517.219	0.001
517.516	0.0016
517.814	0.0012
518.111	0.001
518.409	0.0003
518.706	0.0017
519.003	0.0006
519.3	0.0004
519.597	-0.0003
519.894	0.0009
520.191	0.0011
520.488	0.001
520.785	-0
521.082	0.0005
521.378	-0.0003
521.675	0
521.971	-0.0005
522.268	0.0008
522.564	0.0005
522.861	0.0013
523.157	0.0001
523.453	0.0017
523.749	0.0005
524.045	-0
524.341	0.0007
524.637	-0.0008
524.933	0.0005
525.229	-0.0003
525.524	-0.0006
525.82	-0.0009
526.115	-0.0004
526.411	0.0003
526.706	-0.0005
527.002	0.0002
527.297	-0.0003
527.592	-0.0002
527.887	0.0004
528.182	0.0004
528.477	0.001
528.772	-0.0004
529.067	-0.0008
529.362	-0.0008
529.657	-0.0006
529.951	-0
530.246	-0.0007
530.54	-0.0009
530.835	-0
531.129	-0.0001
531.423	-0.0005
531.718	-0.001
532.012	-0.0006
532.306	-0.0007
532.6	-0.0011
532.894	-0.0003
533.188	-0.0006
533.482	-0.0007
533.775	-0.0002
534.069	-0.0001
534.363	-0.0007
534.656	-0.0022
534.95	-0.0009
535.243	-0.0013
535.536	-0.0005
535.83	-0.0019
536.123	-0.0017
536.416	-0.0005
536.709	-0.0014
537.002	-0.0014
537.295	-0.0024
537.588	-0.0019
537.881	-0.0013
538.173	-0.0016
538.466	-0.0015
538.759	-0.0016
539.051	-0.001
539.344	-0.0016
539.636	-0.0016
539.928	0.0001
540.22	-0.0001
540.513	-0.0004
540.805	-0.0008
541.097	-0.0013
541.389	-0.0012
541.681	-0.0008
541.972	0.0004
542.264	0
542.556	0.0002
542.847	0.0011
543.139	0.0001
543.431	-0.0004
543.722	-0.0003
544.013	0.0005
544.305	-0.0005
544.596	-0.0016
544.887	-0.0007
545.178	-0.0009
545.469	-0.0022
545.76	-0.0009
546.051	-0.0002
546.342	-0.0007
546.632	-0.0007
546.923	-0.0014
547.214	-0.0013
547.504	-0.0013
547.795	-0.0017
548.085	-0.0022
548.375	-0.0024
548.666	-0.0014
548.956	-0.0006
549.246	0
549.536	-0.0001
549.826	-0.0006
550.116	-0.0005
550.406	-0.0014
550.695	-0.0019
550.985	-0.0003
551.275	-0.0002
551.564	-0.0011
551.854	0.0004
552.143	-0.0015
552.433	-0.0017
552.722	-0.0028
553.011	0.0006
553.3	-0
553.589	-0.001
553.879	-0.0002
554.167	-0.0009
554.456	-0.0003
554.745	-0.0004
555.034	-0.0013
555.323	0.0003
555.611	-0.0004
555.9	-0.0003
556.188	-0.002
556.477	-0.0008
556.765	-0.0009
557.053	-0.0005
557.342	0.0003
557.63	0.0001
557.918	-0.0001
558.206	-0.0004
558.494	0.0003
558.782	0.0007
559.069	0.001
559.357	0.0017
559.645	0.0003
559.932	0.0008
560.22	-0.0007
560.507	-0.0015
560.795	-0.0015
561.082	-0.0022
561.37	-0
561.657	-0.001
561.944	-0.0003
562.231	-0.0004
562.518	-0.0009
562.805	0.0002
563.092	0.0004
563.379	0.0001
563.665	0
563.952	-0.0001
564.239	0.0008
564.525	0.0002
564.811	0.0013
565.098	-0.0006
565.384	0
565.67	0.001
565.957	0.0021
566.243	0.0017
566.529	0.0005
566.815	0.0001
567.101	0.0017
567.387	0.0006
567.672	-0.0001
567.958	0.0013
568.244	0.0002
568.529	0.0008
568.815	-0.0004
569.1	-0.0002
569.386	-0.0005
569.671	0.0002
569.956	-0.0001
570.242	-0.0005
570.527	-0.0004
570.812	-0.0003
571.097	0.0005
571.382	-0.0012
571.666	0.0001
571.951	-0.0007
572.236	-0.0011
572.521	0.0001
572.805	-0.0001
573.09	0.0005
573.374	-0.0009
573.659	-0.0009
573.943	-0.0008
574.227	-0.0009
574.511	-0.0012
574.795	-0.0009
575.079	-0.0001
575.363	-0.0017
575.647	-0.0007
575.931	0.0003
576.215	-0.0016
576.499	-0.0009
576.782	-0.0009
577.066	-0.0006
577.349	-0.0002
577.633	-0.001
577.916	-0.0011
578.2	-0.0011
578.483	-0.0011
578.766	-0.0002
579.049	-0.0008
579.332	0.0004
579.615	0.0003
579.898	-0.001
580.181	-0
580.464	0.0006
580.746	0.0001
581.029	-0.0008
581.312	-0.0011
581.594	-0.002
581.877	-0.002
582.159	-0.0018
582.441	-0.0011
582.724	-0.0009
583.006	0.0001
583.288	0.0001
583.57	0.0003
583.852	0.0006
584.134	0.0005
584.416	-0.0004
584.697	-0.0006
584.979	-0.0021
585.261	-0.0023
585.542	-0.0019
585.824	-0.0019
586.105	-0.0019
586.387	-0.0018
586.668	-0.0011
586.949	-0.0005
587.231	-0.0001
587.512	-0.0002
587.793	-0.0006
588.074	-0.0009
588.355	-0.0003
588.636	-0.0006
588.916	-0.001
589.197	-0.0004
589.478	-0.0008
589.758	0.0005
590.039	-0.0002
590.319	0.0005
590.6	0.0005
590.88	0.0005
591.16	0.001
591.441	0.0018
591.721	0.0003
592.001	-0.0002
592.281	-0.0006
592.561	0.0001
592.841	-0.0003
593.12	-0.003
593.4	-0.0015
593.68	-0.0024
593.959	-0.0016
594.239	-0.0016
594.518	-0.0001
594.798	0.0008
595.077	-0.0012
595.356	-0.0007
595.636	-0.0013
595.915	0.0006
596.194	-0.0001
596.473	0.0003
596.752	0.0004
597.031	-0.0001
597.31	-0.0001
597.588	-0.0004
597.867	-0
598.146	-0.0009
598.424	0.0011
598.703	0.0002
598.981	-0.0019
599.259	-0.0019
599.538	-0.0014
599.816	-0.0007
600.094	-0.0009
600.372	-0.0024
600.65	-0.0013
600.928	-0.0009
601.206	-0.0002
601.484	-0.0007
601.762	0.0005
602.04	0.0001
602.317	-0.0005
602.595	0.0001
602.872	0.0003
603.15	0.0002
603.427	-0.0013
603.704	-0.0015
603.982	-0.0012
604.259	-0.0009
604.536	-0.0001
604.813	-0
605.09	-0.0003
605.367	-0.001
605.644	-0.0015
605.921	-0.0011
606.197	-0.0011
606.474	-0.0006
606.751	-0.0005
607.027	-0.001
607.304	-0.0011
607.58	-0.0012
607.856	-0.0019
608.133	-0.0017
608.409	-0.0002
608.685	-0.0014
608.961	-0.0005
609.237	0.0002
609.513	-0.0008
609.789	0
610.065	-0.0004
610.341	-0.0007
610.616	0.0002
610.892	0.0008
611.167	0.0013
611.443	0.0006
611.718	0.0005
611.994	0.0007
612.269	0.0011
612.544	0
612.819	0
613.095	-0.0007
613.37	0.0012
613.645	-0.0003
613.919	-0.0011
614.194	0.0004
614.469	0.0009
614.744	-0.0006
615.019	-0.0012
615.293	-0.0011
615.568	-0.0008
615.842	-0.0006
616.116	0.0012
616.391	0.0018
616.665	0.0007
616.939	0.0007
617.213	0.0012
617.488	0.0013
617.762	0.0012
618.035	-0
618.309	-0.0003
618.583	0.0013
618.857	0.0021
619.131	0.0018
619.404	0.002
619.678	0.002
619.951	0.0004
620.225	-0.0001
620.498	0.0004
620.771	0.0009
621.045	0.0004
621.318	-0.0003
621.591	-0.0002
621.864	-0.0011
622.137	-0.0012
622.41	-0.0013
622.683	0.0009
622.956	0.0002
623.228	0.0014
623.501	0.0006
623.774	0.0015
624.046	0.0015
624.319	-0
624.591	-0.0001
624.863	0.0001
625.136	0.0017
625.408	0.0018
625.68	0.0009
625.952	0.0018
626.224	0.0027
626.496	0.0028
626.768	0.0019
627.04	0.0019
627.311	0
627.583	0.001
627.855	0.0026
628.126	0.0028
628.398	0.0025
628.669	0.0039
628.941	0.0037
629.212	0.0026
629.483	0.0019
629.755	0.0013
630.026	0.0018
630.297	0.0032
630.568	0.002
630.839	0.0026
631.11	0.0028
631.38	0.0029
631.651	0.0032
631.922	0.0023
632.192	0.0022
632.463	0.0018
632.733	0.0022
633.004	0.0028
633.274	0.0031
633.545	0.0044
633.815	0.0029
634.085	0.0013
634.355	-0
634.625	-0.0002
634.895	0.0006
635.165	0.0006
635.435	0.0005
635.705	0.0008
635.974	0.0006
636.244	0.0015
636.514	0.0024
636.783	0.0009
637.053	0.0011
637.322	0.0025
637.591	0.002
637.861	0.0013
638.13	0.002
638.399	0.0007
638.668	0.0013
638.937	0.0007
639.206	0.001
639.475	0.0012
639.744	0.0006
640.013	0.0024
640.281	0.0024
640.55	0.0017
640.819	0.0019
641.087	0.0026
641.356	0.0028
641.624	0.0042
641.892	0.0044
642.161	0.0038
642.429	0.0026
642.697	0.0026
642.965	0.0028
643.233	0.0015
643.501	0.0012
643.769	0.0021
644.037	0.0025
644.305	0.0025
644.572	0.0018
644.84	0.0011
645.108	0.0006
645.375	-0.0005
645.643	0.0004
645.91	0.0025
646.177	0.0043
646.445	0.0034
646.712	0.0047
646.979	0.0037
647.246	0.0056
647.513	0.005
647.78	0.004
648.047	0.003
648.314	0.0003
648.58	0.001
648.847	0.0021
649.114	0.0024
649.38	0.0024
649.647	0.0011
649.913	0.0017
650.18	0.0023
650.446	0.0037
650.712	0.0022
650.978	0.0012
651.245	0.0014
651.511	0.0008
651.777	0.0023
652.043	0.0014
652.309	0.0021
652.574	0.0035
652.84	0.0032
653.106	0.0031
653.371	0.0033
653.637	0.0032
653.903	0.0042
654.168	0.0054
654.433	0.0064
654.699	0.0066
654.964	0.0057
655.229	0.0044
655.494	0.0025
655.759	-0.0027
656.024	0.0002
656.289	-0
656.554	-0.0017
656.819	-0.0004
657.084	0.002
657.349	0.0028
657.613	0.0019
657.878	0.0024
658.142	0.0025
658.407	0.0018
658.671	0.0031
658.936	0.0019
659.2	0.0028
659.464	0.0029
659.728	0.0032
659.992	0.0023
660.256	0.0022
660.52	0.0023
660.784	0.0014
661.048	0.0019
661.312	0.0027
661.575	0.0026
661.839	0.0037
662.103	0.0022
662.366	0.0033
662.63	0.0023
662.893	0.0015
663.156	0.0014
663.42	0.0007
663.683	-0.0003
663.946	-0.0006
664.209	0.0001
664.472	-0.0011
664.735	-0.0004
664.998	0.0013
665.261	0.0003
665.524	-0
665.786	0.0013
666.049	0.001
666.312	0.0013
666.574	0.0001
666.837	0.0019
667.099	0.0022
667.361	0.0015
667.624	0.0018
667.886	0.0012
668.148	0.0012
668.41	0.001
668.672	-0.0001
668.934	0.0021
669.196	0.0016
669.458	0.0018
669.72	0.0013
669.982	0.0024
670.243	0.0024
670.505	0.002
670.766	0.0032
671.028	0.0021
671.289	0.0017
671.551	0.0015
671.812	-0.0006
672.073	0.0007
672.334	0.0009
672.596	0.0005
672.857	0.0004
673.118	0.0014
673.379	0.0008
673.639	0.001
673.9	0.0006
674.161	0.0016
674.422	0.001
674.682	0.001
674.943	0.0007
675.203	0.0011
675.464	-0.0001
675.724	-0.0009
675.985	-0.0001
676.245	-0.0006
676.505	0.0005
676.765	0
677.025	0.001
677.285	0.0012
677.545	0.0023
677.805	0.0017
678.065	0.0008
678.325	0.0021
678.585	0.0018
678.844	-0.0002
679.104	0.0004
679.363	-0.0012
679.623	-0.0007
679.882	-0.0003
680.142	0.0009
680.401	0.0009
680.66	0.003
680.919	0.0043
681.178	0.0042
681.437	0.0025
681.696	0.0011
681.955	0.0021
682.214	0.0021
682.473	0.002
682.732	0.0014
682.99	0.0014
683.249	0.0027
683.508	0.0016
683.766	0.0001
684.024	0.0007
684.283	0.0015
684.541	0.0008
684.799	0.001
685.058	0.0015
685.316	-0.0003
685.574	-0.001
685.832	0
686.09	0.0003
686.348	-0.0007
686.606	-0.0011
686.863	0.0002
687.121	0.0011
687.379	0.0014
687.636	0.0005
687.894	0.0024
688.151	0.0031
688.409	0.0021
688.666	0
688.923	-0.0001
689.181	0.0001
689.438	0.0004
689.695	0.0003
689.952	-0.0014
690.209	-0.0007
690.466	0.0001
690.723	0.0013
690.979	0.001
691.236	0.0002
691.493	0.0007
691.75	0.0012
692.006	0.0019
692.263	0.0016
692.519	0.0007
692.775	0.001
693.032	0.0008
693.288	0.0008
693.544	0.0007
693.8	0.0016
694.056	0.0011
694.313	0.0015
694.568	0.0013
694.824	0.001
695.08	0
695.336	-0.0011
695.592	-0.0022
695.847	0.0004
696.103	0.0006
696.359	0.0006
696.614	0.0007
696.869	0.0002
697.125	-0.0033
697.38	-0.0018
697.635	-0.0005
697.891	0.0009
698.146	0.0014
698.401	0.0013
698.656	0.0012
698.911	0.0015
699.166	0.0019
699.42	0.003
699.675	0.0021
699.93	0.0021
700.185	0.0016
700.439	0.0016
700.694	0.002
700.948	0.0019
701.203	0.0013
701.457	0.0005
701.711	-0.0004
701.965	-0.0005
702.22	-0.0013
702.474	-0.0004
702.728	-0.0013
702.982	-0.0017
703.236	-0.0004
703.49	0.0005
703.743	-0.0003
703.997	-0
704.251	-0.0008
704.504	0
704.758	-0.0015
705.012	0.0006
705.265	0.0011
705.518	0.0022
705.772	0.0024
706.025	0.0019
706.278	0.0004
706.531	0.0002
706.785	-0.0008
707.038	-0.0012
707.291	-0.0003
707.543	-0.0013
707.796	-0.0011
708.049	-0.0015
708.302	-0.0019
708.555	-0.0019
708.807	-0.0017
709.06	-0.0022
709.312	-0.0021
709.565	-0.0015
709.817	-0.0021
710.069	-0.0019
710.322	-0.0018
710.574	-0.0024
710.826	-0.0019
711.078	-0.0021
711.33	-0.0014
711.582	-0.0026
711.834	-0.0017
712.086	-0.0019
712.338	-0.0022
712.59	-0.0023
712.841	-0.0042
713.093	-0.0033
713.344	-0.0029
713.596	-0.0031
713.847	-0.0011
714.099	-0.0007
714.35	-0.0015
714.601	-0.0016
714.853	-0.0007
715.104	-0.0006
715.355	-0.0002
715.606	-0.0004
715.857	0.0006
716.108	-0.0005
716.359	-0.0004
716.609	-0.0007
716.86	-0.0004
717.111	0.0001
717.361	0.0002
717.612	0.0009
717.863	0.0025
718.113	0.0034
718.363	0.0013
718.614	0.0026
718.864	0.0037
719.114	0.0027
719.364	0.0034
719.614	0.002
719.865	0.0038
720.114	0.005
720.364	0.0049
720.614	0.0044
720.864	0.0036
721.114	0.0029
721.364	0.0025
721.613	0.0022
721.863	0.0013
722.112	0.002
722.362	0.0005
722.611	0.001
722.86	0.0013
723.11	0.0011
723.359	0.0003
723.608	0.0005
723.857	0.0002
724.106	0.0014
724.355	0.0018
724.604	0.0024
724.853	0.0018
725.102	0.0009
725.351	0.0005
725.599	-0.0009
725.848	0.0001
726.097	0.001
726.345	0.0008
726.594	-0.0007
726.842	0.0003
727.09	-0.0018
727.339	-0.0027
727.587	-0.0027
727.835	-0.0023
728.083	-0.0013
728.331	-0.002
728.579	-0.0009
728.827	-0.0003
729.075	0.0008
729.323	-0
729.571	-0.0002
729.818	0.0002
730.066	-0.0001
730.314	0.0002
730.561	0.0018
730.809	0.0014
731.056	0.0003
731.303	0.0008
731.551	0.0013
731.798	0.001
732.045	0.0009
732.292	0.0024
732.539	0.0021
732.786	0.0029
733.033	0.0013
733.28	0.0014
733.527	0.0013
733.774	0.0005
734.021	-0.0011
734.267	-0.0013
734.514	-0.0019
734.76	-0.0017
735.007	-0.0015
735.253	-0.0017
735.5	-0.002
735.746	-0.0022
735.992	-0.0012
736.238	-0
736.485	0.0006
736.731	0.0022
736.977	0.001
737.223	0.001
737.469	0.0005
737.715	0.0017
737.96	0.0014
738.206	0.0011
738.452	0.0013
738.697	0.0013
738.943	-0.0001
739.189	-0.0003
739.434	-0.0004
739.679	-0.001
739.925	0.0001
740.17	-0
740.415	-0.0008
740.66	-0.0012
740.906	-0.0017
741.151	-0.0013
741.396	-0.0017
741.641	-0.0017
741.886	-0.0015
742.13	0.0003
742.375	-0
742.62	-0.0007
742.865	-0.0015
743.109	0.0004
743.354	0.0017
743.598	0.003
743.843	0.0034
744.087	0.0037
744.331	0.0046
744.576	0.0048
744.82	0.0058
745.064	0.0056
745.308	0.007
745.552	0.0058
745.796	0.0043
746.04	0.004
746.284	0.003
746.528	0.0035
746.771	0.0058
747.015	0.0056
747.259	0.0043
747.502	0.0032
747.746	0.003
747.989	0.0042
748.233	0.0039
748.476	0.0043
748.719	0.0051
748.963	0.0063
749.206	0.0057
749.449	0.0039
749.692	0.0031
749.935	0.0044
750.178	0.0033
750.421	0.0025
750.664	0.0022
750.906	0.0042
751.149	0.0049
751.392	0.0039
751.635	0.002
751.877	0.0028
752.12	0.0025
752.362	0.0015
752.604	0.0013
752.847	0.0033
753.089	0.0045
753.331	0.0048
753.573	0.0036
753.816	0.0023
754.058	0.0015
754.3	0.0005
754.542	0.0002
754.783	-0.0012
755.025	-0.0003
755.267	-0
755.509	-0.0002
755.75	-0.001
755.992	-0.0007
756.234	-0.0003
756.475	-0.0006
756.716	-0.0017
756.958	-0.0017
757.199	-0.0014
757.44	-0.0004
757.682	-0.0012
757.923	0.0003
758.164	0.0017
758.405	0.0021
758.646	0.0031
758.887	0.0036
759.128	0.0028
759.369	0.0015
759.609	0.0026
759.85	0.002
760.091	0.0042
760.331	0.0029
760.572	0.0006
760.812	0.0006
761.053	-0.0003
761.293	0.0004
761.533	0.0003
761.774	0.0024
762.014	0.0032
762.254	0.0024
762.494	0.0011
762.734	0.0013
762.974	0.001
763.214	0.0009
763.454	0.0008
763.694	0.0006
763.933	-0.0005
764.173	-0.002
764.413	-0.0034
764.652	-0.0033
764.892	-0.0033
765.131	-0.0031
765.371	-0.0024
765.61	-0.0019
765.849	-0.0025
766.089	-0.0011
766.328	0.0004
766.567	-0.0007
766.806	-0.0003
767.045	0.001
767.284	-0.0011
767.523	-0.0012
767.762	-0.0015
768.001	-0.0014
768.239	-0.0019
768.478	-0.0013
768.717	-0.0008
768.955	-0.0003
769.194	-0.0007
769.432	0.001
769.671	0.0015
769.909	0.0021
770.148	0.0019
770.386	0.0029
770.624	0.0037
770.862	0.0033
771.1	0.0051
771.338	0.0045
771.576	0.0026
771.814	0.0035
772.052	0.005
772.29	0.0054
772.528	0.0058
772.765	0.0062
773.003	0.0064
773.24	0.0064
773.478	0.0056
773.716	0.0056
773.953	0.0043
774.19	0.0051
774.428	0.0065
774.665	0.0065
774.902	0.0066
775.139	0.0061
775.376	0.0048
775.613	0.0052
775.85	0.0045
776.087	0.0038
776.324	0.003
776.561	0.0031
776.798	0.0021
777.034	0.0016
777.271	0.0026
777.508	0.0033
777.744	0.0043
777.981	0.0054
778.217	0.0052
778.454	0.0045
778.69	0.0035
778.926	0.0036
779.162	0.0031
779.399	0.0035
779.635	0.0035
779.871	0.0031
780.107	0.0037
780.343	0.0025
780.579	0.0028
780.814	0.0023
781.05	0.0032
781.286	0.0009
781.522	0.0016
781.757	0.0024
781.993	0.0031
782.228	0.0024
782.464	0.0031
782.699	0.0019
782.934	0.0013
783.17	0.0013
783.405	0.0018
783.64	0.0015
783.875	0.0005
784.11	0.0009
784.345	0.0022
784.58	0.0035
784.815	0.0038
785.05	0.002
785.285	0.0015
785.52	0.0007
785.754	-0.0001
785.989	-0.0003
786.223	-0.0018
786.458	-0.0015
786.692	-0.0003
786.927	-0.0001
787.161	0.001
787.396	0.0003
787.63	0.0003
787.864	-0.0012
788.098	-0.0019
788.332	-0.0026
788.566	-0.0026
788.8	-0.0019
789.034	-0.0015
789.268	-0.0008
789.502	-0.0003
789.736	0.0006
789.969	0.0008
790.203	0.0002
790.437	0.0002
790.67	-0.0017
790.904	-0.0019
791.137	-0.0026
791.37	-0.0033
791.604	-0.0048
791.837	-0.0046
792.07	-0.0036
792.303	-0.0035
792.537	-0.0032
792.77	-0.0025
793.003	-0.0022
793.236	-0.0024
793.469	-0.0021
793.701	-0.0011
793.934	0.0001
794.167	-0.0001
794.4	-0.0006
794.632	0.0011
794.865	0.0016
795.097	0.002
795.33	-0
795.562	0.0009
795.795	0.0018
796.027	0.0022
796.259	0.0023
796.491	0.0023
796.724	0.0019
796.956	0.003
797.188	0.0022
797.42	0.0024
797.652	0.0016
797.883	0.0019
798.115	0.0031
798.347	0.0034
798.579	0.0051
798.81	0.0051
799.042	0.0056
799.274	0.0044
799.505	0.0037
799.737	0.0042
799.968	0.0032
800.199	0.0023
800.431	0.0018
800.662	0.0024
800.893	0.002
801.124	0.0023
801.355	0.0013
801.586	0.0028
801.817	0.0017
802.048	0.0004
802.279	0.0005
802.51	0.0018
802.741	0.003
802.971	0.0024
803.202	0.0025
803.433	0.0021
803.663	0.0016
803.894	0.0013
804.124	0.0011
804.354	0.0015
804.585	0.0016
804.815	0.0024
805.045	0.0012
805.275	0.0039
805.506	-0.0481
805.736	-0.0079
805.966	0.0654
806.196	0.0861
