Data from 03 0.5 mM K2Cr2O7 0.3 mM BQDS 1 M H2SO4 5 min_Absorbance_0040.txt Node
Date: Mon Dec 13 20:59:45 EST 2021
User: kwabilab-user
Spectrometer: HDX00518
Trigger mode: 0
Integration Time (sec): 5.000000E-2
Scans to average: 50
Nonlinearity correction enabled: false
Boxcar width: 0
Storing dark spectrum: false
XAxis mode: Wavelengths
Number of Pixels in Spectrum: 2068
>>>>>Begin Spectral Data<<<<<
195.27	0.2323
195.642	0.2344
196.014	0.0732
196.386	0.3694
196.758	0.0245
197.129	0.0081
197.501	0.0058
197.872	0.0372
198.244	0.0528
198.615	0.0802
198.986	0.0542
199.357	0.059
199.728	0.0554
200.099	0.0715
200.47	0.0448
200.841	0.0527
201.212	0.0855
201.582	0.0739
201.953	0.0635
202.323	0.0817
202.694	0.0678
203.064	0.0516
203.434	0.0856
203.804	0.0596
204.174	0.0716
204.544	0.0711
204.914	0.0671
205.284	0.0591
205.653	0.064
206.023	0.0527
206.393	0.0443
206.762	0.0769
207.131	0.0858
207.501	0.0617
207.87	0.0848
208.239	0.0781
208.608	0.0811
208.977	0.0458
209.346	0.0675
209.715	0.0739
210.083	0.0366
210.452	0.0574
210.82	0.0656
211.189	0.0567
211.557	0.0814
211.925	0.0319
212.294	0.0595
212.662	0.0538
213.03	0.0499
213.398	0.092
213.766	0.0812
214.133	0.0684
214.501	0.0734
214.869	0.0796
215.236	0.0967
215.604	0.0802
215.971	0.0758
216.338	0.0967
216.705	0.0815
217.072	0.0932
217.439	0.08
217.806	0.0915
218.173	0.0974
218.54	0.0737
218.907	0.1286
219.273	0.1202
219.64	0.115
220.006	0.1288
220.373	0.1372
220.739	0.1499
221.105	0.1551
221.471	0.1762
221.837	0.2123
222.203	0.2104
222.569	0.2172
222.935	0.2504
223.3	0.2581
223.666	0.2825
224.031	0.3096
224.397	0.338
224.762	0.3446
225.127	0.3528
225.493	0.3992
225.858	0.4161
226.223	0.4568
226.588	0.4615
226.952	0.4933
227.317	0.5228
227.682	0.5242
228.046	0.5187
228.411	0.5574
228.775	0.597
229.14	0.5966
229.504	0.6102
229.868	0.6142
230.232	0.6202
230.596	0.6321
230.96	0.6743
231.324	0.6691
231.688	0.6616
232.052	0.6847
232.415	0.6888
232.779	0.7016
233.142	0.7026
233.505	0.7152
233.869	0.721
234.232	0.7259
234.595	0.7251
234.958	0.7332
235.321	0.7332
235.684	0.7467
236.047	0.7235
236.409	0.719
236.772	0.7342
237.134	0.7334
237.497	0.7339
237.859	0.7476
238.222	0.7411
238.584	0.727
238.946	0.7305
239.308	0.7293
239.67	0.7319
240.032	0.7337
240.393	0.7345
240.755	0.7253
241.117	0.713
241.478	0.7206
241.84	0.7214
242.201	0.7136
242.562	0.7189
242.924	0.7152
243.285	0.7079
243.646	0.7198
244.007	0.7111
244.368	0.7122
244.728	0.7132
245.089	0.7241
245.45	0.703
245.81	0.7156
246.171	0.7115
246.531	0.707
246.891	0.699
247.252	0.6977
247.612	0.7062
247.972	0.7097
248.332	0.7041
248.692	0.708
249.051	0.7078
249.411	0.7091
249.771	0.7031
250.13	0.7047
250.49	0.7038
250.849	0.7035
251.208	0.6965
251.568	0.7034
251.927	0.7106
252.286	0.7102
252.645	0.7117
253.004	0.7098
253.363	0.7061
253.721	0.7138
254.08	0.6946
254.439	0.6886
254.797	0.6979
255.155	0.6937
255.514	0.7073
255.872	0.703
256.23	0.6894
256.588	0.6983
256.946	0.6986
257.304	0.7021
257.662	0.7023
258.02	0.6973
258.377	0.6923
258.735	0.7019
259.093	0.6897
259.45	0.6944
259.807	0.6993
260.165	0.6939
260.522	0.6898
260.879	0.6879
261.236	0.6806
261.593	0.6872
261.95	0.674
262.306	0.6801
262.663	0.6728
263.02	0.6827
263.376	0.6746
263.733	0.6816
264.089	0.6726
264.445	0.6647
264.802	0.6687
265.158	0.664
265.514	0.6589
265.87	0.6585
266.226	0.6585
266.581	0.6593
266.937	0.6532
267.293	0.6509
267.648	0.6489
268.004	0.6443
268.359	0.6419
268.714	0.6389
269.07	0.6384
269.425	0.6361
269.78	0.6224
270.135	0.6262
270.49	0.6239
270.844	0.6244
271.199	0.6176
271.554	0.6118
271.908	0.6059
272.263	0.6106
272.617	0.6022
272.972	0.6048
273.326	0.5947
273.68	0.593
274.034	0.5925
274.388	0.5874
274.742	0.5831
275.096	0.5894
275.45	0.5765
275.803	0.5734
276.157	0.5689
276.51	0.5642
276.864	0.5574
277.217	0.5605
277.571	0.5514
277.924	0.5458
278.277	0.5434
278.63	0.5405
278.983	0.5328
279.336	0.5268
279.688	0.5244
280.041	0.5166
280.394	0.5188
280.746	0.5095
281.099	0.5046
281.451	0.4988
281.803	0.4979
282.156	0.4888
282.508	0.4836
282.86	0.4819
283.212	0.473
283.564	0.4677
283.916	0.4641
284.267	0.4589
284.619	0.457
284.971	0.4515
285.322	0.4486
285.673	0.4407
286.025	0.4366
286.376	0.4315
286.727	0.4265
287.078	0.4202
287.429	0.4154
287.78	0.4106
288.131	0.4087
288.482	0.4042
288.833	0.3939
289.183	0.3914
289.534	0.3887
289.884	0.3822
290.235	0.3794
290.585	0.3726
290.935	0.3701
291.285	0.3608
291.635	0.3603
291.985	0.3567
292.335	0.3506
292.685	0.3465
293.035	0.3419
293.384	0.3357
293.734	0.332
294.083	0.3281
294.433	0.3218
294.782	0.3199
295.131	0.3138
295.48	0.308
295.829	0.3038
296.179	0.3021
296.527	0.297
296.876	0.2927
297.225	0.2878
297.574	0.283
297.922	0.2797
298.271	0.2752
298.619	0.2716
298.968	0.2673
299.316	0.2626
299.664	0.2604
300.012	0.2576
300.36	0.2516
300.708	0.2488
301.056	0.246
301.404	0.2408
301.752	0.2402
302.099	0.2346
302.447	0.2326
302.794	0.2302
303.142	0.2268
303.489	0.2227
303.836	0.2204
304.183	0.2186
304.531	0.2164
304.878	0.2133
305.224	0.2123
305.571	0.2083
305.918	0.2072
306.265	0.2055
306.611	0.2024
306.958	0.2013
307.304	0.1982
307.651	0.1966
307.997	0.1966
308.343	0.1943
308.689	0.1929
309.035	0.1905
309.381	0.1908
309.727	0.189
310.073	0.1891
310.419	0.188
310.764	0.1857
311.11	0.1851
311.455	0.1852
311.801	0.1844
312.146	0.1838
312.491	0.1842
312.837	0.1826
313.182	0.1825
313.527	0.1822
313.872	0.1821
314.216	0.1818
314.561	0.182
314.906	0.182
315.251	0.1822
315.595	0.1826
315.94	0.1823
316.284	0.1827
316.628	0.184
316.972	0.1845
317.317	0.185
317.661	0.1849
318.005	0.1857
318.348	0.1863
318.692	0.1878
319.036	0.1876
319.38	0.1881
319.723	0.1895
320.067	0.1907
320.41	0.1917
320.754	0.1926
321.097	0.1934
321.44	0.1944
321.783	0.1963
322.126	0.1983
322.469	0.1993
322.812	0.1997
323.155	0.2017
323.498	0.2027
323.84	0.205
324.183	0.2058
324.525	0.2076
324.868	0.2102
325.21	0.2097
325.552	0.2129
325.894	0.2134
326.236	0.2153
326.578	0.2167
326.92	0.2185
327.262	0.2209
327.604	0.2224
327.946	0.2245
328.287	0.2257
328.629	0.2276
328.97	0.2295
329.312	0.231
329.653	0.2325
329.994	0.2345
330.335	0.2363
330.676	0.2393
331.017	0.2399
331.358	0.2435
331.699	0.2444
332.04	0.2467
332.38	0.2475
332.721	0.2492
333.061	0.2526
333.402	0.2536
333.742	0.256
334.083	0.2579
334.423	0.2585
334.763	0.2607
335.103	0.2618
335.443	0.2633
335.783	0.2655
336.123	0.2659
336.462	0.2686
336.802	0.2707
337.141	0.2714
337.481	0.273
337.82	0.2736
338.16	0.2747
338.499	0.2771
338.838	0.2787
339.177	0.2809
339.516	0.2819
339.855	0.284
340.194	0.2848
340.533	0.2858
340.872	0.287
341.21	0.2879
341.549	0.29
341.887	0.2908
342.226	0.2909
342.564	0.292
342.902	0.2924
343.24	0.2935
343.578	0.2939
343.916	0.2944
344.254	0.2947
344.592	0.2954
344.93	0.2958
345.268	0.2963
345.605	0.2954
345.943	0.2965
346.28	0.2975
346.618	0.2966
346.955	0.2976
347.292	0.2976
347.629	0.2988
347.966	0.2981
348.303	0.2987
348.64	0.2987
348.977	0.2975
349.314	0.2989
349.65	0.2983
349.987	0.299
350.324	0.299
350.66	0.2986
350.996	0.2971
351.333	0.2973
351.669	0.2971
352.005	0.2959
352.341	0.2954
352.677	0.2937
353.013	0.2933
353.349	0.2916
353.685	0.2907
354.02	0.2885
354.356	0.2875
354.691	0.2869
355.027	0.2852
355.362	0.2851
355.697	0.284
356.033	0.2828
356.368	0.2813
356.703	0.2807
357.038	0.2792
357.373	0.2775
357.707	0.277
358.042	0.2756
358.377	0.2751
358.711	0.2733
359.046	0.2721
359.38	0.2711
359.715	0.2702
360.049	0.2685
360.383	0.2676
360.717	0.266
361.051	0.2651
361.385	0.2631
361.719	0.2601
362.053	0.2582
362.387	0.2564
362.72	0.2541
363.054	0.2528
363.387	0.2506
363.721	0.2486
364.054	0.2457
364.387	0.2438
364.721	0.2414
365.054	0.2389
365.387	0.238
365.72	0.2354
366.053	0.2334
366.385	0.2319
366.718	0.2301
367.051	0.2281
367.383	0.227
367.716	0.2248
368.048	0.2245
368.381	0.2216
368.713	0.2207
369.045	0.2194
369.377	0.2166
369.709	0.2161
370.041	0.2141
370.373	0.2126
370.705	0.2098
371.037	0.2083
371.368	0.2059
371.7	0.2052
372.031	0.2021
372.363	0.2006
372.694	0.1976
373.025	0.1954
373.356	0.1933
373.688	0.1913
374.019	0.1885
374.35	0.1858
374.68	0.1839
375.011	0.1824
375.342	0.1788
375.673	0.1772
376.003	0.1745
376.334	0.1724
376.664	0.1698
376.995	0.169
377.325	0.1662
377.655	0.1649
377.985	0.1631
378.315	0.1615
378.645	0.1597
378.975	0.1584
379.305	0.1562
379.635	0.1558
379.964	0.1548
380.294	0.1522
380.623	0.1507
380.953	0.1492
381.282	0.1477
381.611	0.1458
381.941	0.1441
382.27	0.142
382.599	0.1403
382.928	0.1388
383.257	0.1377
383.585	0.1348
383.914	0.1343
384.243	0.1312
384.571	0.1298
384.9	0.1273
385.228	0.1256
385.557	0.1236
385.885	0.122
386.213	0.1202
386.541	0.1183
386.869	0.1165
387.197	0.1139
387.525	0.1122
387.853	0.111
388.181	0.1088
388.508	0.1072
388.836	0.1052
389.164	0.1031
389.491	0.1021
389.818	0.1007
390.146	0.0992
390.473	0.0985
390.8	0.0968
391.127	0.0952
391.454	0.0936
391.781	0.0929
392.108	0.0917
392.435	0.0903
392.761	0.0888
393.088	0.0879
393.415	0.0869
393.741	0.0861
394.067	0.0846
394.394	0.0836
394.72	0.0821
395.046	0.0819
395.372	0.0809
395.698	0.0798
396.024	0.0785
396.35	0.0774
396.676	0.0757
397.001	0.0752
397.327	0.0741
397.653	0.0729
397.978	0.0714
398.303	0.0707
398.629	0.0691
398.954	0.068
399.279	0.0674
399.604	0.0671
399.929	0.0658
400.254	0.0651
400.579	0.0649
400.904	0.0632
401.229	0.063
401.553	0.0622
401.878	0.0614
402.202	0.0603
402.527	0.0594
402.851	0.0595
403.175	0.0586
403.5	0.0582
403.824	0.0579
404.148	0.0572
404.472	0.0563
404.796	0.0561
405.119	0.0557
405.443	0.0555
405.767	0.0544
406.09	0.0541
406.414	0.0541
406.737	0.0537
407.061	0.0538
407.384	0.0532
407.707	0.0526
408.03	0.0521
408.353	0.053
408.676	0.0526
408.999	0.0521
409.322	0.0522
409.645	0.0514
409.968	0.0517
410.29	0.0507
410.613	0.0513
410.935	0.0512
411.258	0.0508
411.58	0.0502
411.902	0.0507
412.224	0.0498
412.546	0.0503
412.868	0.0501
413.19	0.05
413.512	0.049
413.834	0.0485
414.156	0.0493
414.477	0.05
414.799	0.049
415.121	0.0496
415.442	0.0495
415.763	0.0485
416.085	0.0494
416.406	0.0488
416.727	0.0494
417.048	0.0491
417.369	0.0486
417.69	0.0485
418.011	0.0484
418.331	0.0494
418.652	0.0492
418.973	0.0491
419.293	0.049
419.614	0.0494
419.934	0.0499
420.254	0.0486
420.574	0.0492
420.895	0.0492
421.215	0.0486
421.535	0.0487
421.855	0.0479
422.174	0.0488
422.494	0.0483
422.814	0.0485
423.134	0.0487
423.453	0.0484
423.773	0.049
424.092	0.0489
424.411	0.0479
424.731	0.049
425.05	0.0485
425.369	0.0487
425.688	0.049
426.007	0.0487
426.326	0.0492
426.644	0.0488
426.963	0.0489
427.282	0.0491
427.6	0.0491
427.919	0.0487
428.237	0.0487
428.556	0.0491
428.874	0.0491
429.192	0.0494
429.51	0.0489
429.828	0.0492
430.146	0.0492
430.464	0.0482
430.782	0.0489
431.1	0.0494
431.418	0.049
431.735	0.049
432.053	0.0497
432.37	0.0491
432.688	0.0488
433.005	0.0487
433.322	0.0491
433.639	0.0492
433.957	0.0496
434.274	0.0493
434.591	0.0487
434.907	0.0488
435.224	0.0485
435.541	0.0482
435.858	0.0493
436.174	0.0492
436.491	0.0487
436.807	0.048
437.124	0.0478
437.44	0.0489
437.756	0.0481
438.072	0.0495
438.388	0.0493
438.704	0.0484
439.02	0.049
439.336	0.0482
439.652	0.0484
439.968	0.0476
440.283	0.0476
440.599	0.0478
440.914	0.0488
441.23	0.0484
441.545	0.048
441.86	0.0478
442.175	0.0484
442.491	0.0482
442.806	0.0472
443.121	0.0473
443.435	0.0472
443.75	0.0471
444.065	0.0478
444.38	0.0475
444.694	0.0474
445.009	0.0468
445.323	0.0465
445.638	0.0455
445.952	0.0466
446.266	0.0469
446.58	0.047
446.894	0.0467
447.208	0.047
447.522	0.0466
447.836	0.0466
448.15	0.0454
448.464	0.0465
448.777	0.0463
449.091	0.0451
449.404	0.0464
449.718	0.0449
450.031	0.0453
450.345	0.0454
450.658	0.0454
450.971	0.0449
451.284	0.0455
451.597	0.0445
451.91	0.0444
452.223	0.0449
452.535	0.0441
452.848	0.0445
453.161	0.0436
453.473	0.0435
453.786	0.044
454.098	0.0431
454.411	0.0436
454.723	0.0426
455.035	0.0426
455.347	0.042
455.659	0.0429
455.971	0.0432
456.283	0.0422
456.595	0.0423
456.907	0.0427
457.218	0.0416
457.53	0.0407
457.841	0.0417
458.153	0.0416
458.464	0.0411
458.776	0.0408
459.087	0.0406
459.398	0.0414
459.709	0.0408
460.02	0.0409
460.331	0.0398
460.642	0.0401
460.953	0.0399
461.263	0.0399
461.574	0.0389
461.885	0.0383
462.195	0.0389
462.506	0.038
462.816	0.0378
463.126	0.039
463.437	0.0383
463.747	0.0378
464.057	0.0374
464.367	0.0371
464.677	0.0369
464.987	0.0366
465.296	0.0368
465.606	0.0351
465.916	0.0357
466.225	0.0365
466.535	0.0355
466.844	0.0355
467.154	0.0359
467.463	0.0349
467.772	0.0351
468.081	0.0344
468.39	0.0344
468.699	0.0343
469.008	0.0336
469.317	0.0328
469.626	0.0328
469.935	0.0321
470.243	0.0323
470.552	0.0327
470.86	0.0326
471.169	0.0321
471.477	0.0315
471.785	0.0322
472.093	0.0316
472.402	0.0305
472.71	0.0314
473.018	0.0302
473.326	0.0297
473.633	0.0303
473.941	0.03
474.249	0.0297
474.556	0.0306
474.864	0.0301
475.171	0.0291
475.479	0.0284
475.786	0.0285
476.094	0.0281
476.401	0.0286
476.708	0.0281
477.015	0.0282
477.322	0.0283
477.629	0.0275
477.936	0.0274
478.242	0.0258
478.549	0.0263
478.856	0.0275
479.162	0.026
479.469	0.0261
479.775	0.0266
480.081	0.0253
480.388	0.0244
480.694	0.025
481	0.025
481.306	0.0244
481.612	0.0247
481.918	0.0246
482.224	0.0244
482.53	0.0239
482.835	0.0235
483.141	0.0224
483.446	0.0229
483.752	0.0227
484.057	0.0227
484.363	0.0219
484.668	0.0216
484.973	0.0218
485.278	0.0213
485.583	0.021
485.888	0.0214
486.193	0.0203
486.498	0.0197
486.803	0.0204
487.107	0.0205
487.412	0.0197
487.717	0.0196
488.021	0.0196
488.325	0.0196
488.63	0.0188
488.934	0.0194
489.238	0.0184
489.542	0.0173
489.846	0.0186
490.15	0.0186
490.454	0.0175
490.758	0.0175
491.062	0.0177
491.366	0.0166
491.669	0.0168
491.973	0.0175
492.276	0.0161
492.58	0.0158
492.883	0.0158
493.186	0.0159
493.489	0.0156
493.792	0.0147
494.096	0.0148
494.399	0.0144
494.701	0.0152
495.004	0.0136
495.307	0.0148
495.61	0.0136
495.912	0.0151
496.215	0.0126
496.517	0.0128
496.82	0.0138
497.122	0.0125
497.424	0.0135
497.727	0.0125
498.029	0.0116
498.331	0.013
498.633	0.0127
498.935	0.0127
499.237	0.0123
499.538	0.0117
499.84	0.0111
500.142	0.0106
500.443	0.01
500.745	0.0109
501.046	0.0099
501.348	0.0102
501.649	0.0099
501.95	0.0098
502.251	0.0093
502.552	0.0097
502.853	0.0095
503.154	0.0092
503.455	0.0101
503.756	0.0094
504.057	0.0098
504.357	0.0082
504.658	0.0083
504.958	0.0091
505.259	0.0095
505.559	0.0079
505.859	0.0076
506.16	0.0078
506.46	0.0082
506.76	0.0077
507.06	0.0082
507.36	0.0077
507.66	0.0075
507.96	0.0082
508.259	0.0069
508.559	0.0085
508.859	0.0068
509.158	0.0068
509.457	0.0062
509.757	0.0073
510.056	0.0073
510.355	0.0064
510.655	0.0061
510.954	0.0064
511.253	0.0058
511.552	0.0055
511.851	0.0067
512.149	0.0047
512.448	0.0062
512.747	0.0061
513.045	0.0047
513.344	0.0046
513.642	0.0047
513.941	0.0046
514.239	0.0039
514.537	0.0041
514.836	0.0054
515.134	0.0027
515.432	0.0052
515.73	0.0042
516.028	0.0045
516.326	0.0043
516.623	0.0041
516.921	0.0029
517.219	0.0037
517.516	0.0039
517.814	0.0034
518.111	0.0038
518.409	0.0026
518.706	0.003
519.003	0.0033
519.3	0.0031
519.597	0.0033
519.894	0.0029
520.191	0.0027
520.488	0.0036
520.785	0.0023
521.082	0.0027
521.378	0.0014
521.675	0.0019
521.971	0.002
522.268	0.002
522.564	0.0024
522.861	0.0026
523.157	0.0031
523.453	0.0036
523.749	0.0017
524.045	0.0026
524.341	0.003
524.637	0.0021
524.933	0.0013
525.229	0.0026
525.524	0.0008
525.82	0.0012
526.115	0.0009
526.411	0.0021
526.706	0.0018
527.002	0.0023
527.297	0.0001
527.592	0.0016
527.887	0.0034
528.182	0.0016
528.477	0.0018
528.772	0.0021
529.067	0.0017
529.362	0.0011
529.657	0.0006
529.951	0.0012
530.246	0.0002
530.54	0.0012
530.835	0.0004
531.129	0.0001
531.423	0.0005
531.718	0.001
532.012	0.001
532.306	0.0007
532.6	0.0003
532.894	0.0007
533.188	0.0011
533.482	0.0011
533.775	0.0004
534.069	-0
534.363	-0.0011
534.656	-0.0008
534.95	0.0006
535.243	-0.0001
535.536	0.0003
535.83	0.0001
536.123	0.0003
536.416	0.0004
536.709	0.0002
537.002	-0.0007
537.295	0.0006
537.588	-0.0003
537.881	0.0002
538.173	-0
538.466	-0.0006
538.759	0.0003
539.051	0.0005
539.344	-0.0005
539.636	-0.0003
539.928	0.0002
540.22	0.0001
540.513	-0.0005
540.805	0.0009
541.097	-0.0016
541.389	-0.0008
541.681	-0.0004
541.972	0.0004
542.264	-0.0003
542.556	-0.0001
542.847	0.0005
543.139	0
543.431	-0.0007
543.722	0
544.013	0.0005
544.305	-0.0004
544.596	-0.0012
544.887	0.0001
545.178	-0.0002
545.469	-0.0017
545.76	-0.0011
546.051	0.0003
546.342	-0.001
546.632	-0.0009
546.923	-0.001
547.214	-0.0002
547.504	-0.0006
547.795	-0.0017
548.085	-0.0011
548.375	-0.0012
548.666	-0.001
548.956	-0.0005
549.246	0.0004
549.536	0
549.826	-0.0003
550.116	-0.0002
550.406	-0.0009
550.695	-0.0026
550.985	-0.001
551.275	-0.0007
551.564	-0.0015
551.854	-0.0011
552.143	-0.0012
552.433	-0.0014
552.722	-0.0022
553.011	0.0003
553.3	0
553.589	-0.0002
553.879	-0.0005
554.167	-0.0007
554.456	-0.0005
554.745	0.0003
555.034	-0.0005
555.323	-0.0004
555.611	-0.0002
555.9	-0.0003
556.188	-0.0019
556.477	-0.0001
556.765	-0.002
557.053	-0.0014
557.342	-0.0007
557.63	-0.0008
557.918	0.0003
558.206	0.0013
558.494	-0.0002
558.782	-0.0003
559.069	0.0009
559.357	0.0011
559.645	0.0004
559.932	0.001
560.22	-0.0003
560.507	-0.0013
560.795	-0.0016
561.082	-0.0014
561.37	0.0004
561.657	-0.0013
561.944	-0.0007
562.231	-0.0006
562.518	0.0006
562.805	0.0003
563.092	0.0001
563.379	0.0003
563.665	0.0006
563.952	0.0007
564.239	0.0002
564.525	0.0004
564.811	0.001
565.098	0.0003
565.384	0.0001
565.67	0.001
565.957	0.0011
566.243	0.0019
566.529	0.0009
566.815	0.0006
567.101	0.0014
567.387	0.0008
567.672	0.0001
567.958	0.0016
568.244	0.0001
568.529	0.0011
568.815	0.0005
569.1	-0.0003
569.386	-0.0001
569.671	0.0013
569.956	-0.0001
570.242	-0.0002
570.527	-0.0001
570.812	-0.0003
571.097	-0.0002
571.382	0.0004
571.666	0.0011
571.951	0.0004
572.236	0.0009
572.521	0.0002
572.805	-0.0001
573.09	-0.0003
573.374	-0.0004
573.659	0.0004
573.943	-0.0001
574.227	-0.0005
574.511	-0.0008
574.795	0.0002
575.079	0.0001
575.363	-0.0006
575.647	-0.0004
575.931	-0.0001
576.215	-0.0014
576.499	-0.0012
576.782	-0.0006
577.066	-0.0001
577.349	0.0003
577.633	-0.0007
577.916	-0.0005
578.2	-0.0001
578.483	-0.0001
578.766	0.0004
579.049	0
579.332	0.0007
579.615	0.0004
579.898	0.0007
580.181	0.0006
580.464	0.0006
580.746	0.0003
581.029	0
581.312	-0.0007
581.594	-0.0005
581.877	-0.0003
582.159	-0.0006
582.441	-0.0005
582.724	0.0002
583.006	0.0004
583.288	0.0004
583.57	0.0006
583.852	0.0004
584.134	0.0004
584.416	0.0004
584.697	0.0009
584.979	-0.0005
585.261	-0.0007
585.542	-0.0003
585.824	-0.0002
586.105	-0.001
586.387	-0.0011
586.668	-0.0006
586.949	0.0002
587.231	0
587.512	0
587.793	0.0006
588.074	-0.0007
588.355	0.0002
588.636	-0.0003
588.916	-0.0007
589.197	0.0001
589.478	-0.001
589.758	-0.0007
590.039	0.0001
590.319	0.0006
590.6	0.0007
590.88	0.0009
591.16	0.0013
591.441	0.0009
591.721	-0.0003
592.001	-0.0003
592.281	-0.0004
592.561	-0.0004
592.841	-0.0003
593.12	-0.0016
593.4	-0.0007
593.68	-0.0018
593.959	-0.0007
594.239	-0.0005
594.518	-0.001
594.798	0
595.077	-0.0006
595.356	-0.0007
595.636	-0.0012
595.915	0.0001
596.194	0.0003
596.473	0.0002
596.752	0.0006
597.031	0.0001
597.31	0.0001
597.588	-0.0003
597.867	-0.0005
598.146	-0.0011
598.424	-0.0007
598.703	-0.0004
598.981	-0.0019
599.259	-0.0006
599.538	-0.0002
599.816	-0.0006
600.094	-0.0005
600.372	-0.0011
600.65	-0.0009
600.928	-0.0007
601.206	-0
601.484	-0.0002
601.762	-0.0006
602.04	-0.0002
602.317	-0.0007
602.595	0.0006
602.872	0.0008
603.15	0.0006
603.427	-0.0013
603.704	-0.0008
603.982	0.0002
604.259	-0.0005
604.536	0.0003
604.813	-0.0001
605.09	-0.0005
605.367	-0.0007
605.644	-0.0013
605.921	-0.0014
606.197	-0.0003
606.474	-0.0005
606.751	-0.0005
607.027	-0.0008
607.304	-0.0008
607.58	-0.0006
607.856	-0.0002
608.133	-0.0007
608.409	0
608.685	-0.0005
608.961	-0.0003
609.237	-0.0005
609.513	-0.001
609.789	-0.0014
610.065	-0.0008
610.341	-0.0012
610.616	-0.0004
610.892	0.0001
611.167	-0.0003
611.443	-0.0002
611.718	-0.0004
611.994	-0.001
612.269	-0.0006
612.544	-0.0006
612.819	-0.0012
613.095	-0.001
613.37	-0.0004
613.645	-0.0011
613.919	-0.0006
614.194	-0.0005
614.469	0.0001
614.744	0.0001
615.019	-0.0006
615.293	-0.0009
615.568	-0.0007
615.842	-0.0006
616.116	0.0005
616.391	0.0011
616.665	0.0008
616.939	0.0005
617.213	-0
617.488	0.0003
617.762	-0.0007
618.035	-0.0008
618.309	-0.001
618.583	0.0004
618.857	0.0004
619.131	0.0008
619.404	0.0005
619.678	-0.0002
619.951	-0.0009
620.225	-0.0007
620.498	-0.0005
620.771	-0.0006
621.045	-0.0008
621.318	-0.0015
621.591	-0.0023
621.864	-0.0021
622.137	-0.0019
622.41	-0.0017
622.683	-0.0011
622.956	-0.0012
623.228	-0.0005
623.501	-0
623.774	-0.0007
624.046	-0.0005
624.319	-0.0012
624.591	-0.0016
624.863	-0.0009
625.136	-0.0001
625.408	0.0003
625.68	0.0003
625.952	-0.0001
626.224	-0.0006
626.496	0.0004
626.768	0.0003
627.04	-0.001
627.311	-0.0008
627.583	-0.0009
627.855	0.0006
628.126	0.0002
628.398	0.0014
628.669	0.0021
628.941	0.0019
629.212	0.0009
629.483	0.0009
629.755	0
630.026	0.0001
630.297	0.0012
630.568	0.0002
630.839	0.0012
631.11	-0.0005
631.38	0.0002
631.651	0
631.922	0.0006
632.192	0
632.463	-0.001
632.733	-0.0007
633.004	0.0003
633.274	0.0002
633.545	0.0008
633.815	-0.0001
634.085	-0.0009
634.355	-0.001
634.625	-0.0013
634.895	-0.0006
635.165	-0.001
635.435	-0.0017
635.705	-0.0016
635.974	-0.0027
636.244	-0.0013
636.514	-0.0007
636.783	-0.0013
637.053	-0.001
637.322	-0.0012
637.591	-0.0005
637.861	-0.0012
638.13	-0.0021
638.399	-0.002
638.668	-0.0018
638.937	-0.0026
639.206	-0.0029
639.475	-0.0032
639.744	-0.0034
640.013	-0.0023
640.281	-0.0015
640.55	-0.0025
640.819	-0.002
641.087	-0.0019
641.356	-0.0027
641.624	-0.0012
641.892	-0.001
642.161	-0
642.429	-0.001
642.697	-0.0015
642.965	-0.0015
643.233	-0.0011
643.501	-0.001
643.769	-0.0008
644.037	-0.0001
644.305	-0.0009
644.572	-0.0012
644.84	-0.0015
645.108	-0.0028
645.375	-0.0029
645.643	-0.0025
645.91	-0.0006
646.177	0.0005
646.445	-0.0004
646.712	0.0018
646.979	0.0018
647.246	0.0017
647.513	0.0027
647.78	0.0006
648.047	-0.0005
648.314	-0.0026
648.58	-0.0013
648.847	-0.0014
649.114	0.0002
649.38	-0.0004
649.647	-0.0011
649.913	-0.0009
650.18	-0.0014
650.446	-0.001
650.712	-0.0021
650.978	-0.0018
651.245	-0.0019
651.511	-0.0023
651.777	-0.0015
652.043	-0.001
652.309	-0
652.574	0.0002
652.84	0.0013
653.106	0.0017
653.371	0.0012
653.637	0.0003
653.903	0.0008
654.168	0.0012
654.433	0.0024
654.699	0.0021
654.964	0.0024
655.229	0.0005
655.494	0.0005
655.759	-0.0025
656.024	-0.0002
656.289	-0
656.554	0.0002
656.819	-0.0007
657.084	0.0003
657.349	0.0006
657.613	0.0005
657.878	-0.0008
658.142	-0.0012
658.407	0.0002
658.671	0.0001
658.936	0.0003
659.2	0.0006
659.464	0
659.728	-0.0001
659.992	-0.0004
660.256	-0.0005
660.52	-0.0003
660.784	-0.0002
661.048	0.0014
661.312	-0
661.575	0.0004
661.839	0.0007
662.103	-0.0004
662.366	-0.0006
662.63	-0.0013
662.893	-0.0018
663.156	-0.0015
663.42	-0.0022
663.683	-0.0026
663.946	-0.003
664.209	-0.0029
664.472	-0.0031
664.735	-0.0013
664.998	-0.0014
665.261	-0.0007
665.524	-0.0017
665.786	-0.0004
666.049	-0.0009
666.312	-0.0014
666.574	-0.0015
666.837	-0.0011
667.099	-0.0011
667.361	-0.0021
667.624	-0.0018
667.886	-0.0027
668.148	-0.0018
668.41	-0.0011
668.672	-0.0023
668.934	-0
669.196	0.0005
669.458	0.0002
669.72	0.0006
669.982	0.0009
670.243	0.0006
670.505	-0.0004
670.766	0.0004
671.028	-0.0007
671.289	-0.0013
671.551	-0.0013
671.812	-0.002
672.073	-0.0011
672.334	-0.0011
672.596	-0.0021
672.857	-0.0025
673.118	-0.001
673.379	-0.0028
673.639	-0.0023
673.9	-0.0033
674.161	-0.0027
674.422	-0.0026
674.682	-0.003
674.943	-0.0024
675.203	-0.0024
675.464	-0.0027
675.724	-0.0044
675.985	-0.0044
676.245	-0.0033
676.505	-0.0036
676.765	-0.0035
677.025	-0.0032
677.285	-0.0038
677.545	-0.0013
677.805	-0.0017
678.065	-0.0008
678.325	-0.0005
678.585	-0.0027
678.844	-0.0027
679.104	-0.0032
679.363	-0.0038
679.623	-0.0038
679.882	-0.003
680.142	-0.003
680.401	-0.0029
680.66	-0.0014
680.919	-0.0006
681.178	-0.0014
681.437	-0.0004
681.696	-0.0016
681.955	-0.0014
682.214	-0.0008
682.473	-0.0018
682.732	-0.0031
682.99	-0.0023
683.249	-0.0011
683.508	-0.0013
683.766	-0.0021
684.024	-0.0013
684.283	-0.0003
684.541	-0.0005
684.799	-0.0008
685.058	-0.0006
685.316	-0.0016
685.574	-0.0019
685.832	-0.0015
686.09	-0.0017
686.348	-0.0037
686.606	-0.003
686.863	-0.0042
687.121	-0.0028
687.379	-0.0019
687.636	-0.0021
687.894	-0.0012
688.151	-0.0015
688.409	-0.0018
688.666	-0.0019
688.923	-0.0037
689.181	-0.0028
689.438	-0.0035
689.695	-0.0026
689.952	-0.0037
690.209	-0.004
690.466	-0.0039
690.723	-0.0024
690.979	-0.003
691.236	-0.0027
691.493	-0.0017
691.75	-0.0021
692.006	-0.0026
692.263	-0.0024
692.519	-0.0027
692.775	-0.0025
693.032	-0.0026
693.288	-0.0011
693.544	-0.001
693.8	-0.0012
694.056	-0.0007
694.313	-0.0012
694.568	-0.0011
694.824	-0.0018
695.08	-0.0026
695.336	-0.0029
695.592	-0.0028
695.847	-0.001
696.103	-0.0019
696.359	-0.002
696.614	-0.0031
696.869	-0.0034
697.125	-0.0038
697.38	-0.0024
697.635	-0.0022
697.891	-0.0017
698.146	-0.001
698.401	-0.0023
698.656	-0.0028
698.911	-0.0018
699.166	-0.0017
699.42	-0.001
699.675	-0.0008
699.93	-0.0004
700.185	-0.0013
700.439	-0.0014
700.694	-0.0013
700.948	-0.0018
701.203	-0.0019
701.457	-0.003
701.711	-0.0032
701.965	-0.0032
702.22	-0.0028
702.474	-0.0028
702.728	-0.0022
702.982	-0.0025
703.236	-0.0016
703.49	-0.0016
703.743	-0.0013
703.997	-0.0014
704.251	-0.002
704.504	-0.0023
704.758	-0.0027
705.012	-0.0017
705.265	-0.0015
705.518	-0.001
705.772	-0.0009
706.025	-0.0015
706.278	-0.0016
706.531	-0.0032
706.785	-0.0027
707.038	-0.0031
707.291	-0.0028
707.543	-0.0036
707.796	-0.0029
708.049	-0.0032
708.302	-0.0039
708.555	-0.0032
708.807	-0.003
709.06	-0.0035
709.312	-0.0023
709.565	-0.0032
709.817	-0.0031
710.069	-0.0036
710.322	-0.0038
710.574	-0.0048
710.826	-0.0044
711.078	-0.0042
711.33	-0.0033
711.582	-0.0053
711.834	-0.0049
712.086	-0.0054
712.338	-0.0065
712.59	-0.0048
712.841	-0.0058
713.093	-0.0051
713.344	-0.006
713.596	-0.0055
713.847	-0.0047
714.099	-0.0042
714.35	-0.0044
714.601	-0.0041
714.853	-0.0031
715.104	-0.0034
715.355	-0.0031
715.606	-0.004
715.857	-0.0037
716.108	-0.0044
716.359	-0.0033
716.609	-0.0042
716.86	-0.0044
717.111	-0.0028
717.361	-0.0026
717.612	-0.0015
717.863	-0.001
718.113	-0.0004
718.363	-0.0007
718.614	0.0005
718.864	0.0005
719.114	-0.0009
719.364	-0
719.614	-0.0004
719.865	0.0002
720.114	0.0008
720.364	0.0008
720.614	0.0016
720.864	0.001
721.114	0.0006
721.364	0.0002
721.613	0.0004
721.863	-0.0005
722.112	-0.0006
722.362	-0.0018
722.611	-0.002
722.86	-0.0017
723.11	-0.0022
723.359	-0.0024
723.608	-0.0019
723.857	-0.0022
724.106	-0.0009
724.355	-0.0011
724.604	-0.0019
724.853	-0.0022
725.102	-0.0032
725.351	-0.0028
725.599	-0.0035
725.848	-0.0036
726.097	-0.0028
726.345	-0.0031
726.594	-0.0046
726.842	-0.0041
727.09	-0.0047
727.339	-0.0058
727.587	-0.0053
727.835	-0.0056
728.083	-0.0041
728.331	-0.0055
728.579	-0.0043
728.827	-0.0033
729.075	-0.0036
729.323	-0.0042
729.571	-0.0036
729.818	-0.0028
730.066	-0.0037
730.314	-0.0033
730.561	-0.0013
730.809	-0.0013
731.056	-0.0013
731.303	-0.0008
731.551	-0.0018
731.798	-0.0012
732.045	-0.0019
732.292	0
732.539	0.0003
732.786	0.0011
733.033	0.0008
733.28	0.0001
733.527	-0.0003
733.774	-0.0007
734.021	-0.0021
734.267	-0.0022
734.514	-0.0029
734.76	-0.0035
735.007	-0.0024
735.253	-0.0031
735.5	-0.0039
735.746	-0.0033
735.992	-0.0027
736.238	-0.0028
736.485	-0.0024
736.731	-0.0026
736.977	-0.0032
737.223	-0.0024
737.469	-0.0021
737.715	-0.0013
737.96	-0.002
738.206	-0.0024
738.452	-0.0025
738.697	-0.0025
738.943	-0.0018
739.189	-0.0019
739.434	-0.0015
739.679	-0.0024
739.925	-0.0036
740.17	-0.0046
740.415	-0.0049
740.66	-0.0057
740.906	-0.0059
741.151	-0.0057
741.396	-0.0062
741.641	-0.0061
741.886	-0.0058
742.13	-0.0042
742.375	-0.004
742.62	-0.0035
742.865	-0.0036
743.109	-0.001
743.354	-0.0011
743.598	-0
743.843	-0.0005
744.087	0.001
744.331	0.0013
744.576	0.0019
744.82	0.0026
745.064	0.002
745.308	0.0027
745.552	0.0017
745.796	0.0009
746.04	0.0012
746.284	0.0013
746.528	0.0008
746.771	0.0021
747.015	0.0018
747.259	0.0009
747.502	-0.0002
747.746	-0.0005
747.989	-0.0002
748.233	-0.0008
748.476	0.0009
748.719	0.001
748.963	0.002
749.206	0.0016
749.449	0.0002
749.692	0.0008
749.935	0.0006
750.178	-0.0009
750.421	-0.0009
750.664	-0.0004
750.906	-0.0002
751.149	0.0003
751.392	-0
751.635	-0.001
751.877	-0.0008
752.12	-0.0013
752.362	-0.001
752.604	-0.0006
752.847	0.0004
753.089	0.0012
753.331	0.0012
753.573	-0.0002
753.816	-0.0012
754.058	-0.0015
754.3	-0.0033
754.542	-0.003
754.783	-0.0036
755.025	-0.003
755.267	-0.0025
755.509	-0.0025
755.75	-0.0025
755.992	-0.0025
756.234	-0.0032
756.475	-0.0034
756.716	-0.0035
756.958	-0.0026
757.199	-0.0023
757.44	-0.002
757.682	-0.0015
757.923	-0.0008
758.164	-0.0004
758.405	-0.0007
758.646	0.001
758.887	0.0005
759.128	0.0003
759.369	0.0005
759.609	0.0011
759.85	0.0009
760.091	0.0008
760.331	0.0003
760.572	-0.0013
760.812	-0.0008
761.053	-0.0011
761.293	-0.0009
761.533	-0.0009
761.774	0.0009
762.014	0.0006
762.254	0
762.494	-0.0009
762.734	-0.0009
762.974	-0.0022
763.214	-0.0018
763.454	-0.0019
763.694	-0.0021
763.933	-0.0034
764.173	-0.0045
764.413	-0.0049
764.652	-0.005
764.892	-0.0042
765.131	-0.0035
765.371	-0.0036
765.61	-0.0041
765.849	-0.0044
766.089	-0.0025
766.328	-0.0025
766.567	-0.0033
766.806	-0.0029
767.045	-0.0025
767.284	-0.0028
767.523	-0.0024
767.762	-0.0036
768.001	-0.0028
768.239	-0.0034
768.478	-0.0013
768.717	-0.0017
768.955	-0.0014
769.194	-0.001
769.432	0.0003
769.671	0.0006
769.909	0.0008
770.148	0.0005
770.386	0.0006
770.624	0.0013
770.862	0.0015
771.1	0.0016
771.338	0.0009
771.576	0.0001
771.814	0.001
772.052	0.0007
772.29	0.0023
772.528	0.0032
772.765	0.0038
773.003	0.0041
773.24	0.0044
773.478	0.0016
773.716	0.0024
773.953	0.0016
774.19	0.0012
774.428	0.0028
774.665	0.0025
774.902	0.0024
775.139	0.003
775.376	0.0021
775.613	0.0025
775.85	0.0022
776.087	0.0018
776.324	0.0017
776.561	0.0012
776.798	0.001
777.034	0.001
777.271	0.0009
777.508	0.002
777.744	0.0024
777.981	0.0031
778.217	0.0026
778.454	0.0018
778.69	0.0003
778.926	-0.0005
779.162	-0
779.399	-0.0008
779.635	-0.0012
779.871	-0.0008
780.107	-0.0009
780.343	-0.0015
780.579	-0.0014
780.814	-0.0024
781.05	-0.0015
781.286	-0.0021
781.522	-0.0013
781.757	-0.0015
781.993	-0.0011
782.228	-0.0024
782.464	-0.0011
782.699	-0.0021
782.934	-0.0025
783.17	-0.0021
783.405	-0.0024
783.64	-0.0023
783.875	-0.0033
784.11	-0.0036
784.345	-0.0027
784.58	-0.0012
784.815	-0.0014
785.05	-0.0028
785.285	-0.0038
785.52	-0.0036
785.754	-0.0038
785.989	-0.0047
786.223	-0.0059
786.458	-0.0057
786.692	-0.0044
786.927	-0.0045
787.161	-0.0038
787.396	-0.0044
787.63	-0.0042
787.864	-0.0051
788.098	-0.0058
788.332	-0.0055
788.566	-0.0045
788.8	-0.0042
789.034	-0.0036
789.268	-0.0032
789.502	-0.0025
789.736	-0.0028
789.969	-0.0032
790.203	-0.0044
790.437	-0.0047
790.67	-0.0056
790.904	-0.007
791.137	-0.0074
791.37	-0.0072
791.604	-0.008
791.837	-0.0071
792.07	-0.0068
792.303	-0.0065
792.537	-0.0065
792.77	-0.0067
793.003	-0.0058
793.236	-0.0051
793.469	-0.006
793.701	-0.0035
793.934	-0.0033
794.167	-0.0021
794.4	-0.0018
794.632	-0.0009
794.865	-0.0011
795.097	-0.0016
795.33	-0.0024
795.562	-0.0013
795.795	-0.0009
796.027	0.0001
796.259	0.0006
796.491	0.0008
796.724	-0.0002
796.956	0.0004
797.188	0
797.42	0
797.652	-0
797.883	-0.0004
798.115	0.0008
798.347	-0.0004
798.579	0.0015
798.81	0.0019
799.042	0.0016
799.274	0.0015
799.505	0.0005
799.737	0.0009
799.968	-0.0003
800.199	-0.0012
800.431	-0.0016
800.662	-0.0017
800.893	-0.0016
801.124	-0.0022
801.355	-0.0024
801.586	-0.0026
801.817	-0.003
802.048	-0.0046
802.279	-0.0037
802.51	-0.0031
802.741	-0.0007
802.971	0
803.202	0.0002
803.433	0
803.663	-0.0016
803.894	-0.0025
804.124	-0.0026
804.354	-0.0026
804.585	-0.0027
804.815	-0.0017
805.045	-0.0023
805.275	-0.0009
805.506	-0.0624
805.736	0.0547
805.966	0.2783
806.196	0.2012
