Data from 03 0.5 mM K2Cr2O7 0.3 mM BQDS 1 M H2SO4 5 min_Absorbance_0076.txt Node
Date: Mon Dec 13 23:59:45 EST 2021
User: kwabilab-user
Spectrometer: HDX00518
Trigger mode: 0
Integration Time (sec): 5.000000E-2
Scans to average: 50
Nonlinearity correction enabled: false
Boxcar width: 0
Storing dark spectrum: false
XAxis mode: Wavelengths
Number of Pixels in Spectrum: 2068
>>>>>Begin Spectral Data<<<<<
195.27	-0.0463
195.642	0.2056
196.014	0.0645
196.386	0.0514
196.758	-0.0435
197.129	-0.0067
197.501	0.0119
197.872	0.0216
198.244	0.0365
198.615	0.042
198.986	0.0299
199.357	0.0553
199.728	0.0416
200.099	0.0428
200.47	0.0296
200.841	0.0334
201.212	0.0418
201.582	0.0438
201.953	0.032
202.323	0.0508
202.694	0.0192
203.064	0.0301
203.434	0.0386
203.804	0.0147
204.174	0.0386
204.544	0.0274
204.914	0.0355
205.284	0.0418
205.653	0.0313
206.023	0.0204
206.393	0.0116
206.762	0.03
207.131	0.0294
207.501	0.0285
207.87	0.0574
208.239	0.0322
208.608	0.0306
208.977	0.013
209.346	0.0266
209.715	0.025
210.083	0.0096
210.452	0.0228
210.82	0.0568
211.189	0.0167
211.557	0.0544
211.925	0.0043
212.294	0.0191
212.662	0.028
213.03	0.0194
213.398	0.0543
213.766	0.0479
214.133	0.0333
214.501	0.057
214.869	0.0544
215.236	0.0383
215.604	0.036
215.971	0.0573
216.338	0.0581
216.705	0.0798
217.072	0.0791
217.439	0.0374
217.806	0.0734
218.173	0.0571
218.54	0.0831
218.907	0.0768
219.273	0.0924
219.64	0.0859
220.006	0.1102
220.373	0.095
220.739	0.1405
221.105	0.1341
221.471	0.1404
221.837	0.1587
222.203	0.1857
222.569	0.1918
222.935	0.1998
223.3	0.22
223.666	0.2486
224.031	0.2898
224.397	0.2913
224.762	0.3076
225.127	0.3274
225.493	0.3713
225.858	0.3767
226.223	0.4086
226.588	0.4309
226.952	0.4542
227.317	0.4697
227.682	0.4868
228.046	0.5065
228.411	0.5227
228.775	0.5371
229.14	0.5408
229.504	0.5712
229.868	0.5693
230.232	0.5825
230.596	0.6147
230.96	0.6349
231.324	0.6162
231.688	0.634
232.052	0.6381
232.415	0.6554
232.779	0.6712
233.142	0.668
233.505	0.6808
233.869	0.6845
234.232	0.679
234.595	0.6742
234.958	0.6907
235.321	0.6883
235.684	0.676
236.047	0.7039
236.409	0.6826
236.772	0.6884
237.134	0.6917
237.497	0.6948
237.859	0.7063
238.222	0.6829
238.584	0.6874
238.946	0.697
239.308	0.6909
239.67	0.6789
240.032	0.6888
240.393	0.6892
240.755	0.6784
241.117	0.6821
241.478	0.6795
241.84	0.6731
242.201	0.6711
242.562	0.6678
242.924	0.6685
243.285	0.6577
243.646	0.6671
244.007	0.6662
244.368	0.6581
244.728	0.6613
245.089	0.659
245.45	0.6628
245.81	0.6616
246.171	0.659
246.531	0.6653
246.891	0.6535
247.252	0.6567
247.612	0.6471
247.972	0.6573
248.332	0.6527
248.692	0.656
249.051	0.6577
249.411	0.6675
249.771	0.646
250.13	0.6465
250.49	0.6499
250.849	0.6479
251.208	0.652
251.568	0.6473
251.927	0.6518
252.286	0.6514
252.645	0.6559
253.004	0.6604
253.363	0.6523
253.721	0.6548
254.08	0.6568
254.439	0.653
254.797	0.6474
255.155	0.6529
255.514	0.6408
255.872	0.6489
256.23	0.6431
256.588	0.6512
256.946	0.6457
257.304	0.644
257.662	0.6418
258.02	0.6393
258.377	0.6355
258.735	0.6366
259.093	0.6414
259.45	0.6414
259.807	0.6338
260.165	0.6365
260.522	0.6341
260.879	0.6274
261.236	0.6346
261.593	0.6283
261.95	0.6236
262.306	0.6237
262.663	0.6227
263.02	0.6269
263.376	0.6223
263.733	0.6187
264.089	0.6164
264.445	0.6132
264.802	0.6122
265.158	0.6149
265.514	0.6031
265.87	0.6006
266.226	0.6041
266.581	0.5989
266.937	0.5926
267.293	0.6024
267.648	0.5873
268.004	0.5889
268.359	0.5829
268.714	0.5797
269.07	0.5776
269.425	0.5744
269.78	0.5659
270.135	0.5697
270.49	0.5646
270.844	0.565
271.199	0.5588
271.554	0.5582
271.908	0.55
272.263	0.5545
272.617	0.5458
272.972	0.5475
273.326	0.5432
273.68	0.5393
274.034	0.5338
274.388	0.5297
274.742	0.5259
275.096	0.526
275.45	0.5196
275.803	0.5123
276.157	0.5129
276.51	0.5091
276.864	0.5026
277.217	0.5016
277.571	0.4975
277.924	0.4935
278.277	0.4906
278.63	0.4843
278.983	0.4765
279.336	0.4748
279.688	0.4687
280.041	0.4636
280.394	0.4643
280.746	0.4575
281.099	0.4513
281.451	0.4503
281.803	0.447
282.156	0.4375
282.508	0.4331
282.86	0.4313
283.212	0.4226
283.564	0.4203
283.916	0.4171
284.267	0.4128
284.619	0.405
284.971	0.4033
285.322	0.3982
285.673	0.3942
286.025	0.3905
286.376	0.3836
286.727	0.3815
287.078	0.3775
287.429	0.3717
287.78	0.3673
288.131	0.3642
288.482	0.3588
288.833	0.3539
289.183	0.3487
289.534	0.3461
289.884	0.3398
290.235	0.3362
290.585	0.332
290.935	0.3273
291.285	0.3223
291.635	0.3197
291.985	0.3148
292.335	0.3109
292.685	0.3085
293.035	0.302
293.384	0.2973
293.734	0.2963
294.083	0.2897
294.433	0.2868
294.782	0.2827
295.131	0.2774
295.48	0.2731
295.829	0.2698
296.179	0.266
296.527	0.2633
296.876	0.2582
297.225	0.2538
297.574	0.2503
297.922	0.2479
298.271	0.2425
298.619	0.2398
298.968	0.2362
299.316	0.2324
299.664	0.2296
300.012	0.2264
300.36	0.2232
300.708	0.2205
301.056	0.217
301.404	0.2139
301.752	0.2111
302.099	0.2078
302.447	0.2057
302.794	0.2027
303.142	0.2013
303.489	0.1977
303.836	0.1955
304.183	0.1928
304.531	0.1907
304.878	0.1882
305.224	0.1873
305.571	0.1849
305.918	0.1827
306.265	0.1818
306.611	0.1791
306.958	0.1784
307.304	0.1762
307.651	0.1756
307.997	0.1738
308.343	0.1724
308.689	0.1715
309.035	0.1698
309.381	0.1691
309.727	0.1671
310.073	0.1675
310.419	0.1664
310.764	0.1645
311.11	0.1643
311.455	0.1647
311.801	0.1626
312.146	0.1634
312.491	0.1633
312.837	0.1623
313.182	0.1623
313.527	0.1622
313.872	0.1625
314.216	0.1626
314.561	0.162
314.906	0.1623
315.251	0.1626
315.595	0.1633
315.94	0.1633
316.284	0.1637
316.628	0.1643
316.972	0.1651
317.317	0.1661
317.661	0.1656
318.005	0.1665
318.348	0.1679
318.692	0.1692
319.036	0.1689
319.38	0.1688
319.723	0.1706
320.067	0.1717
320.41	0.1727
320.754	0.1742
321.097	0.1753
321.44	0.1762
321.783	0.1778
322.126	0.1794
322.469	0.18
322.812	0.1813
323.155	0.1826
323.498	0.1843
323.84	0.1858
324.183	0.1877
324.525	0.1899
324.868	0.1912
325.21	0.1913
325.552	0.1939
325.894	0.1946
326.236	0.1971
326.578	0.1987
326.92	0.1995
327.262	0.2019
327.604	0.203
327.946	0.2049
328.287	0.2068
328.629	0.2086
328.97	0.2105
329.312	0.2124
329.653	0.2134
329.994	0.2156
330.335	0.2169
330.676	0.2191
331.017	0.2212
331.358	0.2242
331.699	0.2251
332.04	0.227
332.38	0.2283
332.721	0.2306
333.061	0.233
333.402	0.2341
333.742	0.2356
334.083	0.2378
334.423	0.2388
334.763	0.2409
335.103	0.2433
335.443	0.2439
335.783	0.2453
336.123	0.2467
336.462	0.2487
336.802	0.2504
337.141	0.2516
337.481	0.2522
337.82	0.2535
338.16	0.2557
338.499	0.2573
338.838	0.2588
339.177	0.2608
339.516	0.2622
339.855	0.2632
340.194	0.2645
340.533	0.2656
340.872	0.2666
341.21	0.2678
341.549	0.269
341.887	0.2706
342.226	0.2712
342.564	0.2718
342.902	0.2726
343.24	0.2733
343.578	0.2746
343.916	0.2747
344.254	0.2755
344.592	0.2746
344.93	0.2758
345.268	0.2754
345.605	0.2757
345.943	0.2769
346.28	0.277
346.618	0.277
346.955	0.2782
347.292	0.2776
347.629	0.2785
347.966	0.2785
348.303	0.2781
348.64	0.2784
348.977	0.2782
349.314	0.28
349.65	0.2783
349.987	0.2795
350.324	0.2797
350.66	0.2783
350.996	0.2774
351.333	0.2772
351.669	0.2772
352.005	0.277
352.341	0.2756
352.677	0.2748
353.013	0.2736
353.349	0.2729
353.685	0.271
354.02	0.2698
354.356	0.2687
354.691	0.2677
355.027	0.2671
355.362	0.2668
355.697	0.2649
356.033	0.265
356.368	0.2631
356.703	0.2623
357.038	0.2613
357.373	0.2593
357.707	0.2588
358.042	0.2575
358.377	0.2574
358.711	0.2558
359.046	0.2538
359.38	0.2536
359.715	0.2526
360.049	0.2511
360.383	0.2497
360.717	0.2478
361.051	0.2474
361.385	0.2455
361.719	0.242
362.053	0.2414
362.387	0.2399
362.72	0.2376
363.054	0.2363
363.387	0.2341
363.721	0.232
364.054	0.2293
364.387	0.2281
364.721	0.2257
365.054	0.2236
365.387	0.2218
365.72	0.2194
366.053	0.2186
366.385	0.2166
366.718	0.2147
367.051	0.2137
367.383	0.2124
367.716	0.2101
368.048	0.2086
368.381	0.2066
368.713	0.2058
369.045	0.2045
369.377	0.2023
369.709	0.2014
370.041	0.1999
370.373	0.1978
370.705	0.1958
371.037	0.1946
371.368	0.1926
371.7	0.1921
372.031	0.1892
372.363	0.187
372.694	0.1848
373.025	0.1819
373.356	0.1802
373.688	0.1783
374.019	0.1756
374.35	0.1736
374.68	0.1715
375.011	0.1693
375.342	0.1667
375.673	0.1652
376.003	0.1624
376.334	0.1612
376.664	0.1588
376.995	0.1567
377.325	0.1543
377.655	0.1536
377.985	0.1519
378.315	0.1502
378.645	0.1486
378.975	0.1475
379.305	0.1464
379.635	0.1455
379.964	0.144
380.294	0.1413
380.623	0.1403
380.953	0.1389
381.282	0.1374
381.611	0.1353
381.941	0.1337
382.27	0.1321
382.599	0.13
382.928	0.1285
383.257	0.1274
383.585	0.1252
383.914	0.1249
384.243	0.1216
384.571	0.1204
384.9	0.118
385.228	0.1168
385.557	0.1148
385.885	0.1125
386.213	0.111
386.541	0.109
386.869	0.1071
387.197	0.1057
387.525	0.104
387.853	0.1026
388.181	0.1005
388.508	0.099
388.836	0.097
389.164	0.0954
389.491	0.0952
389.818	0.0934
390.146	0.0916
390.473	0.0913
390.8	0.0898
391.127	0.0873
391.454	0.0866
391.781	0.0854
392.108	0.0843
392.435	0.0826
392.761	0.0819
393.088	0.081
393.415	0.0799
393.741	0.0793
394.067	0.0775
394.394	0.0774
394.72	0.0757
395.046	0.0753
395.372	0.074
395.698	0.0736
396.024	0.0725
396.35	0.0717
396.676	0.0699
397.001	0.069
397.327	0.0683
397.653	0.0674
397.978	0.0656
398.303	0.0652
398.629	0.0624
398.954	0.0624
399.279	0.0615
399.604	0.0616
399.929	0.0609
400.254	0.0596
400.579	0.0588
400.904	0.0585
401.229	0.0576
401.553	0.0568
401.878	0.0565
402.202	0.0553
402.527	0.055
402.851	0.0543
403.175	0.0535
403.5	0.0527
403.824	0.053
404.148	0.0533
404.472	0.0514
404.796	0.0516
405.119	0.0509
405.443	0.0506
405.767	0.0495
406.09	0.0497
406.414	0.0488
406.737	0.049
407.061	0.0484
407.384	0.0485
407.707	0.0485
408.03	0.0478
408.353	0.0486
408.676	0.0474
408.999	0.0471
409.322	0.0475
409.645	0.0467
409.968	0.0467
410.29	0.0468
410.613	0.0468
410.935	0.0469
411.258	0.0463
411.58	0.046
411.902	0.0465
412.224	0.0454
412.546	0.0459
412.868	0.045
413.19	0.0453
413.512	0.0453
413.834	0.0445
414.156	0.0451
414.477	0.046
414.799	0.0447
415.121	0.0455
415.442	0.0447
415.763	0.0446
416.085	0.0446
416.406	0.0451
416.727	0.045
417.048	0.0452
417.369	0.0443
417.69	0.0444
418.011	0.0438
418.331	0.0445
418.652	0.045
418.973	0.0442
419.293	0.0451
419.614	0.0445
419.934	0.0455
420.254	0.0449
420.574	0.0453
420.895	0.0449
421.215	0.0442
421.535	0.0445
421.855	0.0441
422.174	0.0444
422.494	0.0443
422.814	0.0445
423.134	0.0443
423.453	0.0447
423.773	0.0445
424.092	0.0446
424.411	0.0441
424.731	0.0447
425.05	0.0442
425.369	0.0446
425.688	0.0444
426.007	0.0441
426.326	0.0444
426.644	0.045
426.963	0.0448
427.282	0.0446
427.6	0.0442
427.919	0.0445
428.237	0.045
428.556	0.0448
428.874	0.0449
429.192	0.0452
429.51	0.0452
429.828	0.045
430.146	0.0453
430.464	0.0444
430.782	0.0446
431.1	0.045
431.418	0.044
431.735	0.0447
432.053	0.0455
432.37	0.045
432.688	0.0448
433.005	0.0451
433.322	0.0447
433.639	0.0445
433.957	0.045
434.274	0.0453
434.591	0.0453
434.907	0.0446
435.224	0.0453
435.541	0.045
435.858	0.0455
436.174	0.046
436.491	0.0455
436.807	0.044
437.124	0.0445
437.44	0.0448
437.756	0.045
438.072	0.0446
438.388	0.0448
438.704	0.0448
439.02	0.0447
439.336	0.0438
439.652	0.0443
439.968	0.0433
440.283	0.0431
440.599	0.0438
440.914	0.0445
441.23	0.0446
441.545	0.0439
441.86	0.0434
442.175	0.0438
442.491	0.0435
442.806	0.0434
443.121	0.0439
443.435	0.0438
443.75	0.043
444.065	0.0433
444.38	0.0434
444.694	0.0436
445.009	0.0434
445.323	0.0435
445.638	0.0424
445.952	0.0435
446.266	0.0433
446.58	0.0434
446.894	0.0434
447.208	0.0429
447.522	0.043
447.836	0.0424
448.15	0.042
448.464	0.0424
448.777	0.0425
449.091	0.0416
449.404	0.0421
449.718	0.0411
450.031	0.0412
450.345	0.0415
450.658	0.0423
450.971	0.0419
451.284	0.0417
451.597	0.0406
451.91	0.0411
452.223	0.0408
452.535	0.0398
452.848	0.0407
453.161	0.0399
453.473	0.0406
453.786	0.04
454.098	0.0398
454.411	0.0403
454.723	0.0398
455.035	0.0392
455.347	0.039
455.659	0.0388
455.971	0.0395
456.283	0.0384
456.595	0.0387
456.907	0.0387
457.218	0.0388
457.53	0.0376
457.841	0.0382
458.153	0.038
458.464	0.0382
458.776	0.0381
459.087	0.0373
459.398	0.0379
459.709	0.0377
460.02	0.0374
460.331	0.0364
460.642	0.0364
460.953	0.0362
461.263	0.0359
461.574	0.0356
461.885	0.0349
462.195	0.0356
462.506	0.0353
462.816	0.035
463.126	0.0356
463.437	0.0348
463.747	0.0343
464.057	0.0343
464.367	0.0342
464.677	0.0332
464.987	0.0334
465.296	0.0336
465.606	0.0326
465.916	0.033
466.225	0.0329
466.535	0.0329
466.844	0.0325
467.154	0.0327
467.463	0.0313
467.772	0.0321
468.081	0.0317
468.39	0.0316
468.699	0.0308
469.008	0.0303
469.317	0.0301
469.626	0.0294
469.935	0.03
470.243	0.0299
470.552	0.0294
470.86	0.0296
471.169	0.0295
471.477	0.0285
471.785	0.0286
472.093	0.029
472.402	0.0285
472.71	0.0288
473.018	0.0276
473.326	0.0279
473.633	0.0282
473.941	0.028
474.249	0.0271
474.556	0.027
474.864	0.0269
475.171	0.0263
475.479	0.0263
475.786	0.0263
476.094	0.026
476.401	0.0248
476.708	0.0252
477.015	0.0253
477.322	0.0257
477.629	0.0246
477.936	0.024
478.242	0.0237
478.549	0.0241
478.856	0.0247
479.162	0.0235
479.469	0.0231
479.775	0.0241
480.081	0.0228
480.388	0.0221
480.694	0.0227
481	0.0224
481.306	0.022
481.612	0.022
481.918	0.0214
482.224	0.0222
482.53	0.0219
482.835	0.0213
483.141	0.0206
483.446	0.021
483.752	0.0204
484.057	0.0201
484.363	0.019
484.668	0.0203
484.973	0.0187
485.278	0.0187
485.583	0.0192
485.888	0.0186
486.193	0.0175
486.498	0.0178
486.803	0.0176
487.107	0.0183
487.412	0.0177
487.717	0.0178
488.021	0.0176
488.325	0.0182
488.63	0.0175
488.934	0.0176
489.238	0.0175
489.542	0.0157
489.846	0.0163
490.15	0.0161
490.454	0.0157
490.758	0.0151
491.062	0.0154
491.366	0.0146
491.669	0.0151
491.973	0.0153
492.276	0.0147
492.58	0.014
492.883	0.0139
493.186	0.0143
493.489	0.0138
493.792	0.013
494.096	0.0131
494.399	0.0133
494.701	0.0139
495.004	0.0126
495.307	0.0133
495.61	0.012
495.912	0.012
496.215	0.0118
496.517	0.0113
496.82	0.0118
497.122	0.0109
497.424	0.012
497.727	0.0113
498.029	0.0101
498.331	0.0111
498.633	0.0106
498.935	0.0112
499.237	0.01
499.538	0.0093
499.84	0.0099
500.142	0.0094
500.443	0.0087
500.745	0.0088
501.046	0.0084
501.348	0.0086
501.649	0.0087
501.95	0.0079
502.251	0.0079
502.552	0.0071
502.853	0.0073
503.154	0.0075
503.455	0.0074
503.756	0.0073
504.057	0.0085
504.357	0.0069
504.658	0.0079
504.958	0.0072
505.259	0.0068
505.559	0.0066
505.859	0.0072
506.16	0.006
506.46	0.0066
506.76	0.007
507.06	0.0068
507.36	0.0067
507.66	0.0061
507.96	0.0072
508.259	0.0054
508.559	0.0068
508.859	0.0067
509.158	0.0057
509.457	0.005
509.757	0.0053
510.056	0.0057
510.355	0.0055
510.655	0.0044
510.954	0.0058
511.253	0.0049
511.552	0.0054
511.851	0.005
512.149	0.0039
512.448	0.0048
512.747	0.0036
513.045	0.0043
513.344	0.0036
513.642	0.0037
513.941	0.0036
514.239	0.0038
514.537	0.0037
514.836	0.0042
515.134	0.0015
515.432	0.0051
515.73	0.0029
516.028	0.0029
516.326	0.0034
516.623	0.003
516.921	0.0015
517.219	0.0029
517.516	0.003
517.814	0.0032
518.111	0.0027
518.409	0.0013
518.706	0.0022
519.003	0.0017
519.3	0.0022
519.597	0.0018
519.894	0.003
520.191	0.0022
520.488	0.0025
520.785	0.0014
521.082	0.0024
521.378	0.0016
521.675	0.0016
521.971	0.0011
522.268	0.0018
522.564	0.0011
522.861	0.0015
523.157	0.0017
523.453	0.0021
523.749	0.0018
524.045	0.0015
524.341	0.0024
524.637	0.0006
524.933	0.0009
525.229	0.0014
525.524	0.0007
525.82	0.0012
526.115	0.0004
526.411	0.0012
526.706	0.0006
527.002	0.0025
527.297	0.0002
527.592	0.0011
527.887	0.0017
528.182	0.0012
528.477	0.0014
528.772	0.0013
529.067	0.0003
529.362	0.0009
529.657	0.0009
529.951	0.0008
530.246	0.0002
530.54	0.0006
530.835	0.0005
531.129	-0.0009
531.423	-0.0006
531.718	0.0012
532.012	0.0004
532.306	0.0005
532.6	-0.0008
532.894	0.0003
533.188	0.0009
533.482	-0.0004
533.775	0
534.069	-0.0004
534.363	-0.0022
534.656	-0.002
534.95	-0.0001
535.243	-0.0019
535.536	0.0005
535.83	-0.0016
536.123	-0.0004
536.416	-0.0006
536.709	-0.0008
537.002	-0.0007
537.295	-0.0002
537.588	-0.0008
537.881	-0.0008
538.173	-0.0001
538.466	-0.0004
538.759	-0.0001
539.051	0.0005
539.344	-0.0007
539.636	-0
539.928	0.0004
540.22	-0
540.513	-0.0001
540.805	0.0005
541.097	-0.001
541.389	-0.0001
541.681	0.0001
541.972	0.0004
542.264	0.0006
542.556	0.0003
542.847	0.0009
543.139	0.0001
543.431	-0.0007
543.722	0.0002
544.013	0.0009
544.305	-0.0007
544.596	-0.0001
544.887	0.0005
545.178	0.0005
545.469	-0.0013
545.76	0.0001
546.051	0.0007
546.342	-0.0005
546.632	-0.0002
546.923	-0.0012
547.214	-0.0011
547.504	-0.0012
547.795	-0.001
548.085	-0.0014
548.375	-0.001
548.666	-0.0006
548.956	-0.0009
549.246	-0.0008
549.536	-0.0003
549.826	-0.0013
550.116	-0.0006
550.406	0.0006
550.695	-0.002
550.985	-0.0007
551.275	-0.0005
551.564	-0.0012
551.854	0.0006
552.143	-0.0014
552.433	-0.0021
552.722	-0.002
553.011	-0.0005
553.3	-0.0005
553.589	0.0003
553.879	-0.0009
554.167	-0.0003
554.456	-0.0006
554.745	0.0004
555.034	-0.0007
555.323	0.0001
555.611	-0.0001
555.9	-0.0006
556.188	-0.0013
556.477	-0.0002
556.765	-0.0011
557.053	-0.0012
557.342	-0.0011
557.63	-0.0002
557.918	-0.0003
558.206	0.0012
558.494	-0.0004
558.782	-0.0006
559.069	0.0004
559.357	0.0021
559.645	0.0003
559.932	-0.0002
560.22	-0.0006
560.507	-0.0015
560.795	-0.0022
561.082	-0.0021
561.37	-0.0003
561.657	-0.0009
561.944	-0.0004
562.231	-0.0004
562.518	0.001
562.805	-0.0008
563.092	0.0004
563.379	0.0006
563.665	0.0006
563.952	-0.0005
564.239	-0.0002
564.525	-0.0001
564.811	0.0012
565.098	0.0005
565.384	-0.0003
565.67	0.0011
565.957	0.001
566.243	0.0021
566.529	0.0009
566.815	0.0008
567.101	0.0015
567.387	0.001
567.672	0.0004
567.958	0.0005
568.244	0.0003
568.529	0.0004
568.815	-0.0006
569.1	-0.001
569.386	-0.0009
569.671	0.0008
569.956	-0.0002
570.242	0.0001
570.527	-0.0006
570.812	0.0002
571.097	-0.0002
571.382	-0.0013
571.666	0.0007
571.951	-0
572.236	0.0004
572.521	0.0009
572.805	0.0008
573.09	-0.0003
573.374	-0.0016
573.659	-0
573.943	-0.0003
574.227	-0.0007
574.511	-0.0006
574.795	-0.0002
575.079	0.0002
575.363	-0.0009
575.647	-0.0001
575.931	0.0006
576.215	-0.0011
576.499	-0.0007
576.782	-0.0012
577.066	-0.0007
577.349	0.0005
577.633	-0.0009
577.916	-0.0013
578.2	-0.0003
578.483	-0.0005
578.766	0.0003
579.049	0
579.332	0.0005
579.615	-0.0005
579.898	0.0004
580.181	0.0012
580.464	0.0009
580.746	0
581.029	-0.0001
581.312	-0.001
581.594	-0.0017
581.877	-0.0006
582.159	-0.0006
582.441	-0.0013
582.724	-0.0006
583.006	0.0003
583.288	0.0004
583.57	0.0007
583.852	0.001
584.134	0.001
584.416	-0.0003
584.697	0.0003
584.979	-0.0009
585.261	-0.0016
585.542	-0.0008
585.824	-0.0008
586.105	-0.0006
586.387	-0.0005
586.668	-0.001
586.949	-0.0004
587.231	-0.0001
587.512	0.0004
587.793	0.0004
588.074	-0.0005
588.355	0.0003
588.636	-0.0005
588.916	-0.0005
589.197	0
589.478	-0.0001
589.758	-0.0001
590.039	0.0001
590.319	0.0006
590.6	0.0013
590.88	0.0009
591.16	0.0011
591.441	0.0007
591.721	-0.0002
592.001	-0.0003
592.281	0.0005
592.561	-0.0003
592.841	-0.0013
593.12	-0.0017
593.4	-0.0008
593.68	-0.0014
593.959	-0.0007
594.239	-0.0006
594.518	0.0003
594.798	-0.0003
595.077	-0.0008
595.356	-0.0007
595.636	-0.0003
595.915	-0.0004
596.194	0.0004
596.473	0.0004
596.752	0.0006
597.031	0.0007
597.31	0.0001
597.588	0.0005
597.867	-0
598.146	-0.0009
598.424	-0.0009
598.703	0.0004
598.981	-0.0016
599.259	-0.0011
599.538	-0.0006
599.816	-0.0002
600.094	-0.0007
600.372	-0.0011
600.65	-0.0008
600.928	-0.0008
601.206	0.0001
601.484	-0.0008
601.762	0.0004
602.04	-0.0003
602.317	-0.0002
602.595	0
602.872	-0.0002
603.15	0.0004
603.427	-0.0014
603.704	-0.0013
603.982	-0.0007
604.259	-0.0005
604.536	-0
604.813	-0
605.09	-0.001
605.367	-0.0015
605.644	-0.0021
605.921	-0.0009
606.197	-0.0009
606.474	-0.0002
606.751	-0.0007
607.027	-0.0009
607.304	-0.0013
607.58	-0.0007
607.856	-0.0007
608.133	-0.0012
608.409	0.0001
608.685	-0.0008
608.961	-0.0003
609.237	-0.0005
609.513	-0.0002
609.789	-0.0006
610.065	-0.0009
610.341	-0.0006
610.616	0.0006
610.892	0.0004
611.167	0.0013
611.443	0.0008
611.718	-0.0001
611.994	0.0011
612.269	0.0007
612.544	-0.0003
612.819	-0.0007
613.095	-0.0004
613.37	0.0002
613.645	-0.0003
613.919	-0.0013
614.194	-0.0001
614.469	0.0002
614.744	-0.0006
615.019	-0.0012
615.293	-0.0016
615.568	-0.0002
615.842	0.0004
616.116	0.0013
616.391	0.0006
616.665	0.0007
616.939	0.0011
617.213	0.001
617.488	0.0012
617.762	0
618.035	-0.0002
618.309	-0.0001
618.583	0.001
618.857	0.001
619.131	0.0011
619.404	0.0011
619.678	0.002
619.951	-0.0003
620.225	0.0004
620.498	0.0005
620.771	-0.0001
621.045	-0.0001
621.318	-0.0015
621.591	-0.0009
621.864	-0.0015
622.137	-0.0013
622.41	-0.0016
622.683	-0.0004
622.956	-0
623.228	0
623.501	0.0006
623.774	-0.0004
624.046	0.0005
624.319	-0.0007
624.591	-0.0008
624.863	-0.0007
625.136	0.0006
625.408	0.0012
625.68	0.0005
625.952	0.0015
626.224	0.0011
626.496	0.0011
626.768	0.0004
627.04	-0.0011
627.311	-0.0001
627.583	0.0006
627.855	0.0024
628.126	0.0023
628.398	0.0024
628.669	0.002
628.941	0.0027
629.212	0.0014
629.483	0.0016
629.755	0.0016
630.026	0.0015
630.297	0.002
630.568	0.0008
630.839	0.0003
631.11	0.0015
631.38	0.0014
631.651	0.0017
631.922	0.0014
632.192	0.001
632.463	0.0005
632.733	-0.0004
633.004	-0.0001
633.274	0.0012
633.545	0.0011
633.815	0.0007
634.085	-0.0008
634.355	-0.0016
634.625	-0.001
634.895	-0.0003
635.165	-0.0009
635.435	-0.0012
635.705	-0.001
635.974	-0.002
636.244	-0.0009
636.514	-0.0001
636.783	-0.0002
637.053	-0.0006
637.322	0.0002
637.591	-0.0004
637.861	-0.0014
638.13	-0.001
638.399	-0.0014
638.668	-0.0019
638.937	-0.0016
639.206	-0.0026
639.475	-0.0018
639.744	-0.0021
640.013	-0.0021
640.281	-0.0013
640.55	-0.0015
640.819	-0.0015
641.087	-0.0004
641.356	-0.0006
641.624	0.0002
641.892	0.0006
642.161	0.0012
642.429	0.0003
642.697	-0.0004
642.965	-0.0002
643.233	-0.0017
643.501	-0.0009
643.769	0.0007
644.037	0.0002
644.305	-0.0007
644.572	0.0001
644.84	-0.0009
645.108	-0.0014
645.375	-0.0022
645.643	-0.0009
645.91	-0.0004
646.177	0.0007
646.445	0.002
646.712	0.0023
646.979	0.0023
647.246	0.0037
647.513	0.0032
647.78	0.0021
648.047	0.0008
648.314	-0.0008
648.58	-0.0009
648.847	0.0001
649.114	0.0011
649.38	0.0007
649.647	0.0006
649.913	0.0008
650.18	0.0003
650.446	0.0009
650.712	-0.0003
650.978	-0.0008
651.245	-0.0008
651.511	-0.001
651.777	-0.0002
652.043	-0.0001
652.309	0.0004
652.574	0.0016
652.84	0.0011
653.106	0.0017
653.371	0.0017
653.637	0.0015
653.903	0.002
654.168	0.003
654.433	0.0032
654.699	0.0023
654.964	0.0038
655.229	0.0016
655.494	-0.0007
655.759	-0.0043
656.024	0.0003
656.289	-0
656.554	0.0023
656.819	0.0007
657.084	0.0011
657.349	0.0011
657.613	0.0009
657.878	0.0004
658.142	0.0003
658.407	0.0011
658.671	0.0013
658.936	0.0016
659.2	0.001
659.464	0.0012
659.728	0.0003
659.992	0.0009
660.256	0.0011
660.52	-0.0001
660.784	0.0004
661.048	-0.0002
661.312	0.0013
661.575	0.0016
661.839	0.0019
662.103	0.0001
662.366	0.0004
662.63	-0.0001
662.893	0.0005
663.156	0.0002
663.42	-0.0015
663.683	-0.0014
663.946	-0.0019
664.209	-0.0021
664.472	-0.002
664.735	-0.0008
664.998	-0.0007
665.261	-0.001
665.524	-0.001
665.786	-0.0004
666.049	-0.0002
666.312	-0
666.574	-0.0008
666.837	-0.0001
667.099	0.0006
667.361	-0.0009
667.624	-0.0012
667.886	-0.0019
668.148	-0.0007
668.41	-0.0007
668.672	-0.0016
668.934	-0.0004
669.196	-0.0003
669.458	0.0009
669.72	0.0015
669.982	0.0019
670.243	0.0021
670.505	0.0005
670.766	0.0011
671.028	0.0002
671.289	-0.0005
671.551	-0.001
671.812	-0.0015
672.073	-0.0003
672.334	-0.001
672.596	-0.0007
672.857	-0.0017
673.118	-0.0014
673.379	-0.0029
673.639	-0.0017
673.9	-0.0021
674.161	-0.0011
674.422	-0.0016
674.682	-0.0012
674.943	-0.0005
675.203	-0.0008
675.464	-0.0012
675.724	-0.0018
675.985	-0.0024
676.245	-0.0023
676.505	-0.002
676.765	-0.0022
677.025	-0.0014
677.285	-0.0006
677.545	-0.0005
677.805	-0.0008
678.065	0.0002
678.325	0.0009
678.585	-0.0008
678.844	-0.002
679.104	-0.0015
679.363	-0.0029
679.623	-0.0029
679.882	-0.0021
680.142	-0.0017
680.401	-0.0016
680.66	-0.0007
680.919	0.0012
681.178	0.0005
681.437	0.0001
681.696	-0.0001
681.955	0.0002
682.214	0.0003
682.473	-0.0005
682.732	-0.0004
682.99	-0.0011
683.249	0.0002
683.508	-0.0001
683.766	-0.0013
684.024	-0.0012
684.283	-0.0007
684.541	-0.0005
684.799	-0.0009
685.058	-0.0005
685.316	-0.0018
685.574	-0.0017
685.832	-0.0019
686.09	-0.0019
686.348	-0.0029
686.606	-0.0028
686.863	-0.0028
687.121	-0.0012
687.379	-0.0011
687.636	-0.0016
687.894	0.001
688.151	0.0005
688.409	-0.0001
688.666	-0.0006
688.923	-0.0021
689.181	-0.0021
689.438	-0.0026
689.695	-0.0024
689.952	-0.0029
690.209	-0.0028
690.466	-0.0027
690.723	-0.0016
690.979	-0.0021
691.236	-0.0027
691.493	-0.001
691.75	-0.0008
692.006	-0.0007
692.263	-0.0016
692.519	-0.0018
692.775	-0.0016
693.032	-0.0009
693.288	-0.0011
693.544	-0.0008
693.8	-0.0005
694.056	-0.0008
694.313	-0.0007
694.568	-0.0004
694.824	-0.0009
695.08	-0.0019
695.336	-0.0032
695.592	-0.003
695.847	-0.0011
696.103	-0.0022
696.359	-0.0012
696.614	-0.0018
696.869	-0.0024
697.125	-0.0041
697.38	-0.0022
697.635	-0.0016
697.891	-0.001
698.146	-0.0008
698.401	-0.001
698.656	-0.0014
698.911	-0.0009
699.166	-0.0007
699.42	0.0012
699.675	-0.0004
699.93	-0
700.185	-0.0005
700.439	-0.0008
700.694	-0.0003
700.948	-0.0008
701.203	-0.0017
701.457	-0.0018
701.711	-0.0032
701.965	-0.0034
702.22	-0.0027
702.474	-0.0031
702.728	-0.0028
702.982	-0.0019
703.236	-0.0005
703.49	-0.0003
703.743	-0.0001
703.997	-0.0005
704.251	-0.0011
704.504	-0.001
704.758	-0.0024
705.012	-0.0006
705.265	0.0003
705.518	0.0009
705.772	-0.0006
706.025	0.0001
706.278	-0.0009
706.531	-0.0012
706.785	-0.0017
707.038	-0.0022
707.291	-0.0016
707.543	-0.0021
707.796	-0.002
708.049	-0.0023
708.302	-0.003
708.555	-0.0034
708.807	-0.0026
709.06	-0.0037
709.312	-0.0022
709.565	-0.0029
709.817	-0.0036
710.069	-0.0036
710.322	-0.004
710.574	-0.0053
710.826	-0.0041
711.078	-0.0038
711.33	-0.0041
711.582	-0.0043
711.834	-0.004
712.086	-0.0038
712.338	-0.0051
712.59	-0.0043
712.841	-0.0056
713.093	-0.0041
713.344	-0.0047
713.596	-0.0047
713.847	-0.0027
714.099	-0.003
714.35	-0.0036
714.601	-0.0041
714.853	-0.0026
715.104	-0.0023
715.355	-0.0027
715.606	-0.0026
715.857	-0.0016
716.108	-0.0029
716.359	-0.0023
716.609	-0.0032
716.86	-0.0024
717.111	-0.0031
717.361	-0.0024
717.612	-0.0009
717.863	-0.0011
718.113	0.0001
718.363	-0.0014
718.614	0.0015
718.864	0.0013
719.114	0.0001
719.364	0.0009
719.614	0.0001
719.865	0.0015
720.114	0.0021
720.364	0.0019
720.614	0.0027
720.864	0.0015
721.114	0.0012
721.364	0.001
721.613	0.0011
721.863	0.0009
722.112	-0.0002
722.362	-0.0012
722.611	-0.0011
722.86	-0.0013
723.11	-0.0006
723.359	-0.0015
723.608	-0.0011
723.857	-0.0016
724.106	-0.0002
724.355	0.0002
724.604	-0.0007
724.853	-0.0002
725.102	-0.0023
725.351	-0.0019
725.599	-0.0022
725.848	-0.002
726.097	-0.0013
726.345	-0.0017
726.594	-0.0031
726.842	-0.0024
727.09	-0.0043
727.339	-0.0051
727.587	-0.0055
727.835	-0.0049
728.083	-0.0042
728.331	-0.0045
728.579	-0.0035
728.827	-0.0024
729.075	-0.0027
729.323	-0.0026
729.571	-0.0027
729.818	-0.0024
730.066	-0.0016
730.314	-0.0021
730.561	0.0006
730.809	-0.0001
731.056	-0.0005
731.303	0.0006
731.551	0
731.798	-0.0001
732.045	-0.0004
732.292	0.0013
732.539	0.0005
732.786	0.0009
733.033	0.0007
733.28	0.001
733.527	0.0004
733.774	0.0001
734.021	-0.0015
734.267	-0.0027
734.514	-0.003
734.76	-0.003
735.007	-0.0026
735.253	-0.003
735.5	-0.003
735.746	-0.0032
735.992	-0.0015
736.238	-0.0016
736.485	-0.0007
736.731	-0.0008
736.977	-0.0024
737.223	-0.0012
737.469	-0.0008
737.715	-0.0001
737.96	-0.0014
738.206	-0.0026
738.452	-0.0011
738.697	-0.0019
738.943	-0.0011
739.189	-0.0021
739.434	-0.0014
739.679	-0.0021
739.925	-0.0024
740.17	-0.0034
740.415	-0.0039
740.66	-0.0046
740.906	-0.0044
741.151	-0.0043
741.396	-0.0045
741.641	-0.0036
741.886	-0.0041
742.13	-0.0032
742.375	-0.0019
742.62	-0.0033
742.865	-0.0028
743.109	-0.0002
743.354	-0.0003
743.598	0.0011
743.843	0.0011
744.087	0.0012
744.331	0.0007
744.576	0.0016
744.82	0.0023
745.064	0.0026
745.308	0.0028
745.552	0.0023
745.796	0.0015
746.04	0.0016
746.284	0.001
746.528	0.002
746.771	0.003
747.015	0.003
747.259	0.0015
747.502	0.0002
747.746	-0.0005
747.989	-0.0003
748.233	-0.0014
748.476	0.001
748.719	0.0009
748.963	0.0026
749.206	0.0025
749.449	0.0009
749.692	0.0008
749.935	0.0015
750.178	-0.0001
750.421	0
750.664	0.0002
750.906	0.0018
751.149	0.0011
751.392	0.0006
751.635	-0.0001
751.877	0.0002
752.12	0.0004
752.362	-0.0004
752.604	-0.0002
752.847	0.0011
753.089	0.0023
753.331	0.002
753.573	0.001
753.816	0
754.058	-0.0003
754.3	-0.0017
754.542	-0.0021
754.783	-0.003
755.025	-0.0025
755.267	-0.0016
755.509	-0.0022
755.75	-0.0026
755.992	-0.0018
756.234	-0.0028
756.475	-0.0028
756.716	-0.0028
756.958	-0.0024
757.199	-0.0015
757.44	-0.0014
757.682	-0.0019
757.923	-0
758.164	-0.0002
758.405	-0.0002
758.646	0.0018
758.887	0.0016
759.128	0.0019
759.369	0.0008
759.609	0.0023
759.85	0.0018
760.091	0.0021
760.331	0.0013
760.572	-0.0002
760.812	-0.0011
761.053	0.0001
761.293	0
761.533	-0.0001
761.774	0.0028
762.014	0.0016
762.254	0.0004
762.494	-0
762.734	0.0005
762.974	-0.0008
763.214	-0.0006
763.454	-0.0006
763.694	-0.0012
763.933	-0.0013
764.173	-0.0038
764.413	-0.0053
764.652	-0.005
764.892	-0.0038
765.131	-0.0035
765.371	-0.002
765.61	-0.0023
765.849	-0.003
766.089	-0.0022
766.328	-0.001
766.567	-0.002
766.806	-0.002
767.045	-0.0005
767.284	-0.0014
767.523	-0.001
767.762	-0.0021
768.001	-0.0018
768.239	-0.0021
768.478	-0.0007
768.717	-0.0006
768.955	-0.001
769.194	-0.0021
769.432	0.0007
769.671	0.0011
769.909	0.0018
770.148	0.0015
770.386	0.0021
770.624	0.0021
770.862	0.0023
771.1	0.0027
771.338	0.0029
771.576	0.0007
771.814	0.0022
772.052	0.0025
772.29	0.0037
772.528	0.0043
772.765	0.0053
773.003	0.0059
773.24	0.0054
773.478	0.0039
773.716	0.0038
773.953	0.0034
774.19	0.0035
774.428	0.0049
774.665	0.0045
774.902	0.0047
775.139	0.0042
775.376	0.0039
775.613	0.0038
775.85	0.0036
776.087	0.002
776.324	0.002
776.561	0.0016
776.798	0.0005
777.034	0.0008
777.271	0.0017
777.508	0.0026
777.744	0.0033
777.981	0.0039
778.217	0.0042
778.454	0.003
778.69	0.0024
778.926	0.0007
779.162	0.001
779.399	0.0008
779.635	0.0009
779.871	0.0011
780.107	0.0001
780.343	0.0005
780.579	0.0006
780.814	0.0003
781.05	0.0001
781.286	-0.0015
781.522	-0.0001
781.757	0.0002
781.993	0.0005
782.228	-0.0004
782.464	0.0007
782.699	-0.0007
782.934	-0.0017
783.17	-0.0005
783.405	-0.0012
783.64	-0.0021
783.875	-0.0028
784.11	-0.0031
784.345	-0.0009
784.58	-0.0009
784.815	-0.0013
785.05	-0.0019
785.285	-0.003
785.52	-0.0024
785.754	-0.0031
785.989	-0.0031
786.223	-0.0046
786.458	-0.004
786.692	-0.0032
786.927	-0.0023
787.161	-0.0016
787.396	-0.0022
787.63	-0.0024
787.864	-0.0033
788.098	-0.0053
788.332	-0.0045
788.566	-0.0041
788.8	-0.0038
789.034	-0.0023
789.268	-0.0022
789.502	-0.0015
789.736	-0.002
789.969	-0.0015
790.203	-0.0026
790.437	-0.0034
790.67	-0.0042
790.904	-0.0052
791.137	-0.0057
791.37	-0.0058
791.604	-0.0076
791.837	-0.0066
792.07	-0.0057
792.303	-0.0061
792.537	-0.005
792.77	-0.0052
793.003	-0.0044
793.236	-0.0042
793.469	-0.0036
793.701	-0.0024
793.934	-0.0023
794.167	-0.0021
794.4	-0.0022
794.632	-0.0012
794.865	-0.0004
795.097	-0.0006
795.33	-0.0024
795.562	-0.0015
795.795	-0.0006
796.027	0.0001
796.259	0.0004
796.491	0.0001
796.724	-0.0004
796.956	0.0015
797.188	0.0006
797.42	0.0009
797.652	0.0004
797.883	0.0002
798.115	0.0019
798.347	0.0008
798.579	0.0026
798.81	0.0027
799.042	0.0025
799.274	0.002
799.505	0.0019
799.737	0.0016
799.968	-0.0001
800.199	-0
800.431	-0.0004
800.662	-0.0006
800.893	-0.0005
801.124	-0.0012
801.355	-0.0003
801.586	-0.0013
801.817	-0.0015
802.048	-0.0036
802.279	-0.0028
802.51	-0.0018
802.741	-0.0006
802.971	0.0009
803.202	0.0002
803.433	0.0012
803.663	-0.0009
803.894	-0.0006
804.124	-0.0013
804.354	-0.0012
804.585	-0.0017
804.815	-0.001
805.045	-0.0019
805.275	-0.0008
805.506	-0.0145
805.736	-0.0266
805.966	-0.0486
806.196	-0.1024
