Data from 03 0.5 mM K2Cr2O7 0.3 mM BQDS 1 M H2SO4 5 min_Absorbance_0131.txt Node
Date: Tue Dec 14 04:34:45 EST 2021
User: kwabilab-user
Spectrometer: HDX00518
Trigger mode: 0
Integration Time (sec): 5.000000E-2
Scans to average: 50
Nonlinearity correction enabled: false
Boxcar width: 0
Storing dark spectrum: false
XAxis mode: Wavelengths
Number of Pixels in Spectrum: 2068
>>>>>Begin Spectral Data<<<<<
195.27	-0.031
195.642	0.0203
196.014	0.0191
196.386	0.1349
196.758	-0.0244
197.129	-0.0088
197.501	-0.0152
197.872	-0.0028
198.244	0.0236
198.615	0.0372
198.986	0.0373
199.357	0.0442
199.728	0.0408
200.099	0.0471
200.47	0.0233
200.841	0.029
201.212	0.046
201.582	0.0441
201.953	0.0478
202.323	0.0337
202.694	0.0354
203.064	0.0307
203.434	0.0542
203.804	0.0351
204.174	0.0546
204.544	0.0387
204.914	0.0412
205.284	0.0233
205.653	0.0215
206.023	0.0339
206.393	0.014
206.762	0.0387
207.131	0.0229
207.501	0.0288
207.87	0.0295
208.239	0.0576
208.608	0.0289
208.977	0.0206
209.346	0.0263
209.715	0.0359
210.083	0.0087
210.452	0.0175
210.82	0.0223
211.189	0.0196
211.557	0.0469
211.925	-0.0034
212.294	0.0474
212.662	0.0157
213.03	0.0274
213.398	0.0634
213.766	0.0394
214.133	0.0223
214.501	0.0532
214.869	0.0552
215.236	0.0346
215.604	0.0407
215.971	0.0255
216.338	0.0522
216.705	0.0492
217.072	0.0626
217.439	0.0548
217.806	0.0549
218.173	0.0634
218.54	0.0811
218.907	0.0718
219.273	0.0761
219.64	0.0843
220.006	0.1025
220.373	0.1162
220.739	0.0862
221.105	0.1243
221.471	0.1511
221.837	0.1578
222.203	0.1866
222.569	0.1854
222.935	0.2267
223.3	0.2109
223.666	0.2463
224.031	0.2636
224.397	0.294
224.762	0.2937
225.127	0.3411
225.493	0.3676
225.858	0.3716
226.223	0.4049
226.588	0.4123
226.952	0.4379
227.317	0.4668
227.682	0.4775
228.046	0.4841
228.411	0.5232
228.775	0.539
229.14	0.5336
229.504	0.5708
229.868	0.5715
230.232	0.5773
230.596	0.6077
230.96	0.6208
231.324	0.6082
231.688	0.6231
232.052	0.6367
232.415	0.6396
232.779	0.6261
233.142	0.6448
233.505	0.6608
233.869	0.661
234.232	0.6581
234.595	0.6702
234.958	0.6714
235.321	0.6601
235.684	0.6575
236.047	0.6607
236.409	0.647
236.772	0.662
237.134	0.6744
237.497	0.6653
237.859	0.6657
238.222	0.6714
238.584	0.6749
238.946	0.6513
239.308	0.6584
239.67	0.6422
240.032	0.6502
240.393	0.6625
240.755	0.6526
241.117	0.6466
241.478	0.6509
241.84	0.6473
242.201	0.6441
242.562	0.6333
242.924	0.6376
243.285	0.6381
243.646	0.6425
244.007	0.6241
244.368	0.629
244.728	0.6332
245.089	0.6288
245.45	0.6295
245.81	0.6221
246.171	0.6153
246.531	0.6241
246.891	0.6139
247.252	0.6117
247.612	0.6144
247.972	0.6207
248.332	0.6146
248.692	0.6099
249.051	0.6168
249.411	0.6162
249.771	0.6137
250.13	0.6087
250.49	0.6083
250.849	0.6128
251.208	0.6192
251.568	0.6146
251.927	0.6117
252.286	0.615
252.645	0.6089
253.004	0.6141
253.363	0.6023
253.721	0.616
254.08	0.6112
254.439	0.603
254.797	0.6011
255.155	0.6046
255.514	0.6006
255.872	0.6072
256.23	0.6009
256.588	0.6061
256.946	0.6009
257.304	0.5998
257.662	0.5988
258.02	0.5959
258.377	0.5977
258.735	0.592
259.093	0.5891
259.45	0.5926
259.807	0.5917
260.165	0.5867
260.522	0.5944
260.879	0.5853
261.236	0.5843
261.593	0.5848
261.95	0.5761
262.306	0.5807
262.663	0.5727
263.02	0.5732
263.376	0.5685
263.733	0.5703
264.089	0.5711
264.445	0.5615
264.802	0.5631
265.158	0.5645
265.514	0.5545
265.87	0.5516
266.226	0.5545
266.581	0.5531
266.937	0.5505
267.293	0.5456
267.648	0.539
268.004	0.5411
268.359	0.5325
268.714	0.5305
269.07	0.5307
269.425	0.5273
269.78	0.5223
270.135	0.5252
270.49	0.5219
270.844	0.5171
271.199	0.5159
271.554	0.5088
271.908	0.5021
272.263	0.5071
272.617	0.4985
272.972	0.498
273.326	0.497
273.68	0.4854
274.034	0.4878
274.388	0.4879
274.742	0.4821
275.096	0.4791
275.45	0.4765
275.803	0.4696
276.157	0.4639
276.51	0.4614
276.864	0.458
277.217	0.4598
277.571	0.4554
277.924	0.4475
278.277	0.444
278.63	0.4408
278.983	0.4352
279.336	0.4327
279.688	0.4297
280.041	0.4224
280.394	0.4157
280.746	0.4157
281.099	0.4118
281.451	0.4062
281.803	0.3999
282.156	0.3972
282.508	0.3954
282.86	0.3927
283.212	0.3835
283.564	0.3819
283.916	0.3774
284.267	0.3742
284.619	0.3678
284.971	0.3661
285.322	0.362
285.673	0.3541
286.025	0.3512
286.376	0.3491
286.727	0.3457
287.078	0.3393
287.429	0.3357
287.78	0.3331
288.131	0.3272
288.482	0.3238
288.833	0.3185
289.183	0.3135
289.534	0.3115
289.884	0.3049
290.235	0.3042
290.585	0.2996
290.935	0.2959
291.285	0.2898
291.635	0.2872
291.985	0.2821
292.335	0.2779
292.685	0.276
293.035	0.273
293.384	0.2662
293.734	0.2659
294.083	0.2593
294.433	0.255
294.782	0.253
295.131	0.2488
295.48	0.2453
295.829	0.2415
296.179	0.2382
296.527	0.2346
296.876	0.231
297.225	0.2272
297.574	0.2237
297.922	0.221
298.271	0.2175
298.619	0.214
298.968	0.2096
299.316	0.2071
299.664	0.205
300.012	0.203
300.36	0.199
300.708	0.1958
301.056	0.1932
301.404	0.1911
301.752	0.1886
302.099	0.1854
302.447	0.1833
302.794	0.1803
303.142	0.1786
303.489	0.1757
303.836	0.1744
304.183	0.1718
304.531	0.17
304.878	0.1685
305.224	0.1678
305.571	0.1652
305.918	0.1631
306.265	0.162
306.611	0.1605
306.958	0.1597
307.304	0.1567
307.651	0.1567
307.997	0.1553
308.343	0.1545
308.689	0.1532
309.035	0.151
309.381	0.1506
309.727	0.1504
310.073	0.1495
310.419	0.1492
310.764	0.147
311.11	0.1479
311.455	0.1483
311.801	0.1473
312.146	0.1477
312.491	0.1464
312.837	0.146
313.182	0.1458
313.527	0.1462
313.872	0.1457
314.216	0.1454
314.561	0.1461
314.906	0.1463
315.251	0.1468
315.595	0.1471
315.94	0.1481
316.284	0.148
316.628	0.1486
316.972	0.149
317.317	0.1495
317.661	0.1498
318.005	0.1507
318.348	0.1518
318.692	0.1518
319.036	0.1527
319.38	0.1541
319.723	0.1548
320.067	0.156
320.41	0.1568
320.754	0.1585
321.097	0.1596
321.44	0.16
321.783	0.1618
322.126	0.1639
322.469	0.1637
322.812	0.1654
323.155	0.1669
323.498	0.1685
323.84	0.1695
324.183	0.1716
324.525	0.1725
324.868	0.1743
325.21	0.1755
325.552	0.1782
325.894	0.1781
326.236	0.1802
326.578	0.1809
326.92	0.1838
327.262	0.1845
327.604	0.1863
327.946	0.1884
328.287	0.1905
328.629	0.1919
328.97	0.1943
329.312	0.1946
329.653	0.1966
329.994	0.198
330.335	0.2001
330.676	0.202
331.017	0.2038
331.358	0.2058
331.699	0.2077
332.04	0.2094
332.38	0.2103
332.721	0.2123
333.061	0.2154
333.402	0.2165
333.742	0.2181
334.083	0.2199
334.423	0.2206
334.763	0.2229
335.103	0.2241
335.443	0.2256
335.783	0.2272
336.123	0.2281
336.462	0.2299
336.802	0.2323
337.141	0.2326
337.481	0.234
337.82	0.236
338.16	0.2366
338.499	0.2387
338.838	0.239
339.177	0.2421
339.516	0.2432
339.855	0.2443
340.194	0.2454
340.533	0.2465
340.872	0.2477
341.21	0.2488
341.549	0.2497
341.887	0.2516
342.226	0.252
342.564	0.2527
342.902	0.253
343.24	0.2533
343.578	0.2543
343.916	0.2559
344.254	0.2556
344.592	0.2568
344.93	0.2564
345.268	0.2566
345.605	0.2564
345.943	0.2572
346.28	0.2573
346.618	0.2577
346.955	0.259
347.292	0.2583
347.629	0.259
347.966	0.2597
348.303	0.2596
348.64	0.2601
348.977	0.2596
349.314	0.26
349.65	0.26
349.987	0.2595
350.324	0.2601
350.66	0.2598
350.996	0.2595
351.333	0.2586
351.669	0.2584
352.005	0.2575
352.341	0.2568
352.677	0.2558
353.013	0.2555
353.349	0.255
353.685	0.2522
354.02	0.2527
354.356	0.2513
354.691	0.2494
355.027	0.2489
355.362	0.2486
355.697	0.2481
356.033	0.2465
356.368	0.2454
356.703	0.2438
357.038	0.2436
357.373	0.2422
357.707	0.2421
358.042	0.2398
358.377	0.2401
358.711	0.239
359.046	0.2377
359.38	0.2364
359.715	0.2359
360.049	0.2347
360.383	0.2336
360.717	0.2313
361.051	0.2311
361.385	0.2293
361.719	0.2263
362.053	0.2248
362.387	0.2235
362.72	0.2212
363.054	0.2197
363.387	0.2177
363.721	0.2166
364.054	0.2142
364.387	0.2125
364.721	0.211
365.054	0.2086
365.387	0.2066
365.72	0.2048
366.053	0.2032
366.385	0.2017
366.718	0.2004
367.051	0.198
367.383	0.1971
367.716	0.1962
368.048	0.1953
368.381	0.1925
368.713	0.1915
369.045	0.1909
369.377	0.1891
369.709	0.1879
370.041	0.1865
370.373	0.1841
370.705	0.1824
371.037	0.1817
371.368	0.1794
371.7	0.1789
372.031	0.1756
372.363	0.1739
372.694	0.1715
373.025	0.1694
373.356	0.1672
373.688	0.1652
374.019	0.1635
374.35	0.1608
374.68	0.1597
375.011	0.1571
375.342	0.1542
375.673	0.1539
376.003	0.1508
376.334	0.1499
376.664	0.1473
376.995	0.146
377.325	0.143
377.655	0.1427
377.985	0.1406
378.315	0.1393
378.645	0.1377
378.975	0.1365
379.305	0.1347
379.635	0.1345
379.964	0.1337
380.294	0.1311
380.623	0.1303
380.953	0.1287
381.282	0.127
381.611	0.1254
381.941	0.1236
382.27	0.1229
382.599	0.1209
382.928	0.1189
383.257	0.1186
383.585	0.1162
383.914	0.1151
384.243	0.1128
384.571	0.1114
384.9	0.109
385.228	0.1081
385.557	0.1056
385.885	0.1035
386.213	0.1025
386.541	0.1008
386.869	0.0994
387.197	0.0977
387.525	0.0959
387.853	0.0941
388.181	0.0932
388.508	0.0906
388.836	0.0892
389.164	0.0886
389.491	0.0875
389.818	0.0862
390.146	0.0846
390.473	0.0833
390.8	0.0818
391.127	0.0803
391.454	0.0793
391.781	0.0784
392.108	0.077
392.435	0.0762
392.761	0.0744
393.088	0.074
393.415	0.0736
393.741	0.0727
394.067	0.0717
394.394	0.0709
394.72	0.0698
395.046	0.0687
395.372	0.0675
395.698	0.0675
396.024	0.066
396.35	0.0649
396.676	0.0636
397.001	0.0626
397.327	0.0626
397.653	0.0613
397.978	0.0603
398.303	0.059
398.629	0.0573
398.954	0.0569
399.279	0.0565
399.604	0.0558
399.929	0.0549
400.254	0.054
400.579	0.0539
400.904	0.0533
401.229	0.0526
401.553	0.0518
401.878	0.0511
402.202	0.0504
402.527	0.0503
402.851	0.0493
403.175	0.0491
403.5	0.0477
403.824	0.0478
404.148	0.048
404.472	0.0467
404.796	0.0465
405.119	0.0461
405.443	0.0455
405.767	0.045
406.09	0.0451
406.414	0.0447
406.737	0.0447
407.061	0.0446
407.384	0.0434
407.707	0.0439
408.03	0.0439
408.353	0.0439
408.676	0.0431
408.999	0.043
409.322	0.0435
409.645	0.0429
409.968	0.0433
410.29	0.0421
410.613	0.0427
410.935	0.0424
411.258	0.0424
411.58	0.0421
411.902	0.0417
412.224	0.0411
412.546	0.0417
412.868	0.0413
413.19	0.0412
413.512	0.0416
413.834	0.0403
414.156	0.041
414.477	0.0416
414.799	0.0408
415.121	0.0414
415.442	0.0415
415.763	0.0414
416.085	0.0407
416.406	0.0411
416.727	0.0413
417.048	0.0403
417.369	0.0407
417.69	0.0401
418.011	0.0406
418.331	0.0412
418.652	0.041
418.973	0.0412
419.293	0.0414
419.614	0.0412
419.934	0.0419
420.254	0.0411
420.574	0.041
420.895	0.041
421.215	0.0413
421.535	0.0407
421.855	0.0407
422.174	0.0401
422.494	0.0404
422.814	0.0402
423.134	0.0403
423.453	0.0414
423.773	0.0408
424.092	0.0409
424.411	0.0402
424.731	0.0416
425.05	0.0405
425.369	0.0406
425.688	0.0407
426.007	0.0408
426.326	0.041
426.644	0.041
426.963	0.0413
427.282	0.0406
427.6	0.0408
427.919	0.0405
428.237	0.0417
428.556	0.0415
428.874	0.0419
429.192	0.0408
429.51	0.0414
429.828	0.041
430.146	0.0414
430.464	0.0405
430.782	0.041
431.1	0.0412
431.418	0.0409
431.735	0.0413
432.053	0.0415
432.37	0.0409
432.688	0.0404
433.005	0.0412
433.322	0.0419
433.639	0.0416
433.957	0.0416
434.274	0.0412
434.591	0.041
434.907	0.041
435.224	0.0412
435.541	0.0413
435.858	0.0418
436.174	0.0427
436.491	0.0406
436.807	0.0407
437.124	0.0406
437.44	0.0411
437.756	0.0406
438.072	0.0421
438.388	0.0416
438.704	0.041
439.02	0.0407
439.336	0.0406
439.652	0.0406
439.968	0.0403
440.283	0.0401
440.599	0.0401
440.914	0.041
441.23	0.0406
441.545	0.0413
441.86	0.04
442.175	0.0408
442.491	0.0405
442.806	0.0399
443.121	0.0403
443.435	0.0401
443.75	0.0395
444.065	0.0401
444.38	0.0405
444.694	0.0406
445.009	0.0402
445.323	0.0397
445.638	0.0386
445.952	0.0396
446.266	0.0397
446.58	0.0394
446.894	0.0399
447.208	0.0394
447.522	0.0392
447.836	0.0397
448.15	0.0383
448.464	0.0395
448.777	0.0394
449.091	0.0386
449.404	0.0385
449.718	0.0382
450.031	0.0381
450.345	0.0377
450.658	0.0387
450.971	0.0378
451.284	0.0377
451.597	0.0375
451.91	0.0376
452.223	0.0375
452.535	0.0367
452.848	0.0375
453.161	0.0366
453.473	0.037
453.786	0.0372
454.098	0.0367
454.411	0.0365
454.723	0.0364
455.035	0.0357
455.347	0.0352
455.659	0.0353
455.971	0.0356
456.283	0.0357
456.595	0.0346
456.907	0.0356
457.218	0.0354
457.53	0.0348
457.841	0.0352
458.153	0.0347
458.464	0.0347
458.776	0.0343
459.087	0.034
459.398	0.0345
459.709	0.0344
460.02	0.0339
460.331	0.0332
460.642	0.034
460.953	0.0333
461.263	0.0328
461.574	0.0322
461.885	0.0325
462.195	0.0326
462.506	0.0319
462.816	0.0316
463.126	0.0321
463.437	0.0315
463.747	0.0314
464.057	0.0305
464.367	0.0308
464.677	0.0306
464.987	0.0297
465.296	0.0303
465.606	0.0298
465.916	0.0294
466.225	0.03
466.535	0.0304
466.844	0.0296
467.154	0.0298
467.463	0.0287
467.772	0.0289
468.081	0.0298
468.39	0.0282
468.699	0.0282
469.008	0.0286
469.317	0.0274
469.626	0.0271
469.935	0.0266
470.243	0.0268
470.552	0.0269
470.86	0.0269
471.169	0.0263
471.477	0.0263
471.785	0.0266
472.093	0.0261
472.402	0.0254
472.71	0.0255
473.018	0.0251
473.326	0.0244
473.633	0.0255
473.941	0.0248
474.249	0.0244
474.556	0.0256
474.864	0.0246
475.171	0.0236
475.479	0.0242
475.786	0.0231
476.094	0.0228
476.401	0.0236
476.708	0.0232
477.015	0.0226
477.322	0.0227
477.629	0.0222
477.936	0.0223
478.242	0.0217
478.549	0.0214
478.856	0.0217
479.162	0.0212
479.469	0.0213
479.775	0.022
480.081	0.0201
480.388	0.02
480.694	0.021
481	0.0199
481.306	0.0201
481.612	0.0197
481.918	0.02
482.224	0.019
482.53	0.0191
482.835	0.019
483.141	0.0191
483.446	0.0189
483.752	0.0179
484.057	0.0178
484.363	0.0176
484.668	0.0177
484.973	0.0166
485.278	0.017
485.583	0.017
485.888	0.0165
486.193	0.0155
486.498	0.0158
486.803	0.016
487.107	0.0157
487.412	0.0152
487.717	0.0158
488.021	0.0151
488.325	0.0161
488.63	0.0155
488.934	0.0151
489.238	0.0148
489.542	0.0141
489.846	0.0143
490.15	0.0148
490.454	0.0141
490.758	0.0145
491.062	0.0132
491.366	0.0135
491.669	0.0132
491.973	0.0136
492.276	0.0134
492.58	0.0131
492.883	0.0125
493.186	0.0115
493.489	0.0122
493.792	0.0108
494.096	0.0112
494.399	0.0111
494.701	0.0113
495.004	0.0099
495.307	0.0111
495.61	0.011
495.912	0.0116
496.215	0.0093
496.517	0.0096
496.82	0.0099
497.122	0.0092
497.424	0.0105
497.727	0.0089
498.029	0.0091
498.331	0.01
498.633	0.0096
498.935	0.0094
499.237	0.0088
499.538	0.0075
499.84	0.0088
500.142	0.0083
500.443	0.0074
500.745	0.0078
501.046	0.0073
501.348	0.0073
501.649	0.0069
501.95	0.0066
502.251	0.0068
502.552	0.0068
502.853	0.0067
503.154	0.0061
503.455	0.0064
503.756	0.0067
504.057	0.0076
504.357	0.0052
504.658	0.0069
504.958	0.0066
505.259	0.0064
505.559	0.0052
505.859	0.0053
506.16	0.0053
506.46	0.0054
506.76	0.0057
507.06	0.0049
507.36	0.0056
507.66	0.0048
507.96	0.0055
508.259	0.0041
508.559	0.0047
508.859	0.0055
509.158	0.0051
509.457	0.0039
509.757	0.0043
510.056	0.0038
510.355	0.0046
510.655	0.0033
510.954	0.0038
511.253	0.0031
511.552	0.0032
511.851	0.004
512.149	0.0026
512.448	0.0031
512.747	0.0035
513.045	0.0027
513.344	0.0027
513.642	0.0018
513.941	0.0025
514.239	0.0024
514.537	0.0019
514.836	0.0032
515.134	0.0018
515.432	0.0032
515.73	0.0024
516.028	0.0026
516.326	0.0019
516.623	0.001
516.921	0.0002
517.219	0.002
517.516	0.0011
517.814	0.0023
518.111	0.0012
518.409	0.0002
518.706	0.0012
519.003	0.0022
519.3	0.0023
519.597	0.0009
519.894	0.002
520.191	0.0019
520.488	0.0016
520.785	0.0008
521.082	0.0006
521.378	0.0001
521.675	0.0004
521.971	0.0003
522.268	0.0009
522.564	0.0003
522.861	0.0019
523.157	0.0008
523.453	0.0017
523.749	0.001
524.045	0.0006
524.341	0.0013
524.637	0.0003
524.933	0.0004
525.229	0.0008
525.524	-0.0002
525.82	-0.0003
526.115	-0.0004
526.411	0.0004
526.706	0.0004
527.002	0.0005
527.297	-0.0003
527.592	0.0004
527.887	0.0013
528.182	0.0008
528.477	0.0006
528.772	0.0005
529.067	0.0006
529.362	-0.0002
529.657	0.0002
529.951	0.0006
530.246	-0.0008
530.54	0.0003
530.835	0
531.129	0.0003
531.423	-0.0006
531.718	0.0006
532.012	-0.0004
532.306	-0.0006
532.6	-0.0011
532.894	-0.0005
533.188	-0.001
533.482	-0.0007
533.775	-0.0005
534.069	-0.0017
534.363	-0.0016
534.656	-0.0021
534.95	-0.0003
535.243	-0.0014
535.536	-0.0005
535.83	-0.0016
536.123	-0.0004
536.416	-0.001
536.709	-0.001
537.002	-0.0015
537.295	-0.0005
537.588	-0.0015
537.881	-0.002
538.173	-0.0008
538.466	-0.0015
538.759	-0.0014
539.051	-0.0012
539.344	-0.0008
539.636	-0.001
539.928	-0.0003
540.22	-0.0003
540.513	-0.0002
540.805	-0.0002
541.097	-0.0016
541.389	-0.0006
541.681	-0.0002
541.972	-0.0005
542.264	0.0009
542.556	0.0002
542.847	0.0009
543.139	-0.0007
543.431	-0.0001
543.722	0
544.013	0.0001
544.305	-0.0011
544.596	-0.0008
544.887	-0.0004
545.178	-0.0002
545.469	-0.0018
545.76	-0.0009
546.051	0.0008
546.342	-0.0004
546.632	-0.0012
546.923	-0.0004
547.214	-0.001
547.504	-0.0019
547.795	-0.0014
548.085	-0.0021
548.375	-0.0008
548.666	-0.0014
548.956	-0.0013
549.246	-0.0007
549.536	-0.0001
549.826	-0.0009
550.116	-0.0011
550.406	-0.0017
550.695	-0.0026
550.985	-0.0002
551.275	-0.0012
551.564	-0.0006
551.854	0.0004
552.143	-0.0017
552.433	-0.0021
552.722	-0.0021
553.011	-0.0008
553.3	-0.0005
553.589	0.0002
553.879	-0.0007
554.167	-0.0009
554.456	0.0002
554.745	0.001
555.034	-0.0005
555.323	0.0005
555.611	-0.0007
555.9	-0.0014
556.188	-0.0022
556.477	-0.0008
556.765	-0.004
557.053	-0.0016
557.342	-0.001
557.63	-0.0015
557.918	-0.0004
558.206	-0.0001
558.494	0.0003
558.782	-0.0005
559.069	0.0007
559.357	0.0006
559.645	-0.0011
559.932	0.0008
560.22	-0.0006
560.507	-0.0016
560.795	-0.0013
561.082	-0.0022
561.37	-0.0002
561.657	-0.0013
561.944	-0.001
562.231	-0.0009
562.518	0.0001
562.805	-0.001
563.092	-0.0002
563.379	-0.0004
563.665	-0.0001
563.952	0.0002
564.239	-0.0002
564.525	0.0002
564.811	0.0003
565.098	0.0001
565.384	-0.0012
565.67	0.001
565.957	0.0006
566.243	0.0021
566.529	-0.0003
566.815	0.0003
567.101	0.0012
567.387	0
567.672	0.0006
567.958	0.0007
568.244	0.0013
568.529	0.0007
568.815	-0.0012
569.1	-0.0011
569.386	-0.0009
569.671	-0.0005
569.956	-0.0008
570.242	-0.0009
570.527	-0.0006
570.812	0.0008
571.097	-0.0001
571.382	-0.0012
571.666	0
571.951	-0.0009
572.236	-0.0006
572.521	0.0001
572.805	-0.0005
573.09	-0.001
573.374	-0.0017
573.659	-0.0012
573.943	-0.0009
574.227	-0.0007
574.511	-0.0011
574.795	-0.0004
575.079	-0.0004
575.363	-0.0017
575.647	-0.0006
575.931	-0.0004
576.215	-0.0011
576.499	-0.0009
576.782	-0.0007
577.066	-0.0011
577.349	0.0006
577.633	-0.0008
577.916	-0.001
578.2	-0.0014
578.483	-0.001
578.766	0.0001
579.049	-0.0004
579.332	0.0009
579.615	0.001
579.898	-0.0002
580.181	0.0007
580.464	0.0006
580.746	0
581.029	-0.0003
581.312	-0.0008
581.594	-0.0016
581.877	-0.0015
582.159	-0.0014
582.441	-0.0015
582.724	-0.0006
583.006	-0.0005
583.288	0.0001
583.57	0.0009
583.852	0.0008
584.134	0.0005
584.416	-0.0002
584.697	-0.0002
584.979	-0.0018
585.261	-0.002
585.542	-0.0018
585.824	-0.0013
586.105	-0.0017
586.387	-0.0013
586.668	-0.0009
586.949	-0.0008
587.231	-0.0003
587.512	-0.0006
587.793	-0.0007
588.074	-0.001
588.355	-0.0003
588.636	-0.0008
588.916	-0.0008
589.197	-0.0005
589.478	-0.0001
589.758	-0.0006
590.039	0
590.319	0.0009
590.6	0.0009
590.88	0.0001
591.16	0.0008
591.441	0.0009
591.721	0.0001
592.001	-0.0005
592.281	-0.0009
592.561	0.0001
592.841	-0.0011
593.12	-0.002
593.4	-0.0014
593.68	-0.0024
593.959	-0.0017
594.239	-0.0009
594.518	-0.0011
594.798	-0
595.077	-0.0014
595.356	-0.001
595.636	-0.0003
595.915	-0.0002
596.194	0
596.473	0.0002
596.752	-0.0002
597.031	0.0007
597.31	-0.0005
597.588	-0.0008
597.867	-0.0003
598.146	-0.0011
598.424	-0.0002
598.703	-0.0005
598.981	-0.0023
599.259	-0.0018
599.538	-0.0009
599.816	-0.0009
600.094	-0.0009
600.372	-0.0018
600.65	-0.0014
600.928	-0.0008
601.206	-0.0004
601.484	-0.0002
601.762	-0.0001
602.04	-0.0005
602.317	0.0005
602.595	0
602.872	-0.0001
603.15	0.0002
603.427	-0.0012
603.704	-0.0015
603.982	-0.0009
604.259	-0.0012
604.536	-0.0003
604.813	-0.0004
605.09	-0.0004
605.367	-0.001
605.644	-0.0012
605.921	-0.0012
606.197	-0.0019
606.474	-0.0005
606.751	-0.0004
607.027	-0.0007
607.304	-0.0015
607.58	-0.0006
607.856	-0.0018
608.133	-0.0021
608.409	-0.001
608.685	-0.0007
608.961	-0.0014
609.237	-0.0005
609.513	-0.0006
609.789	-0.0005
610.065	-0.001
610.341	-0.0005
610.616	0.0002
610.892	0.0006
611.167	0.0011
611.443	0
611.718	-0.0003
611.994	-0.0001
612.269	0.0001
612.544	-0.0007
612.819	-0.0004
613.095	-0.0011
613.37	0.0006
613.645	-0.0014
613.919	-0.0008
614.194	-0.0004
614.469	0.0005
614.744	-0.0005
615.019	-0.0013
615.293	-0.0011
615.568	-0.001
615.842	-0.0004
616.116	0.0013
616.391	0.0014
616.665	0.001
616.939	0.0005
617.213	0.0007
617.488	0.0008
617.762	-0.0004
618.035	-0.0004
618.309	-0.0005
618.583	0.0008
618.857	0.0012
619.131	0.0018
619.404	0.0012
619.678	0.001
619.951	0.0001
620.225	-0.0002
620.498	0
620.771	0
621.045	0.0001
621.318	-0.0016
621.591	-0.0014
621.864	-0.0019
622.137	-0.0021
622.41	-0.0012
622.683	-0.0004
622.956	-0.0006
623.228	-0
623.501	0.0008
623.774	0.0003
624.046	0.0004
624.319	-0.0005
624.591	-0.0012
624.863	-0.001
625.136	-0.0002
625.408	0.0003
625.68	0
625.952	0.0013
626.224	0.0015
626.496	0.0011
626.768	0.0011
627.04	0.0003
627.311	-0.0003
627.583	0
627.855	0.0017
628.126	0.0009
628.398	0.0019
628.669	0.0025
628.941	0.0023
629.212	0.0012
629.483	0.0013
629.755	0.0009
630.026	0.0009
630.297	0.0019
630.568	0.0017
630.839	0.0021
631.11	0.001
631.38	0.0015
631.651	0.0028
631.922	0.0018
632.192	0.0013
632.463	0.0005
632.733	0.0004
633.004	0.0004
633.274	0.0021
633.545	0.0019
633.815	0.002
634.085	-0.0004
634.355	-0.0013
634.625	-0.0013
634.895	0.0005
635.165	-0.0011
635.435	-0.0008
635.705	-0.0007
635.974	-0.0011
636.244	0.0002
636.514	0.0007
636.783	0.0003
637.053	0.0001
637.322	0.0016
637.591	0.002
637.861	-0.0006
638.13	0.0003
638.399	-0.0006
638.668	-0.0014
638.937	-0.0016
639.206	-0.0014
639.475	-0.0006
639.744	-0.0012
640.013	0.0002
640.281	0.0005
640.55	-0.0002
640.819	0.0004
641.087	0.001
641.356	0.001
641.624	0.0026
641.892	0.003
642.161	0.0018
642.429	0.0016
642.697	-0.0001
642.965	0.0007
643.233	0
643.501	-0.0002
643.769	0.0004
644.037	0.0009
644.305	-0.0004
644.572	0.0006
644.84	-0.0001
645.108	-0.0015
645.375	-0.0008
645.643	-0.0004
645.91	0.001
646.177	0.0022
646.445	0.0023
646.712	0.0035
646.979	0.0035
647.246	0.0039
647.513	0.004
647.78	0.003
648.047	0.0008
648.314	-0.0011
648.58	-0
648.847	0.0002
649.114	0.0018
649.38	0.0007
649.647	-0.0003
649.913	0.0006
650.18	0.001
650.446	0.0022
650.712	0.0004
650.978	-0.0004
651.245	-0.0004
651.511	-0.0003
651.777	0.0004
652.043	-0
652.309	0.0009
652.574	0.0022
652.84	0.0025
653.106	0.0022
653.371	0.0024
653.637	0.0033
653.903	0.003
654.168	0.0037
654.433	0.0053
654.699	0.0045
654.964	0.0045
655.229	0.0027
655.494	0.0009
655.759	-0.0034
656.024	-0.0001
656.289	-0
656.554	0.0003
656.819	0.0001
657.084	0.0016
657.349	0.0015
657.613	0.0022
657.878	0.0008
658.142	0.0002
658.407	0.0007
658.671	0.0013
658.936	0.0011
659.2	0.0015
659.464	0.0019
659.728	0.0019
659.992	0.0003
660.256	0.0011
660.52	0.0005
660.784	-0.0003
661.048	0.0006
661.312	0.0008
661.575	0.001
661.839	0.0014
662.103	0.0007
662.366	0.0009
662.63	-0
662.893	0.0002
663.156	-0.0004
663.42	-0.0007
663.683	-0.0019
663.946	-0.0028
664.209	-0.002
664.472	-0.0031
664.735	-0.0014
664.998	-0.0002
665.261	-0.0006
665.524	-0.001
665.786	-0.0003
666.049	-0.001
666.312	0.0009
666.574	0
666.837	-0.0003
667.099	0.0008
667.361	0.0006
667.624	0
667.886	-0.0015
668.148	-0.0012
668.41	0.0004
668.672	-0.001
668.934	-0.0007
669.196	-0.0002
669.458	0.0015
669.72	0.0015
669.982	0.0018
670.243	0.0016
670.505	0.0014
670.766	0.0016
671.028	0.0007
671.289	0.0004
671.551	-0
671.812	-0.0014
672.073	0.0001
672.334	0.0005
672.596	-0.0004
672.857	-0.001
673.118	-0.0004
673.379	-0.0008
673.639	-0.0014
673.9	-0.001
674.161	-0.0009
674.422	-0.0022
674.682	-0.0011
674.943	-0.0002
675.203	-0.0007
675.464	-0.0009
675.724	-0.0025
675.985	-0.0024
676.245	-0.0023
676.505	-0.0012
676.765	-0.0022
677.025	-0.0005
677.285	-0.0004
677.545	0.0007
677.805	0.0002
678.065	0.0004
678.325	0.0007
678.585	0.0008
678.844	-0.0013
679.104	-0.0005
679.363	-0.0023
679.623	-0.0015
679.882	-0.0013
680.142	0.0003
680.401	-0.0002
680.66	0.0009
680.919	0.0022
681.178	0.0023
681.437	0.0008
681.696	0.0003
681.955	0.0007
682.214	0.0011
682.473	-0.0004
682.732	-0.0005
682.99	-0
683.249	0.0008
683.508	-0.0005
683.766	-0.0006
684.024	-0.0015
684.283	0.0004
684.541	-0.0004
684.799	0.0004
685.058	0.0004
685.316	-0.0014
685.574	-0.0009
685.832	-0.0009
686.09	-0.0014
686.348	-0.0019
686.606	-0.0021
686.863	-0.0012
687.121	0.0001
687.379	0.0004
687.636	-0.0002
687.894	0.0006
688.151	0.0006
688.409	-0.0001
688.666	-0.0011
688.923	-0.0015
689.181	-0.001
689.438	-0.0014
689.695	-0.0019
689.952	-0.0024
690.209	-0.0015
690.466	-0.0018
690.723	-0.0013
690.979	-0.0004
691.236	-0.0009
691.493	-0.0007
691.75	0.0003
692.006	-0.0003
692.263	-0.0003
692.519	0
692.775	-0.0001
693.032	-0
693.288	-0.0002
693.544	-0.0005
693.8	-0.0001
694.056	0.0001
694.313	-0.0004
694.568	-0.0001
694.824	-0.0003
695.08	-0.0008
695.336	-0.0021
695.592	-0.0031
695.847	-0.0001
696.103	-0.0003
696.359	-0.0007
696.614	-0.0011
696.869	-0.0018
697.125	-0.0033
697.38	-0.002
697.635	-0.0009
697.891	-0.0008
698.146	0.0002
698.401	-0.0002
698.656	-0.0006
698.911	0.0007
699.166	0.0007
699.42	0.0014
699.675	0.0007
699.93	0.001
700.185	0.0002
700.439	0.0007
700.694	0.0003
700.948	-0.0002
701.203	-0.001
701.457	-0.0004
701.711	-0.0017
701.965	-0.0017
702.22	-0.001
702.474	-0.0019
702.728	-0.0015
702.982	-0.0022
703.236	-0.0007
703.49	-0.0009
703.743	-0.0016
703.997	-0.0011
704.251	-0.002
704.504	-0.0013
704.758	-0.0017
705.012	0
705.265	-0.0001
705.518	0.0015
705.772	0.0009
706.025	0.0006
706.278	-0.001
706.531	-0.0017
706.785	-0.0018
707.038	-0.0032
707.291	-0.0015
707.543	-0.0021
707.796	-0.0013
708.049	-0.0026
708.302	-0.0021
708.555	-0.0029
708.807	-0.0016
709.06	-0.0027
709.312	-0.0017
709.565	-0.0016
709.817	-0.0016
710.069	-0.0026
710.322	-0.0023
710.574	-0.0035
710.826	-0.0033
711.078	-0.0029
711.33	-0.0021
711.582	-0.0033
711.834	-0.0034
712.086	-0.0037
712.338	-0.0045
712.59	-0.0029
712.841	-0.0047
713.093	-0.0044
713.344	-0.0041
713.596	-0.0039
713.847	-0.0025
714.099	-0.0026
714.35	-0.0023
714.601	-0.0023
714.853	-0.0012
715.104	-0.0017
715.355	-0.0022
715.606	-0.0017
715.857	-0.0007
716.108	-0.0015
716.359	-0.0014
716.609	-0.0018
716.86	-0.0008
717.111	-0.001
717.361	-0.0005
717.612	0.0007
717.863	0.001
718.113	0.0013
718.363	0.0004
718.614	0.0016
718.864	0.0025
719.114	0.0017
719.364	0.0027
719.614	0.0014
719.865	0.0028
720.114	0.0034
720.364	0.0032
720.614	0.0029
720.864	0.0017
721.114	0.0023
721.364	0.0019
721.613	0.0015
721.863	0.0016
722.112	0.0018
722.362	0.0006
722.611	-0.0001
722.86	-0.0001
723.11	-0.0002
723.359	-0.0002
723.608	-0.0004
723.857	-0.0007
724.106	0.0003
724.355	0.0001
724.604	0.0005
724.853	0.0006
725.102	-0.001
725.351	-0.0004
725.599	-0.0017
725.848	-0.0015
726.097	-0.0004
726.345	-0.0014
726.594	-0.0024
726.842	-0.0015
727.09	-0.0035
727.339	-0.0042
727.587	-0.0041
727.835	-0.004
728.083	-0.0029
728.331	-0.0041
728.579	-0.0021
728.827	-0.0015
729.075	-0.0011
729.323	-0.002
729.571	-0.0017
729.818	-0.001
730.066	-0.0013
730.314	-0.0009
730.561	0.0008
730.809	0.0005
731.056	-0.0007
731.303	0.0014
731.551	0.0007
731.798	-0
732.045	-0.0004
732.292	0.0014
732.539	0.0009
732.786	0.001
733.033	0.0002
733.28	0.0011
733.527	0.0003
733.774	0.0003
734.021	-0.0021
734.267	-0.0025
734.514	-0.0034
734.76	-0.0037
735.007	-0.0029
735.253	-0.0035
735.5	-0.0029
735.746	-0.0041
735.992	-0.0023
736.238	-0.0014
736.485	-0.0001
736.731	0.0001
736.977	-0.0014
737.223	-0.0009
737.469	-0.0006
737.715	0.0001
737.96	-0.0007
738.206	-0.001
738.452	-0.001
738.697	-0.0009
738.943	-0.0011
739.189	-0.002
739.434	-0.001
739.679	-0.0018
739.925	-0.0013
740.17	-0.0022
740.415	-0.0027
740.66	-0.0034
740.906	-0.0032
741.151	-0.0025
741.396	-0.0031
741.641	-0.0038
741.886	-0.0042
742.13	-0.0017
742.375	-0.0015
742.62	-0.0023
742.865	-0.0028
743.109	-0.0011
743.354	-0.0004
743.598	0.0007
743.843	0.0014
744.087	0.002
744.331	0.0023
744.576	0.0034
744.82	0.0044
745.064	0.0043
745.308	0.0045
745.552	0.0036
745.796	0.0021
746.04	0.0017
746.284	0.0013
746.528	0.0023
746.771	0.0042
747.015	0.0037
747.259	0.0025
747.502	0.0016
747.746	0.0016
747.989	0.0023
748.233	0.0018
748.476	0.0032
748.719	0.0037
748.963	0.0049
749.206	0.004
749.449	0.0028
749.692	0.0023
749.935	0.0032
750.178	0.0017
750.421	0.0007
750.664	0.0013
750.906	0.002
751.149	0.0024
751.392	0.0021
751.635	0.0014
751.877	0.0006
752.12	0.0002
752.362	0.0001
752.604	0
752.847	0.0021
753.089	0.0027
753.331	0.0035
753.573	0.0022
753.816	0.0008
754.058	0
754.3	-0.0009
754.542	-0.0007
754.783	-0.0014
755.025	-0.0022
755.267	-0.0005
755.509	-0.0017
755.75	-0.0014
755.992	-0.0001
756.234	-0.0013
756.475	-0.0012
756.716	-0.0025
756.958	-0.0021
757.199	-0.0017
757.44	-0.0014
757.682	-0.0018
757.923	-0.0005
758.164	0.001
758.405	0.0009
758.646	0.0023
758.887	0.0018
759.128	0.0016
759.369	0.0007
759.609	0.001
759.85	0.0011
760.091	0.0026
760.331	0.0017
760.572	-0.0006
760.812	-0.0012
761.053	-0.001
761.293	-0.0005
761.533	-0.0006
761.774	0.0011
762.014	0.0011
762.254	0.0002
762.494	-0.001
762.734	-0.0006
762.974	-0.0005
763.214	-0.0017
763.454	-0.0019
763.694	-0.0013
763.933	-0.0028
764.173	-0.004
764.413	-0.0047
764.652	-0.0053
764.892	-0.0037
765.131	-0.0039
765.371	-0.0039
765.61	-0.003
765.849	-0.0034
766.089	-0.002
766.328	-0.0014
766.567	-0.0017
766.806	-0.0015
767.045	-0.0013
767.284	-0.0018
767.523	-0.0013
767.762	-0.0022
768.001	-0.0027
768.239	-0.0021
768.478	-0.0013
768.717	-0.0011
768.955	-0.0008
769.194	-0.0014
769.432	0.0004
769.671	0.0006
769.909	0.0016
770.148	0.0008
770.386	0.0014
770.624	0.002
770.862	0.0028
771.1	0.0037
771.338	0.0029
771.576	0.0024
771.814	0.0031
772.052	0.0033
772.29	0.0035
772.528	0.0042
772.765	0.0047
773.003	0.0054
773.24	0.0052
773.478	0.0036
773.716	0.0038
773.953	0.0034
774.19	0.0038
774.428	0.0051
774.665	0.0043
774.902	0.0052
775.139	0.0045
775.376	0.0037
775.613	0.0037
775.85	0.0027
776.087	0.0021
776.324	0.0015
776.561	0.001
776.798	0.0006
777.034	-0.0002
777.271	0.0008
777.508	0.0018
777.744	0.0033
777.981	0.0035
778.217	0.004
778.454	0.0024
778.69	0.0014
778.926	0.0004
779.162	0.0005
779.399	0.0012
779.635	0.0001
779.871	0.0016
780.107	0.0011
780.343	0.0009
780.579	0.0011
780.814	0.0013
781.05	0.0011
781.286	-0.0003
781.522	0.001
781.757	0.001
781.993	0.001
782.228	0.0005
782.464	0.0012
782.699	0.0002
782.934	-0.0008
783.17	0
783.405	-0.001
783.64	-0
783.875	-0.0006
784.11	-0.001
784.345	-0.0002
784.58	0.0008
784.815	0.0014
785.05	-0.0001
785.285	-0.0011
785.52	-0.0004
785.754	-0.0028
785.989	-0.0028
786.223	-0.0041
786.458	-0.0035
786.692	-0.0027
786.927	-0.0021
787.161	-0.0009
787.396	-0.0022
787.63	-0.0017
787.864	-0.0029
788.098	-0.0037
788.332	-0.004
788.566	-0.0029
788.8	-0.0031
789.034	-0.0022
789.268	-0.0026
789.502	-0.0013
789.736	-0.0021
789.969	-0.0017
790.203	-0.0018
790.437	-0.0024
790.67	-0.0033
790.904	-0.0042
791.137	-0.0037
791.37	-0.0051
791.604	-0.006
791.837	-0.0058
792.07	-0.0048
792.303	-0.0053
792.537	-0.0046
792.77	-0.0053
793.003	-0.0043
793.236	-0.0034
793.469	-0.0046
793.701	-0.0029
793.934	-0.003
794.167	-0.0024
794.4	-0.0018
794.632	-0.0005
794.865	0
795.097	0.0004
795.33	-0.0013
795.562	-0.0004
795.795	0.0003
796.027	0.001
796.259	0.0008
796.491	0.0003
796.724	0.0003
796.956	0.0019
797.188	0.0009
797.42	0.001
797.652	0.0008
797.883	0.0009
798.115	0.0025
798.347	0.0026
798.579	0.0043
798.81	0.004
799.042	0.0044
799.274	0.0035
799.505	0.0023
799.737	0.0022
799.968	0.0007
800.199	0.001
800.431	0.0005
800.662	0.0004
800.893	0.0004
801.124	0.0003
801.355	-0.0004
801.586	0.0001
801.817	-0.0004
802.048	-0.0017
802.279	-0.0014
802.51	-0.0003
802.741	-0.0002
802.971	0.0009
803.202	0.0014
803.433	0.0008
803.663	0
803.894	0.0002
804.124	-0
804.354	0.0004
804.585	0.0003
804.815	0.0004
805.045	0.0005
805.275	0.0017
805.506	-0.0295
805.736	-0.0309
805.966	0.082
806.196	0.0463
