Data from 03 0.5 mM K2Cr2O7 0.3 mM BQDS 1 M H2SO4 5 min_Absorbance_0159.txt Node
Date: Tue Dec 14 06:54:44 EST 2021
User: kwabilab-user
Spectrometer: HDX00518
Trigger mode: 0
Integration Time (sec): 5.000000E-2
Scans to average: 50
Nonlinearity correction enabled: false
Boxcar width: 0
Storing dark spectrum: false
XAxis mode: Wavelengths
Number of Pixels in Spectrum: 2068
>>>>>Begin Spectral Data<<<<<
195.27	-0.0076
195.642	0.0907
196.014	0.058
196.386	0.2457
196.758	-0.0385
197.129	-0.0249
197.501	0.005
197.872	0.0101
198.244	0.0156
198.615	0.0454
198.986	0.0209
199.357	0.0405
199.728	0.0282
200.099	0.0448
200.47	0.026
200.841	0.0251
201.212	0.0339
201.582	0.0398
201.953	0.0378
202.323	0.0348
202.694	0.0253
203.064	0.0426
203.434	0.0417
203.804	0.0247
204.174	0.0576
204.544	0.0471
204.914	0.0324
205.284	0.0256
205.653	0.0305
206.023	0.0363
206.393	0.0051
206.762	0.0439
207.131	0.0316
207.501	0.0316
207.87	0.0491
208.239	0.0328
208.608	0.0228
208.977	0.0256
209.346	0.03
209.715	0.0248
210.083	0.027
210.452	0.0363
210.82	0.0398
211.189	0.0158
211.557	0.0575
211.925	0.011
212.294	0.0397
212.662	0.0325
213.03	0.0343
213.398	0.0712
213.766	0.0574
214.133	0.0512
214.501	0.0571
214.869	0.0669
215.236	0.0473
215.604	0.045
215.971	0.0519
216.338	0.0681
216.705	0.0601
217.072	0.0858
217.439	0.0613
217.806	0.0623
218.173	0.053
218.54	0.0721
218.907	0.0752
219.273	0.0908
219.64	0.0918
220.006	0.0978
220.373	0.1037
220.739	0.1229
221.105	0.1477
221.471	0.1524
221.837	0.1474
222.203	0.1994
222.569	0.2116
222.935	0.206
223.3	0.2286
223.666	0.2537
224.031	0.2777
224.397	0.2947
224.762	0.3024
225.127	0.3605
225.493	0.3578
225.858	0.3778
226.223	0.4094
226.588	0.4272
226.952	0.4311
227.317	0.4748
227.682	0.4655
228.046	0.489
228.411	0.5126
228.775	0.5249
229.14	0.538
229.504	0.566
229.868	0.5641
230.232	0.572
230.596	0.5822
230.96	0.62
231.324	0.6167
231.688	0.6029
232.052	0.639
232.415	0.6275
232.779	0.6575
233.142	0.6488
233.505	0.6463
233.869	0.6706
234.232	0.6713
234.595	0.6484
234.958	0.6625
235.321	0.6767
235.684	0.6537
236.047	0.663
236.409	0.652
236.772	0.6582
237.134	0.6702
237.497	0.6607
237.859	0.6661
238.222	0.6601
238.584	0.6518
238.946	0.6531
239.308	0.6506
239.67	0.6473
240.032	0.6438
240.393	0.6539
240.755	0.651
241.117	0.649
241.478	0.6413
241.84	0.6431
242.201	0.6325
242.562	0.6348
242.924	0.6263
243.285	0.6239
243.646	0.6239
244.007	0.6268
244.368	0.6168
244.728	0.6257
245.089	0.6228
245.45	0.6165
245.81	0.6181
246.171	0.611
246.531	0.6134
246.891	0.6064
247.252	0.607
247.612	0.6061
247.972	0.6109
248.332	0.6031
248.692	0.6009
249.051	0.6053
249.411	0.607
249.771	0.5919
250.13	0.5977
250.49	0.6006
250.849	0.5951
251.208	0.6063
251.568	0.5973
251.927	0.5985
252.286	0.5995
252.645	0.6011
253.004	0.5907
253.363	0.603
253.721	0.5952
254.08	0.587
254.439	0.5879
254.797	0.5883
255.155	0.5921
255.514	0.592
255.872	0.5929
256.23	0.5867
256.588	0.5881
256.946	0.5856
257.304	0.5857
257.662	0.5901
258.02	0.5803
258.377	0.5803
258.735	0.5762
259.093	0.5772
259.45	0.5762
259.807	0.5719
260.165	0.5753
260.522	0.5722
260.879	0.569
261.236	0.5683
261.593	0.5639
261.95	0.5634
262.306	0.5586
262.663	0.5568
263.02	0.5512
263.376	0.5512
263.733	0.5564
264.089	0.5512
264.445	0.5488
264.802	0.5467
265.158	0.5467
265.514	0.5407
265.87	0.5385
266.226	0.5344
266.581	0.5303
266.937	0.5269
267.293	0.5282
267.648	0.5234
268.004	0.5233
268.359	0.5206
268.714	0.5177
269.07	0.5142
269.425	0.5105
269.78	0.5052
270.135	0.507
270.49	0.5057
270.844	0.4967
271.199	0.4992
271.554	0.4935
271.908	0.4895
272.263	0.4898
272.617	0.486
272.972	0.4829
273.326	0.4769
273.68	0.4711
274.034	0.4722
274.388	0.4704
274.742	0.4655
275.096	0.4621
275.45	0.4575
275.803	0.4554
276.157	0.4511
276.51	0.4454
276.864	0.4425
277.217	0.4393
277.571	0.4373
277.924	0.4345
278.277	0.4269
278.63	0.4233
278.983	0.4214
279.336	0.4168
279.688	0.4109
280.041	0.4065
280.394	0.4051
280.746	0.4007
281.099	0.395
281.451	0.392
281.803	0.3847
282.156	0.3821
282.508	0.3797
282.86	0.3757
283.212	0.3717
283.564	0.3675
283.916	0.3652
284.267	0.3588
284.619	0.3576
284.971	0.3517
285.322	0.3484
285.673	0.3434
286.025	0.3376
286.376	0.3355
286.727	0.3315
287.078	0.3284
287.429	0.3235
287.78	0.3191
288.131	0.3152
288.482	0.3115
288.833	0.3069
289.183	0.3011
289.534	0.2992
289.884	0.2962
290.235	0.2923
290.585	0.2861
290.935	0.284
291.285	0.2783
291.635	0.2772
291.985	0.2723
292.335	0.2691
292.685	0.2652
293.035	0.2634
293.384	0.2554
293.734	0.2545
294.083	0.251
294.433	0.2473
294.782	0.2425
295.131	0.2385
295.48	0.234
295.829	0.2314
296.179	0.2283
296.527	0.225
296.876	0.222
297.225	0.2195
297.574	0.2146
297.922	0.2116
298.271	0.2088
298.619	0.2056
298.968	0.2027
299.316	0.1984
299.664	0.1974
300.012	0.1941
300.36	0.1912
300.708	0.1882
301.056	0.1843
301.404	0.1826
301.752	0.1817
302.099	0.1786
302.447	0.1753
302.794	0.1732
303.142	0.1716
303.489	0.1687
303.836	0.1674
304.183	0.1652
304.531	0.1636
304.878	0.1618
305.224	0.1604
305.571	0.1581
305.918	0.1568
306.265	0.1553
306.611	0.1536
306.958	0.1531
307.304	0.1511
307.651	0.1501
307.997	0.1487
308.343	0.1484
308.689	0.1469
309.035	0.1457
309.381	0.1444
309.727	0.144
310.073	0.1445
310.419	0.1434
310.764	0.1419
311.11	0.1412
311.455	0.1416
311.801	0.1414
312.146	0.141
312.491	0.1413
312.837	0.1399
313.182	0.14
313.527	0.1406
313.872	0.1407
314.216	0.1406
314.561	0.14
314.906	0.1411
315.251	0.1406
315.595	0.1417
315.94	0.1416
316.284	0.1431
316.628	0.1428
316.972	0.1437
317.317	0.1433
317.661	0.1443
318.005	0.1446
318.348	0.1464
318.692	0.1468
319.036	0.1471
319.38	0.1482
319.723	0.149
320.067	0.1503
320.41	0.1514
320.754	0.1528
321.097	0.1533
321.44	0.1551
321.783	0.1559
322.126	0.1572
322.469	0.1583
322.812	0.1593
323.155	0.1615
323.498	0.162
323.84	0.1636
324.183	0.1658
324.525	0.1673
324.868	0.1687
325.21	0.1698
325.552	0.1714
325.894	0.1726
326.236	0.1739
326.578	0.1754
326.92	0.1779
327.262	0.1792
327.604	0.1802
327.946	0.1817
328.287	0.1845
328.629	0.1864
328.97	0.1869
329.312	0.1892
329.653	0.1906
329.994	0.1926
330.335	0.194
330.676	0.1962
331.017	0.1978
331.358	0.1993
331.699	0.2015
332.04	0.203
332.38	0.2043
332.721	0.2062
333.061	0.2085
333.402	0.2095
333.742	0.2122
334.083	0.2136
334.423	0.2142
334.763	0.2164
335.103	0.217
335.443	0.2191
335.783	0.2202
336.123	0.2214
336.462	0.223
336.802	0.2255
337.141	0.226
337.481	0.2274
337.82	0.2285
338.16	0.2301
338.499	0.2322
338.838	0.2328
339.177	0.2341
339.516	0.2356
339.855	0.238
340.194	0.2388
340.533	0.2393
340.872	0.2406
341.21	0.2418
341.549	0.2424
341.887	0.2433
342.226	0.245
342.564	0.245
342.902	0.2459
343.24	0.2467
343.578	0.2474
343.916	0.2478
344.254	0.2481
344.592	0.248
344.93	0.2487
345.268	0.2493
345.605	0.2498
345.943	0.2505
346.28	0.2508
346.618	0.2507
346.955	0.2515
347.292	0.251
347.629	0.2515
347.966	0.2522
348.303	0.2526
348.64	0.2525
348.977	0.2533
349.314	0.2536
349.65	0.2521
349.987	0.2532
350.324	0.2532
350.66	0.2525
350.996	0.2516
351.333	0.2522
351.669	0.2519
352.005	0.2504
352.341	0.2499
352.677	0.2487
353.013	0.2486
353.349	0.247
353.685	0.246
354.02	0.2448
354.356	0.2436
354.691	0.2429
355.027	0.2427
355.362	0.2422
355.697	0.2403
356.033	0.2396
356.368	0.239
356.703	0.2379
357.038	0.2371
357.373	0.236
357.707	0.2352
358.042	0.2346
358.377	0.2333
358.711	0.2323
359.046	0.231
359.38	0.23
359.715	0.2294
360.049	0.2288
360.383	0.2269
360.717	0.2256
361.051	0.2242
361.385	0.223
361.719	0.2201
362.053	0.2192
362.387	0.2165
362.72	0.2151
363.054	0.2138
363.387	0.2124
363.721	0.2108
364.054	0.2081
364.387	0.2067
364.721	0.2047
365.054	0.2032
365.387	0.2015
365.72	0.1991
366.053	0.1981
366.385	0.196
366.718	0.1948
367.051	0.1927
367.383	0.1922
367.716	0.1907
368.048	0.1899
368.381	0.1876
368.713	0.1865
369.045	0.1851
369.377	0.1839
369.709	0.182
370.041	0.181
370.373	0.18
370.705	0.1772
371.037	0.1756
371.368	0.1748
371.7	0.1735
372.031	0.1702
372.363	0.1689
372.694	0.1672
373.025	0.164
373.356	0.1626
373.688	0.1609
374.019	0.1583
374.35	0.157
374.68	0.1551
375.011	0.153
375.342	0.1502
375.673	0.1492
376.003	0.1463
376.334	0.1452
376.664	0.1428
376.995	0.1422
377.325	0.1389
377.655	0.1385
377.985	0.1373
378.315	0.1354
378.645	0.1337
378.975	0.1321
379.305	0.131
379.635	0.1306
379.964	0.1294
380.294	0.1269
380.623	0.1265
380.953	0.1249
381.282	0.1233
381.611	0.1219
381.941	0.1199
382.27	0.1191
382.599	0.1176
382.928	0.1151
383.257	0.1145
383.585	0.1124
383.914	0.1119
384.243	0.11
384.571	0.108
384.9	0.1055
385.228	0.1043
385.557	0.1018
385.885	0.1009
386.213	0.0999
386.541	0.098
386.869	0.0963
387.197	0.0943
387.525	0.0928
387.853	0.0911
388.181	0.0897
388.508	0.0883
388.836	0.0867
389.164	0.085
389.491	0.0845
389.818	0.0828
390.146	0.0815
390.473	0.0805
390.8	0.079
391.127	0.0779
391.454	0.0772
391.781	0.0761
392.108	0.0748
392.435	0.0738
392.761	0.0725
393.088	0.0717
393.415	0.071
393.741	0.0704
394.067	0.0691
394.394	0.0686
394.72	0.0669
395.046	0.0663
395.372	0.0657
395.698	0.0649
396.024	0.0634
396.35	0.0628
396.676	0.0614
397.001	0.061
397.327	0.0604
397.653	0.0596
397.978	0.0577
398.303	0.0567
398.629	0.0552
398.954	0.0544
399.279	0.054
399.604	0.0539
399.929	0.0534
400.254	0.0523
400.579	0.052
400.904	0.051
401.229	0.0499
401.553	0.0496
401.878	0.0498
402.202	0.0483
402.527	0.0478
402.851	0.0483
403.175	0.0469
403.5	0.0463
403.824	0.0462
404.148	0.0458
404.472	0.0449
404.796	0.0448
405.119	0.0445
405.443	0.0443
405.767	0.0433
406.09	0.0435
406.414	0.0426
406.737	0.0428
407.061	0.0428
407.384	0.0427
407.707	0.0419
408.03	0.0416
408.353	0.042
408.676	0.0415
408.999	0.0413
409.322	0.0418
409.645	0.0414
409.968	0.0414
410.29	0.0406
410.613	0.0415
410.935	0.0407
411.258	0.0405
411.58	0.0399
411.902	0.0404
412.224	0.0396
412.546	0.0401
412.868	0.0398
413.19	0.0398
413.512	0.0399
413.834	0.0389
414.156	0.0398
414.477	0.04
414.799	0.0392
415.121	0.04
415.442	0.0395
415.763	0.0397
416.085	0.0397
416.406	0.0401
416.727	0.0399
417.048	0.0395
417.369	0.0394
417.69	0.0389
418.011	0.0387
418.331	0.0388
418.652	0.0398
418.973	0.0395
419.293	0.039
419.614	0.0398
419.934	0.0403
420.254	0.0396
420.574	0.0395
420.895	0.0398
421.215	0.0391
421.535	0.0399
421.855	0.0388
422.174	0.0389
422.494	0.0391
422.814	0.0389
423.134	0.0395
423.453	0.0395
423.773	0.0395
424.092	0.0392
424.411	0.0393
424.731	0.0396
425.05	0.0387
425.369	0.0398
425.688	0.0397
426.007	0.0393
426.326	0.0395
426.644	0.0399
426.963	0.0403
427.282	0.0398
427.6	0.0395
427.919	0.0393
428.237	0.0399
428.556	0.0399
428.874	0.0397
429.192	0.0395
429.51	0.0403
429.828	0.0402
430.146	0.0403
430.464	0.0391
430.782	0.0404
431.1	0.0393
431.418	0.0395
431.735	0.0395
432.053	0.0405
432.37	0.04
432.688	0.0398
433.005	0.0398
433.322	0.0405
433.639	0.0404
433.957	0.0402
434.274	0.0402
434.591	0.0397
434.907	0.0397
435.224	0.0397
435.541	0.0402
435.858	0.0406
436.174	0.0406
436.491	0.0394
436.807	0.0387
437.124	0.0395
437.44	0.0398
437.756	0.0396
438.072	0.0404
438.388	0.0402
438.704	0.0394
439.02	0.04
439.336	0.0391
439.652	0.0392
439.968	0.0386
440.283	0.0385
440.599	0.0387
440.914	0.0393
441.23	0.0401
441.545	0.0394
441.86	0.0387
442.175	0.0387
442.491	0.039
442.806	0.0388
443.121	0.039
443.435	0.0383
443.75	0.0383
444.065	0.0384
444.38	0.0391
444.694	0.0388
445.009	0.0385
445.323	0.0384
445.638	0.0376
445.952	0.0382
446.266	0.0387
446.58	0.0384
446.894	0.0382
447.208	0.0381
447.522	0.0382
447.836	0.0381
448.15	0.037
448.464	0.0378
448.777	0.038
449.091	0.0374
449.404	0.0372
449.718	0.0371
450.031	0.0368
450.345	0.037
450.658	0.0375
450.971	0.0364
451.284	0.0365
451.597	0.0359
451.91	0.0361
452.223	0.0357
452.535	0.0354
452.848	0.0361
453.161	0.0355
453.473	0.0358
453.786	0.0354
454.098	0.0352
454.411	0.0359
454.723	0.0343
455.035	0.0349
455.347	0.0342
455.659	0.0345
455.971	0.0351
456.283	0.0346
456.595	0.0342
456.907	0.0345
457.218	0.0343
457.53	0.033
457.841	0.0339
458.153	0.0335
458.464	0.0337
458.776	0.0335
459.087	0.0332
459.398	0.033
459.709	0.0333
460.02	0.0331
460.331	0.0319
460.642	0.0321
460.953	0.0318
461.263	0.0312
461.574	0.0314
461.885	0.0308
462.195	0.0311
462.506	0.0314
462.816	0.0309
463.126	0.0312
463.437	0.0309
463.747	0.03
464.057	0.0297
464.367	0.0297
464.677	0.0294
464.987	0.0291
465.296	0.0292
465.606	0.0281
465.916	0.0288
466.225	0.0288
466.535	0.0285
466.844	0.0288
467.154	0.0289
467.463	0.0282
467.772	0.0275
468.081	0.0278
468.39	0.0278
468.699	0.0269
469.008	0.0265
469.317	0.0266
469.626	0.0257
469.935	0.0256
470.243	0.0262
470.552	0.0265
470.86	0.0257
471.169	0.0257
471.477	0.0252
471.785	0.0259
472.093	0.0252
472.402	0.0248
472.71	0.0254
473.018	0.0236
473.326	0.0235
473.633	0.0242
473.941	0.0239
474.249	0.0233
474.556	0.0249
474.864	0.0239
475.171	0.0222
475.479	0.0226
475.786	0.0217
476.094	0.0225
476.401	0.0216
476.708	0.022
477.015	0.0221
477.322	0.0212
477.629	0.0213
477.936	0.0207
478.242	0.0205
478.549	0.0204
478.856	0.021
479.162	0.0202
479.469	0.0203
479.775	0.0211
480.081	0.0198
480.388	0.0195
480.694	0.0189
481	0.0198
481.306	0.0192
481.612	0.0191
481.918	0.0187
482.224	0.0183
482.53	0.0177
482.835	0.0181
483.141	0.0181
483.446	0.0175
483.752	0.0169
484.057	0.0171
484.363	0.017
484.668	0.0174
484.973	0.0159
485.278	0.016
485.583	0.0163
485.888	0.0164
486.193	0.0148
486.498	0.0146
486.803	0.0149
487.107	0.0149
487.412	0.0149
487.717	0.0142
488.021	0.0139
488.325	0.0158
488.63	0.015
488.934	0.0148
489.238	0.0145
489.542	0.0126
489.846	0.0138
490.15	0.0138
490.454	0.0133
490.758	0.0136
491.062	0.013
491.366	0.0124
491.669	0.0136
491.973	0.0132
492.276	0.0128
492.58	0.0119
492.883	0.0115
493.186	0.0119
493.489	0.0119
493.792	0.011
494.096	0.0102
494.399	0.011
494.701	0.0113
495.004	0.0109
495.307	0.0105
495.61	0.009
495.912	0.0104
496.215	0.0085
496.517	0.0084
496.82	0.0092
497.122	0.008
497.424	0.0086
497.727	0.0082
498.029	0.008
498.331	0.0089
498.633	0.0082
498.935	0.0088
499.237	0.008
499.538	0.0082
499.84	0.0075
500.142	0.0071
500.443	0.0073
500.745	0.0073
501.046	0.0058
501.348	0.0072
501.649	0.0061
501.95	0.0058
502.251	0.0069
502.552	0.0065
502.853	0.0057
503.154	0.0052
503.455	0.0058
503.756	0.0056
504.057	0.0066
504.357	0.0048
504.658	0.0064
504.958	0.0061
505.259	0.0057
505.559	0.0053
505.859	0.0048
506.16	0.0047
506.46	0.0048
506.76	0.0061
507.06	0.005
507.36	0.0035
507.66	0.0043
507.96	0.0056
508.259	0.004
508.559	0.0051
508.859	0.0042
509.158	0.0035
509.457	0.0034
509.757	0.0034
510.056	0.0039
510.355	0.0048
510.655	0.003
510.954	0.0043
511.253	0.0037
511.552	0.003
511.851	0.003
512.149	0.0023
512.448	0.0034
512.747	0.0033
513.045	0.0018
513.344	0.0016
513.642	0.0019
513.941	0.0019
514.239	0.0022
514.537	0.0018
514.836	0.002
515.134	0.0001
515.432	0.0035
515.73	0.0024
516.028	0.0017
516.326	0.0024
516.623	0.0022
516.921	0.0004
517.219	0.0014
517.516	0.0017
517.814	0.002
518.111	0.0022
518.409	0.0005
518.706	0.001
519.003	0.0019
519.3	0.0017
519.597	0.0001
519.894	0.0017
520.191	0.0008
520.488	0.0018
520.785	-0.0005
521.082	0.0008
521.378	-0.0001
521.675	0.0003
521.971	-0.0001
522.268	0.001
522.564	0.0004
522.861	0.0016
523.157	0.0009
523.453	0.0013
523.749	0.0008
524.045	0.0004
524.341	0.0002
524.637	0.0003
524.933	-0.0002
525.229	0.0012
525.524	-0.0012
525.82	0.0004
526.115	-0.0002
526.411	0.0009
526.706	-0.0001
527.002	0.0012
527.297	-0.0013
527.592	0.0002
527.887	0.001
528.182	-0
528.477	0.0001
528.772	-0.0007
529.067	-0
529.362	-0.0004
529.657	0.0006
529.951	-0.0007
530.246	-0.0016
530.54	-0.0002
530.835	-0.0002
531.129	-0.0007
531.423	-0.0014
531.718	-0.0007
532.012	-0.0002
532.306	-0.0008
532.6	-0.0012
532.894	-0.0007
533.188	-0.0001
533.482	-0.0008
533.775	-0.0011
534.069	-0.0009
534.363	-0.0023
534.656	-0.0015
534.95	-0.0006
535.243	-0.0013
535.536	-0.0003
535.83	-0.0016
536.123	-0.0011
536.416	-0.0011
536.709	-0.0007
537.002	-0.0009
537.295	-0.0012
537.588	-0.0011
537.881	-0.0025
538.173	-0.0014
538.466	-0.0011
538.759	-0.0013
539.051	-0.0001
539.344	-0.0008
539.636	-0.0007
539.928	0.0002
540.22	-0.0008
540.513	-0.0007
540.805	-0.0008
541.097	-0.0012
541.389	-0.0008
541.681	-0
541.972	0
542.264	-0.0004
542.556	0.0002
542.847	0.0003
543.139	-0.0002
543.431	-0.0006
543.722	0.0002
544.013	0.0007
544.305	-0.0012
544.596	-0.0008
544.887	-0.0003
545.178	-0.0006
545.469	-0.0014
545.76	-0.0005
546.051	-0.0001
546.342	-0.0012
546.632	-0.0007
546.923	-0.0005
547.214	-0.0012
547.504	-0.0013
547.795	-0.0012
548.085	-0.0016
548.375	-0.0018
548.666	-0.0013
548.956	-0.0012
549.246	-0.0022
549.536	-0.001
549.826	-0.0002
550.116	-0.0002
550.406	-0.0011
550.695	-0.0024
550.985	-0.0006
551.275	-0.0013
551.564	-0.0004
551.854	0.0001
552.143	-0.0006
552.433	-0.0017
552.722	-0.0016
553.011	-0.0005
553.3	-0.0003
553.589	-0.0002
553.879	-0.001
554.167	-0.0004
554.456	0.0001
554.745	-0.0004
555.034	-0.0014
555.323	0.0007
555.611	-0.0008
555.9	-0.0002
556.188	-0.0015
556.477	0.0003
556.765	-0.0023
557.053	-0.0013
557.342	-0.0007
557.63	-0.0002
557.918	-0.0011
558.206	0.0013
558.494	-0.0005
558.782	-0.0004
559.069	0.0014
559.357	0.001
559.645	0.0007
559.932	0.0003
560.22	-0.0007
560.507	-0.0009
560.795	-0.0008
561.082	-0.0018
561.37	0.0002
561.657	-0.0009
561.944	-0.0012
562.231	-0.0004
562.518	-0.0004
562.805	-0.0004
563.092	-0.0001
563.379	-0.0001
563.665	0.0004
563.952	0
564.239	-0.0002
564.525	-0.0001
564.811	0.0008
565.098	0.0005
565.384	-0
565.67	0
565.957	0.0013
566.243	0.0017
566.529	0.0002
566.815	0.0001
567.101	0.001
567.387	0.0015
567.672	0.0001
567.958	0.0012
568.244	0.0002
568.529	0.0006
568.815	-0.0002
569.1	-0.0007
569.386	-0.0014
569.671	-0.0002
569.956	-0
570.242	-0.0011
570.527	-0.0013
570.812	-0
571.097	0.0003
571.382	-0.0012
571.666	0.0008
571.951	-0.0011
572.236	-0.0004
572.521	0.0004
572.805	-0.0003
573.09	-0.0002
573.374	-0.0009
573.659	-0.0004
573.943	-0.0007
574.227	-0.0008
574.511	-0.0011
574.795	-0.0003
575.079	-0.0011
575.363	-0.0011
575.647	-0.0009
575.931	-0.0003
576.215	-0.0007
576.499	-0.0014
576.782	-0.0013
577.066	-0.001
577.349	-0.0004
577.633	-0.0002
577.916	-0.0011
578.2	-0.0005
578.483	-0.0011
578.766	-0.0004
579.049	-0.0005
579.332	0.0009
579.615	-0.0007
579.898	-0.0001
580.181	-0.0002
580.464	0.0003
580.746	0.0005
581.029	-0.0006
581.312	-0.0009
581.594	-0.0013
581.877	-0.0019
582.159	-0.0014
582.441	-0.0019
582.724	-0.0008
583.006	-0.0001
583.288	-0.0004
583.57	0
583.852	0.0004
584.134	0.0007
584.416	-0.0007
584.697	-0.0006
584.979	-0.0018
585.261	-0.0017
585.542	-0.0023
585.824	-0.0012
586.105	-0.002
586.387	-0.0015
586.668	-0.0011
586.949	-0.0007
587.231	0.0003
587.512	-0.0005
587.793	-0.0006
588.074	-0.0009
588.355	-0.0003
588.636	-0.001
588.916	-0.0012
589.197	-0.0001
589.478	-0.0004
589.758	0.0001
590.039	-0.0001
590.319	0.0006
590.6	0.0016
590.88	0.0007
591.16	0.0009
591.441	0.0008
591.721	-0.0006
592.001	-0.0007
592.281	-0.0002
592.561	-0.0002
592.841	-0.0017
593.12	-0.0025
593.4	-0.002
593.68	-0.0025
593.959	-0.0014
594.239	-0.0014
594.518	-0.0003
594.798	0.0004
595.077	-0.0008
595.356	-0.0005
595.636	-0.0014
595.915	-0.0005
596.194	-0.0001
596.473	0.0006
596.752	0.0005
597.031	0.0005
597.31	0.0001
597.588	-0.0004
597.867	-0.0002
598.146	-0.0007
598.424	-0.0009
598.703	-0.0004
598.981	-0.0017
599.259	-0.0019
599.538	-0.0014
599.816	-0.0006
600.094	-0.0006
600.372	-0.0022
600.65	-0.0022
600.928	-0.0004
601.206	-0.0009
601.484	-0.0002
601.762	-0.0002
602.04	0.0002
602.317	-0.0005
602.595	-0.0006
602.872	0.0002
603.15	0.0008
603.427	-0.0016
603.704	-0.0015
603.982	-0.0009
604.259	-0.001
604.536	-0.001
604.813	-0.0009
605.09	-0.0009
605.367	-0.001
605.644	-0.0014
605.921	-0.0017
606.197	-0.0017
606.474	-0.0009
606.751	-0.0008
607.027	-0.0009
607.304	-0.0008
607.58	-0.0008
607.856	-0.0016
608.133	-0.0021
608.409	-0.0004
608.685	-0.0011
608.961	-0.0008
609.237	-0.0003
609.513	-0.0009
609.789	-0.0008
610.065	-0.0005
610.341	-0.0008
610.616	-0.0002
610.892	0.0004
611.167	0.0011
611.443	0.0007
611.718	-0.0001
611.994	-0.0002
612.269	0.0004
612.544	-0.0001
612.819	-0.0001
613.095	-0.0002
613.37	0.0006
613.645	-0.0006
613.919	-0.0005
614.194	0.0001
614.469	0.0012
614.744	-0
615.019	-0.0009
615.293	-0.0012
615.568	-0.0009
615.842	-0.0001
616.116	0.0006
616.391	0.0013
616.665	0.0011
616.939	0.0008
617.213	0.0013
617.488	0.0016
617.762	0.0003
618.035	0.0004
618.309	0.0002
618.583	0.0003
618.857	0.0013
619.131	0.0016
619.404	0.0016
619.678	0.0015
619.951	0.0003
620.225	-0.0006
620.498	-0.0002
620.771	0.0002
621.045	-0.0005
621.318	-0.001
621.591	-0.0006
621.864	-0.0009
622.137	-0.0019
622.41	-0.0008
622.683	-0.0002
622.956	-0.0004
623.228	-0.0001
623.501	0.0009
623.774	0.0005
624.046	0.0007
624.319	-0.0006
624.591	-0.0014
624.863	-0.0006
625.136	0.0008
625.408	0.0018
625.68	0.0009
625.952	0.0011
626.224	0.0016
626.496	0.0015
626.768	0.0013
627.04	0.0004
627.311	0.0001
627.583	0.0002
627.855	0.0022
628.126	0.0012
628.398	0.0026
628.669	0.0027
628.941	0.0031
629.212	0.0022
629.483	0.0017
629.755	0.0008
630.026	0.0017
630.297	0.0015
630.568	0.0018
630.839	0.0016
631.11	0.002
631.38	0.0026
631.651	0.0021
631.922	0.0026
632.192	0.0014
632.463	0.0011
632.733	0.0019
633.004	0.0015
633.274	0.0019
633.545	0.0028
633.815	0.0023
634.085	0.0009
634.355	-0.0001
634.625	-0.0004
634.895	-0.0003
635.165	0.0001
635.435	-0.0005
635.705	-0.0005
635.974	-0.0003
636.244	0.0008
636.514	0.0017
636.783	0.0005
637.053	0.0004
637.322	0.0021
637.591	0.002
637.861	-0.0005
638.13	0.0005
638.399	0.0008
638.668	0.0005
638.937	-0.0002
639.206	0
639.475	-0.0001
639.744	-0.0007
640.013	0.0007
640.281	0.0013
640.55	0.0016
640.819	0.0007
641.087	0.0008
641.356	0.0016
641.624	0.0018
641.892	0.0034
642.161	0.0027
642.429	0.0016
642.697	0.0017
642.965	0.0017
643.233	0.0003
643.501	-0.0006
643.769	0.0013
644.037	0
644.305	0.0012
644.572	0.0014
644.84	0.0007
645.108	-0.0004
645.375	-0.0004
645.643	0.0001
645.91	0.0014
646.177	0.0024
646.445	0.0018
646.712	0.0041
646.979	0.0038
647.246	0.0042
647.513	0.0046
647.78	0.0036
648.047	0.0019
648.314	0.0004
648.58	-0.0002
648.847	0.0005
649.114	0.0013
649.38	0.0015
649.647	0.0001
649.913	0.0005
650.18	0.0013
650.446	0.0023
650.712	0.0002
650.978	0.0003
651.245	-0.0005
651.511	0.0003
651.777	0.0009
652.043	0.0008
652.309	0.0019
652.574	0.0025
652.84	0.0021
653.106	0.0027
653.371	0.0023
653.637	0.0024
653.903	0.0037
654.168	0.0042
654.433	0.005
654.699	0.0049
654.964	0.0057
655.229	0.0037
655.494	0.0017
655.759	-0.0024
656.024	-0.0003
656.289	-0
656.554	-0.0013
656.819	-0.0001
657.084	0.0017
657.349	0.0014
657.613	0.0016
657.878	0.0014
658.142	0.0008
658.407	0.0017
658.671	0.0024
658.936	0.0022
659.2	0.0018
659.464	0.0026
659.728	0.0022
659.992	0.0012
660.256	0.0013
660.52	0.0019
660.784	0.0007
661.048	0.0017
661.312	0.0012
661.575	0.0017
661.839	0.0026
662.103	0.0013
662.366	0.0016
662.63	0.0007
662.893	0.0003
663.156	0.0003
663.42	-0.0004
663.683	-0.0006
663.946	-0.0014
664.209	-0.001
664.472	-0.0015
664.735	-0.0007
664.998	0
665.261	0.0003
665.524	-0.0004
665.786	0.0002
666.049	-0.0004
666.312	0.001
666.574	0.0004
666.837	0.0004
667.099	0.0011
667.361	0.0016
667.624	0
667.886	-0.0002
668.148	0.0002
668.41	-0.0003
668.672	-0.0001
668.934	0.0012
669.196	0.0003
669.458	0.0017
669.72	0.0017
669.982	0.0015
670.243	0.0021
670.505	0.0018
670.766	0.0018
671.028	0.0024
671.289	0.0008
671.551	0.0007
671.812	-0.0011
672.073	0.0003
672.334	0.0001
672.596	-0.0002
672.857	-0.0001
673.118	-0.0003
673.379	-0.0002
673.639	-0.0007
673.9	-0.0003
674.161	0.0001
674.422	-0.0005
674.682	-0.0003
674.943	0.0005
675.203	0.0003
675.464	-0.0003
675.724	-0.0016
675.985	-0.0012
676.245	-0.0005
676.505	-0.0007
676.765	-0.0013
677.025	-0.0002
677.285	0
677.545	0.0017
677.805	0.0009
678.065	0.0012
678.325	0.0012
678.585	0.0008
678.844	-0.0011
679.104	-0.0006
679.363	-0.0013
679.623	-0.0012
679.882	-0.0004
680.142	0.0002
680.401	-0.0007
680.66	0.0022
680.919	0.003
681.178	0.0027
681.437	0.0018
681.696	0.0007
681.955	0.0005
682.214	0.0016
682.473	0.0002
682.732	0.0008
682.99	0.0011
683.249	0.0014
683.508	0.0003
683.766	-0.0007
684.024	-0.0009
684.283	0.0003
684.541	0.0008
684.799	0.0005
685.058	0.0009
685.316	-0.0003
685.574	-0.0002
685.832	-0.0013
686.09	-0.0008
686.348	-0.0013
686.606	-0.0013
686.863	-0.0005
687.121	0.001
687.379	0.001
687.636	-0.0003
687.894	0.0017
688.151	0.0015
688.409	0.0006
688.666	-0.0002
688.923	-0.0011
689.181	-0.0005
689.438	-0.001
689.695	-0.001
689.952	-0.0016
690.209	-0.0011
690.466	-0.0008
690.723	-0
690.979	0.0004
691.236	-0.0007
691.493	0.0001
691.75	0.0006
692.006	0.0006
692.263	0.0001
692.519	0.0001
692.775	0.0005
693.032	0.0007
693.288	0.0007
693.544	0.0001
693.8	0.0002
694.056	0.0006
694.313	0.0001
694.568	0.0004
694.824	-0.0004
695.08	-0.0009
695.336	-0.0016
695.592	-0.0021
695.847	-0.0002
696.103	-0.0002
696.359	-0.0001
696.614	-0.0002
696.869	-0.0013
697.125	-0.0037
697.38	-0.002
697.635	-0.0008
697.891	-0.0002
698.146	0.0008
698.401	0.0007
698.656	0.0001
698.911	0.0005
699.166	0.0011
699.42	0.0019
699.675	0.0016
699.93	0.001
700.185	0.0007
700.439	0.0011
700.694	0.0001
700.948	0.0008
701.203	-0.0003
701.457	-0.0003
701.711	-0.0005
701.965	-0.001
702.22	-0.0009
702.474	-0.002
702.728	-0.0014
702.982	-0.0013
703.236	-0.0003
703.49	-0.0008
703.743	-0.0005
703.997	-0.0001
704.251	-0.0011
704.504	-0.0007
704.758	-0.0011
705.012	0.0002
705.265	0.0006
705.518	0.0017
705.772	0.0017
706.025	0.0017
706.278	0.0004
706.531	-0.0008
706.785	-0.0009
707.038	-0.0028
707.291	-0.0009
707.543	-0.002
707.796	-0.0011
708.049	-0.0012
708.302	-0.002
708.555	-0.0021
708.807	-0.0012
709.06	-0.0026
709.312	-0.0019
709.565	-0.0016
709.817	-0.0024
710.069	-0.0019
710.322	-0.003
710.574	-0.0023
710.826	-0.0026
711.078	-0.0027
711.33	-0.0023
711.582	-0.002
711.834	-0.0022
712.086	-0.0031
712.338	-0.0035
712.59	-0.0027
712.841	-0.0043
713.093	-0.0038
713.344	-0.0036
713.596	-0.0038
713.847	-0.0019
714.099	-0.002
714.35	-0.0019
714.601	-0.0016
714.853	-0.0016
715.104	-0.0014
715.355	-0.0011
715.606	-0.0009
715.857	-0.0003
716.108	-0.0011
716.359	-0.0006
716.609	-0.0011
716.86	-0.0009
717.111	-0.0005
717.361	-0.0009
717.612	0.0007
717.863	0.0015
718.113	0.002
718.363	0.0009
718.614	0.0023
718.864	0.0027
719.114	0.0021
719.364	0.0036
719.614	0.0013
719.865	0.0029
720.114	0.0037
720.364	0.0036
720.614	0.004
720.864	0.0029
721.114	0.0029
721.364	0.0026
721.613	0.0026
721.863	0.0012
722.112	0.0016
722.362	0.0008
722.611	0.0007
722.86	-0.0004
723.11	0.001
723.359	0.0002
723.608	0.0007
723.857	0.0002
724.106	0.0007
724.355	0.001
724.604	0.0018
724.853	0.0013
725.102	-0.0008
725.351	-0.0003
725.599	-0.0008
725.848	-0.0004
726.097	0.0009
726.345	-0
726.594	-0.0015
726.842	-0.0007
727.09	-0.0021
727.339	-0.0032
727.587	-0.004
727.835	-0.004
728.083	-0.0031
728.331	-0.0032
728.579	-0.0015
728.827	-0.0011
729.075	-0.0001
729.323	-0.0006
729.571	-0.0003
729.818	-0.0005
730.066	-0.0005
730.314	-0.0006
730.561	0.0013
730.809	0.0015
731.056	0.0002
731.303	0.0008
731.551	0.0005
731.798	0.0003
732.045	-0.0005
732.292	0.0016
732.539	0.0019
732.786	0.0021
733.033	0.0013
733.28	0.0009
733.527	0.0007
733.774	-0.0002
734.021	-0.0022
734.267	-0.0022
734.514	-0.0024
734.76	-0.0028
735.007	-0.002
735.253	-0.0029
735.5	-0.0026
735.746	-0.0022
735.992	-0.0012
736.238	-0.001
736.485	-0.0006
736.731	0.0004
736.977	0.0001
737.223	-0.0004
737.469	-0.0007
737.715	0.0008
737.96	0.001
738.206	-0.0005
738.452	0.0001
738.697	0.0003
738.943	-0.0008
739.189	-0.0014
739.434	-0.0003
739.679	-0.0015
739.925	-0.0008
740.17	-0.0019
740.415	-0.0022
740.66	-0.0021
740.906	-0.0027
741.151	-0.0021
741.396	-0.0033
741.641	-0.0033
741.886	-0.0028
742.13	-0.0017
742.375	-0.0009
742.62	-0.0021
742.865	-0.0019
743.109	-0.0006
743.354	-0.0001
743.598	0.0017
743.843	0.002
744.087	0.0028
744.331	0.0027
744.576	0.0039
744.82	0.0047
745.064	0.0051
745.308	0.0056
745.552	0.0041
745.796	0.0025
746.04	0.0024
746.284	0.0027
746.528	0.0028
746.771	0.0048
747.015	0.0046
747.259	0.003
747.502	0.0022
747.746	0.0022
747.989	0.0023
748.233	0.002
748.476	0.0029
748.719	0.0042
748.963	0.0052
749.206	0.0048
749.449	0.0028
749.692	0.0032
749.935	0.0032
750.178	0.0021
750.421	0.0014
750.664	0.0024
750.906	0.0035
751.149	0.0031
751.392	0.0029
751.635	0.0019
751.877	0.0013
752.12	0.0007
752.362	0.0008
752.604	0.0013
752.847	0.0027
753.089	0.0037
753.331	0.0049
753.573	0.0029
753.816	0.0019
754.058	0.0007
754.3	0.0002
754.542	0.0002
754.783	-0.0015
755.025	-0.0014
755.267	-0.0002
755.509	-0.0005
755.75	-0.0008
755.992	-0.0004
756.234	-0.0009
756.475	-0.0008
756.716	-0.002
756.958	-0.0014
757.199	-0.0014
757.44	-0.0003
757.682	-0.0013
757.923	-0.0006
758.164	0.0013
758.405	0.0011
758.646	0.0022
758.887	0.0021
759.128	0.0018
759.369	0.0016
759.609	0.0019
759.85	0.0011
760.091	0.003
760.331	0.0019
760.572	-0.0005
760.812	-0.0007
761.053	-0.0014
761.293	-0.0003
761.533	-0.0005
761.774	0.0024
762.014	0.0017
762.254	0.0014
762.494	-0.0002
762.734	0.0003
762.974	-0.0009
763.214	0.0003
763.454	-0.0004
763.694	-0.001
763.933	-0.0015
764.173	-0.0031
764.413	-0.0045
764.652	-0.0041
764.892	-0.0037
765.131	-0.003
765.371	-0.0034
765.61	-0.0027
765.849	-0.0031
766.089	-0.0016
766.328	-0.0005
766.567	-0.0011
766.806	-0.001
767.045	-0.0002
767.284	-0.0013
767.523	-0.0013
767.762	-0.0016
768.001	-0.002
768.239	-0.0016
768.478	-0.0011
768.717	-0.001
768.955	0.0002
769.194	-0.0011
769.432	0.0005
769.671	0.0011
769.909	0.0014
770.148	0.0016
770.386	0.0023
770.624	0.0028
770.862	0.0033
771.1	0.0044
771.338	0.0032
771.576	0.002
771.814	0.0035
772.052	0.0036
772.29	0.0042
772.528	0.0042
772.765	0.0056
773.003	0.0055
773.24	0.0059
773.478	0.0041
773.716	0.0047
773.953	0.0042
774.19	0.0042
774.428	0.0053
774.665	0.0055
774.902	0.0056
775.139	0.0053
775.376	0.0046
775.613	0.0041
775.85	0.0039
776.087	0.0021
776.324	0.0022
776.561	0.0014
776.798	0.001
777.034	0.0012
777.271	0.0023
777.508	0.0029
777.744	0.003
777.981	0.0039
778.217	0.0046
778.454	0.0036
778.69	0.0026
778.926	0.0009
779.162	0.0014
779.399	0.0021
779.635	0.0013
779.871	0.0022
780.107	0.0016
780.343	0.0015
780.579	0.0022
780.814	0.0013
781.05	0.0017
781.286	0.0005
781.522	0.0005
781.757	0.0021
781.993	0.002
782.228	0.0009
782.464	0.0023
782.699	0.0011
782.934	-0.0008
783.17	0.0008
783.405	0.0011
783.64	0.0006
783.875	-0.0003
784.11	-0.0002
784.345	0.0014
784.58	0.0024
784.815	0.0022
785.05	0.0011
785.285	-0.0002
785.52	-0.001
785.754	-0.0015
785.989	-0.0016
786.223	-0.0032
786.458	-0.0034
786.692	-0.0023
786.927	-0.0006
787.161	-0.0001
787.396	-0.0008
787.63	-0.0013
787.864	-0.0021
788.098	-0.0032
788.332	-0.0025
788.566	-0.0025
788.8	-0.0028
789.034	-0.0014
789.268	-0.0022
789.502	-0.0014
789.736	-0.0009
789.969	-0.0002
790.203	-0.0002
790.437	-0.0018
790.67	-0.0021
790.904	-0.0033
791.137	-0.0031
791.37	-0.0033
791.604	-0.0051
791.837	-0.0051
792.07	-0.0047
792.303	-0.0046
792.537	-0.0041
792.77	-0.004
793.003	-0.0031
793.236	-0.0033
793.469	-0.0037
793.701	-0.002
793.934	-0.0014
794.167	-0.0015
794.4	-0.0014
794.632	-0.0002
794.865	0.0008
795.097	0.0008
795.33	-0.0003
795.562	0.0004
795.795	0.0013
796.027	0.0016
796.259	0.0013
796.491	0.0008
796.724	0.0006
796.956	0.0019
797.188	0.0015
797.42	0.0014
797.652	0.0005
797.883	0.0013
798.115	0.0028
798.347	0.0024
798.579	0.0048
798.81	0.0053
799.042	0.0047
799.274	0.0035
799.505	0.0036
799.737	0.0031
799.968	0.0019
800.199	0.0016
800.431	0.0013
800.662	0.0011
800.893	0.0014
801.124	0.001
801.355	0.0009
801.586	0.0021
801.817	0.0007
802.048	-0.001
802.279	-0.0005
802.51	0.0009
802.741	0.0009
802.971	0.0022
803.202	0.0017
803.433	0.002
803.663	0.0008
803.894	0.0011
804.124	0.001
804.354	0.001
804.585	0.0006
804.815	0.0014
805.045	0.0008
805.275	0.0014
805.506	-0.0281
805.736	-0.0023
805.966	0.0365
806.196	0.0049
