Data from 03 0.5 mM K2Cr2O7 0.3 mM BQDS 1 M H2SO4 5 min_Absorbance_0128.txt Node
Date: Tue Dec 14 04:19:45 EST 2021
User: kwabilab-user
Spectrometer: HDX00518
Trigger mode: 0
Integration Time (sec): 5.000000E-2
Scans to average: 50
Nonlinearity correction enabled: false
Boxcar width: 0
Storing dark spectrum: false
XAxis mode: Wavelengths
Number of Pixels in Spectrum: 2068
>>>>>Begin Spectral Data<<<<<
195.27	-0.0176
195.642	0.0471
196.014	-0.0478
196.386	-0.0063
196.758	-0.0432
197.129	-0.0129
197.501	-0.0364
197.872	0.0114
198.244	0.0246
198.615	0.0377
198.986	0.0208
199.357	0.0419
199.728	0.0282
200.099	0.0313
200.47	0.009
200.841	0.0116
201.212	0.0364
201.582	0.0318
201.953	0.0337
202.323	0.035
202.694	0.0227
203.064	0.0155
203.434	0.0084
203.804	0.0189
204.174	0.0317
204.544	0.0267
204.914	0.0134
205.284	0.0205
205.653	0.0065
206.023	0.0234
206.393	-0.0085
206.762	0.0203
207.131	0.0277
207.501	0.0217
207.87	0.0457
208.239	0.0239
208.608	0.0138
208.977	0.0186
209.346	0.0042
209.715	0.0284
210.083	-0.0104
210.452	0.0149
210.82	0.0131
211.189	0.0141
211.557	0.0352
211.925	0.0023
212.294	0.012
212.662	0.0013
213.03	0.0129
213.398	0.022
213.766	0.0347
214.133	0.0344
214.501	0.031
214.869	0.0232
215.236	0.018
215.604	0.0182
215.971	0.04
216.338	0.049
216.705	0.0339
217.072	0.0565
217.439	0.0224
217.806	0.0399
218.173	0.0358
218.54	0.0506
218.907	0.0672
219.273	0.0542
219.64	0.0604
220.006	0.0869
220.373	0.0727
220.739	0.0875
221.105	0.1106
221.471	0.1288
221.837	0.1479
222.203	0.1604
222.569	0.1693
222.935	0.2042
223.3	0.2152
223.666	0.2252
224.031	0.2673
224.397	0.2578
224.762	0.2986
225.127	0.3183
225.493	0.3464
225.858	0.3588
226.223	0.3844
226.588	0.408
226.952	0.4189
227.317	0.4412
227.682	0.4607
228.046	0.4718
228.411	0.4991
228.775	0.5143
229.14	0.5319
229.504	0.5595
229.868	0.5641
230.232	0.5604
230.596	0.57
230.96	0.6096
231.324	0.5982
231.688	0.6025
232.052	0.6299
232.415	0.6331
232.779	0.6371
233.142	0.6397
233.505	0.6526
233.869	0.6557
234.232	0.6426
234.595	0.6386
234.958	0.6701
235.321	0.6544
235.684	0.6682
236.047	0.6614
236.409	0.6562
236.772	0.6526
237.134	0.6548
237.497	0.6598
237.859	0.6692
238.222	0.6603
238.584	0.6627
238.946	0.6556
239.308	0.652
239.67	0.6497
240.032	0.6391
240.393	0.6522
240.755	0.6431
241.117	0.6487
241.478	0.6463
241.84	0.638
242.201	0.6397
242.562	0.6243
242.924	0.6261
243.285	0.6169
243.646	0.6371
244.007	0.6269
244.368	0.6293
244.728	0.6231
245.089	0.6222
245.45	0.6274
245.81	0.6157
246.171	0.6127
246.531	0.6203
246.891	0.6156
247.252	0.6137
247.612	0.6181
247.972	0.6181
248.332	0.6164
248.692	0.6081
249.051	0.6156
249.411	0.6112
249.771	0.6032
250.13	0.6099
250.49	0.6095
250.849	0.6095
251.208	0.6126
251.568	0.6019
251.927	0.606
252.286	0.6081
252.645	0.6118
253.004	0.5999
253.363	0.6034
253.721	0.6077
254.08	0.6063
254.439	0.602
254.797	0.5984
255.155	0.5969
255.514	0.6045
255.872	0.6039
256.23	0.6005
256.588	0.602
256.946	0.5995
257.304	0.5924
257.662	0.5955
258.02	0.5959
258.377	0.5945
258.735	0.5856
259.093	0.5932
259.45	0.5881
259.807	0.5865
260.165	0.588
260.522	0.5929
260.879	0.5825
261.236	0.5795
261.593	0.5786
261.95	0.5722
262.306	0.5793
262.663	0.5722
263.02	0.5698
263.376	0.5666
263.733	0.5691
264.089	0.5682
264.445	0.5615
264.802	0.5591
265.158	0.5632
265.514	0.5538
265.87	0.5544
266.226	0.5505
266.581	0.5511
266.937	0.5475
267.293	0.548
267.648	0.5369
268.004	0.5401
268.359	0.5363
268.714	0.5304
269.07	0.5329
269.425	0.5221
269.78	0.5187
270.135	0.5258
270.49	0.52
270.844	0.5161
271.199	0.513
271.554	0.5101
271.908	0.5062
272.263	0.5041
272.617	0.5006
272.972	0.494
273.326	0.4893
273.68	0.495
274.034	0.4876
274.388	0.485
274.742	0.4821
275.096	0.4776
275.45	0.4717
275.803	0.4688
276.157	0.4655
276.51	0.4643
276.864	0.459
277.217	0.4526
277.571	0.4526
277.924	0.447
278.277	0.4429
278.63	0.4384
278.983	0.4334
279.336	0.4282
279.688	0.4252
280.041	0.4203
280.394	0.4202
280.746	0.4183
281.099	0.414
281.451	0.4077
281.803	0.402
282.156	0.3977
282.508	0.3943
282.86	0.3917
283.212	0.3831
283.564	0.3815
283.916	0.3799
284.267	0.3724
284.619	0.3683
284.971	0.3657
285.322	0.3594
285.673	0.3555
286.025	0.351
286.376	0.3492
286.727	0.3479
287.078	0.3408
287.429	0.336
287.78	0.3337
288.131	0.3291
288.482	0.3235
288.833	0.3177
289.183	0.3144
289.534	0.3098
289.884	0.3069
290.235	0.3034
290.585	0.2988
290.935	0.2964
291.285	0.291
291.635	0.2873
291.985	0.2837
292.335	0.2785
292.685	0.2772
293.035	0.273
293.384	0.2682
293.734	0.2661
294.083	0.2612
294.433	0.2573
294.782	0.2544
295.131	0.2495
295.48	0.2442
295.829	0.2429
296.179	0.239
296.527	0.2354
296.876	0.2323
297.225	0.2283
297.574	0.2241
297.922	0.2225
298.271	0.2197
298.619	0.2138
298.968	0.2123
299.316	0.209
299.664	0.2063
300.012	0.2031
300.36	0.1999
300.708	0.1975
301.056	0.1935
301.404	0.1921
301.752	0.1893
302.099	0.1861
302.447	0.184
302.794	0.1824
303.142	0.1796
303.489	0.1767
303.836	0.1751
304.183	0.1729
304.531	0.1719
304.878	0.1692
305.224	0.1684
305.571	0.1652
305.918	0.163
306.265	0.1626
306.611	0.161
306.958	0.1602
307.304	0.1578
307.651	0.1574
307.997	0.1563
308.343	0.1545
308.689	0.1533
309.035	0.1521
309.381	0.1524
309.727	0.1516
310.073	0.1503
310.419	0.15
310.764	0.1487
311.11	0.1481
311.455	0.1483
311.801	0.148
312.146	0.1472
312.491	0.1472
312.837	0.1466
313.182	0.1464
313.527	0.1464
313.872	0.1471
314.216	0.1473
314.561	0.1467
314.906	0.1471
315.251	0.1466
315.595	0.1479
315.94	0.1476
316.284	0.1486
316.628	0.1491
316.972	0.1501
317.317	0.1508
317.661	0.1501
318.005	0.1516
318.348	0.1525
318.692	0.153
319.036	0.1534
319.38	0.154
319.723	0.156
320.067	0.1572
320.41	0.1572
320.754	0.1591
321.097	0.1597
321.44	0.1614
321.783	0.1628
322.126	0.1641
322.469	0.1646
322.812	0.1663
323.155	0.1674
323.498	0.1687
323.84	0.1702
324.183	0.1725
324.525	0.1741
324.868	0.1748
325.21	0.1764
325.552	0.1786
325.894	0.1793
326.236	0.181
326.578	0.1826
326.92	0.1837
327.262	0.1862
327.604	0.1872
327.946	0.1885
328.287	0.1909
328.629	0.1932
328.97	0.1945
329.312	0.1955
329.653	0.1971
329.994	0.1989
330.335	0.2004
330.676	0.2029
331.017	0.2047
331.358	0.2067
331.699	0.2085
332.04	0.2103
332.38	0.2112
332.721	0.213
333.061	0.2154
333.402	0.2175
333.742	0.219
334.083	0.2211
334.423	0.2218
334.763	0.2237
335.103	0.225
335.443	0.226
335.783	0.2277
336.123	0.2287
336.462	0.2312
336.802	0.2336
337.141	0.2334
337.481	0.2349
337.82	0.2371
338.16	0.2367
338.499	0.2397
338.838	0.2406
339.177	0.2426
339.516	0.2436
339.855	0.245
340.194	0.2465
340.533	0.2471
340.872	0.2482
341.21	0.25
341.549	0.2506
341.887	0.2521
342.226	0.2525
342.564	0.2536
342.902	0.2543
343.24	0.2551
343.578	0.2555
343.916	0.2562
344.254	0.2566
344.592	0.2568
344.93	0.2571
345.268	0.2574
345.605	0.2572
345.943	0.2578
346.28	0.2584
346.618	0.2588
346.955	0.2585
347.292	0.2591
347.629	0.2596
347.966	0.2593
348.303	0.2599
348.64	0.2608
348.977	0.2604
349.314	0.261
349.65	0.2605
349.987	0.261
350.324	0.2615
350.66	0.2604
350.996	0.2601
351.333	0.2599
351.669	0.2595
352.005	0.2585
352.341	0.2577
352.677	0.2573
353.013	0.2563
353.349	0.2553
353.685	0.2542
354.02	0.2524
354.356	0.2509
354.691	0.2506
355.027	0.2493
355.362	0.2502
355.697	0.248
356.033	0.2471
356.368	0.2462
356.703	0.2449
357.038	0.2442
357.373	0.2429
357.707	0.2423
358.042	0.2416
358.377	0.2411
358.711	0.2394
359.046	0.2374
359.38	0.2382
359.715	0.2367
360.049	0.2349
360.383	0.2345
360.717	0.2327
361.051	0.2317
361.385	0.2302
361.719	0.2272
362.053	0.2257
362.387	0.2247
362.72	0.222
363.054	0.2203
363.387	0.2194
363.721	0.2173
364.054	0.2149
364.387	0.213
364.721	0.2107
365.054	0.209
365.387	0.2081
365.72	0.2053
366.053	0.2048
366.385	0.2018
366.718	0.2006
367.051	0.1999
367.383	0.1982
367.716	0.1968
368.048	0.1951
368.381	0.1934
368.713	0.1929
369.045	0.1918
369.377	0.1892
369.709	0.1885
370.041	0.1866
370.373	0.1858
370.705	0.183
371.037	0.1822
371.368	0.1806
371.7	0.1794
372.031	0.176
372.363	0.1747
372.694	0.1732
373.025	0.1697
373.356	0.168
373.688	0.1664
374.019	0.1645
374.35	0.1622
374.68	0.1596
375.011	0.1582
375.342	0.1556
375.673	0.1546
376.003	0.1516
376.334	0.15
376.664	0.1478
376.995	0.1471
377.325	0.1442
377.655	0.1427
377.985	0.141
378.315	0.1394
378.645	0.1382
378.975	0.1375
379.305	0.1358
379.635	0.135
379.964	0.134
380.294	0.1313
380.623	0.131
380.953	0.1291
381.282	0.1277
381.611	0.1259
381.941	0.1244
382.27	0.1236
382.599	0.1213
382.928	0.1201
383.257	0.1192
383.585	0.1165
383.914	0.1154
384.243	0.1136
384.571	0.1119
384.9	0.1097
385.228	0.1085
385.557	0.1058
385.885	0.104
386.213	0.1027
386.541	0.1015
386.869	0.0993
387.197	0.0975
387.525	0.0962
387.853	0.0946
388.181	0.0934
388.508	0.0916
388.836	0.09
389.164	0.0883
389.491	0.0881
389.818	0.0859
390.146	0.0851
390.473	0.0839
390.8	0.0826
391.127	0.0807
391.454	0.0799
391.781	0.0788
392.108	0.0773
392.435	0.0764
392.761	0.0754
393.088	0.0749
393.415	0.0735
393.741	0.0731
394.067	0.0719
394.394	0.0718
394.72	0.07
395.046	0.0693
395.372	0.0689
395.698	0.068
396.024	0.0667
396.35	0.0658
396.676	0.0638
397.001	0.0632
397.327	0.0624
397.653	0.061
397.978	0.0599
398.303	0.0595
398.629	0.0576
398.954	0.0574
399.279	0.0567
399.604	0.056
399.929	0.0555
400.254	0.0549
400.579	0.0541
400.904	0.0531
401.229	0.0523
401.553	0.0519
401.878	0.052
402.202	0.0506
402.527	0.0503
402.851	0.0502
403.175	0.0487
403.5	0.049
403.824	0.0487
404.148	0.0481
404.472	0.0474
404.796	0.0469
405.119	0.0465
405.443	0.046
405.767	0.0452
406.09	0.0454
406.414	0.045
406.737	0.0446
407.061	0.0447
407.384	0.044
407.707	0.0443
408.03	0.0434
408.353	0.0444
408.676	0.0433
408.999	0.0429
409.322	0.044
409.645	0.0433
409.968	0.0424
410.29	0.0429
410.613	0.0431
410.935	0.0425
411.258	0.0423
411.58	0.0418
411.902	0.0421
412.224	0.0413
412.546	0.0419
412.868	0.0415
413.19	0.0419
413.512	0.0412
413.834	0.0403
414.156	0.0414
414.477	0.0414
414.799	0.0408
415.121	0.0416
415.442	0.0416
415.763	0.0404
416.085	0.0413
416.406	0.0414
416.727	0.0414
417.048	0.0412
417.369	0.0409
417.69	0.0401
418.011	0.0403
418.331	0.0404
418.652	0.0412
418.973	0.0407
419.293	0.0413
419.614	0.0415
419.934	0.0422
420.254	0.0413
420.574	0.0414
420.895	0.0412
421.215	0.0411
421.535	0.0412
421.855	0.0406
422.174	0.0407
422.494	0.0403
422.814	0.041
423.134	0.041
423.453	0.0412
423.773	0.0415
424.092	0.0414
424.411	0.0403
424.731	0.041
425.05	0.0401
425.369	0.0409
425.688	0.0412
426.007	0.0405
426.326	0.0409
426.644	0.0418
426.963	0.0414
427.282	0.0417
427.6	0.0409
427.919	0.0406
428.237	0.0411
428.556	0.0414
428.874	0.0416
429.192	0.0423
429.51	0.0414
429.828	0.0411
430.146	0.042
430.464	0.0408
430.782	0.0411
431.1	0.0416
431.418	0.0412
431.735	0.0412
432.053	0.0417
432.37	0.0419
432.688	0.0411
433.005	0.0417
433.322	0.0413
433.639	0.0418
433.957	0.0424
434.274	0.0417
434.591	0.0417
434.907	0.0413
435.224	0.0412
435.541	0.0413
435.858	0.0421
436.174	0.0417
436.491	0.0417
436.807	0.0404
437.124	0.0412
437.44	0.0417
437.756	0.041
438.072	0.0417
438.388	0.0418
438.704	0.041
439.02	0.041
439.336	0.0405
439.652	0.0403
439.968	0.0404
440.283	0.0404
440.599	0.0399
440.914	0.0416
441.23	0.0415
441.545	0.0406
441.86	0.0405
442.175	0.04
442.491	0.0406
442.806	0.0402
443.121	0.0409
443.435	0.0398
443.75	0.0401
444.065	0.0404
444.38	0.0401
444.694	0.0403
445.009	0.0404
445.323	0.0403
445.638	0.0385
445.952	0.0408
446.266	0.0403
446.58	0.0397
446.894	0.0396
447.208	0.0392
447.522	0.039
447.836	0.039
448.15	0.0389
448.464	0.0389
448.777	0.039
449.091	0.039
449.404	0.039
449.718	0.0383
450.031	0.0385
450.345	0.0381
450.658	0.0388
450.971	0.0384
451.284	0.038
451.597	0.0373
451.91	0.0378
452.223	0.0381
452.535	0.0371
452.848	0.0378
453.161	0.0372
453.473	0.0373
453.786	0.0367
454.098	0.0369
454.411	0.037
454.723	0.0364
455.035	0.0363
455.347	0.036
455.659	0.0361
455.971	0.0359
456.283	0.0357
456.595	0.0359
456.907	0.0359
457.218	0.0353
457.53	0.0348
457.841	0.0355
458.153	0.0348
458.464	0.0348
458.776	0.0345
459.087	0.0343
459.398	0.035
459.709	0.0337
460.02	0.0347
460.331	0.0331
460.642	0.0344
460.953	0.0332
461.263	0.0325
461.574	0.0329
461.885	0.0324
462.195	0.0326
462.506	0.0329
462.816	0.0327
463.126	0.0322
463.437	0.0323
463.747	0.0312
464.057	0.0311
464.367	0.0313
464.677	0.0304
464.987	0.0302
465.296	0.031
465.606	0.0295
465.916	0.0304
466.225	0.0299
466.535	0.0298
466.844	0.0296
467.154	0.0296
467.463	0.0291
467.772	0.0288
468.081	0.0285
468.39	0.0285
468.699	0.0284
469.008	0.0273
469.317	0.0278
469.626	0.027
469.935	0.0265
470.243	0.0272
470.552	0.0262
470.86	0.0266
471.169	0.0263
471.477	0.0267
471.785	0.0266
472.093	0.0268
472.402	0.0258
472.71	0.0267
473.018	0.0249
473.326	0.0244
473.633	0.0256
473.941	0.0254
474.249	0.0243
474.556	0.0262
474.864	0.0246
475.171	0.0238
475.479	0.0236
475.786	0.0236
476.094	0.0235
476.401	0.0232
476.708	0.0228
477.015	0.0233
477.322	0.0223
477.629	0.0226
477.936	0.0224
478.242	0.0212
478.549	0.0218
478.856	0.0218
479.162	0.0214
479.469	0.0216
479.775	0.0213
480.081	0.0204
480.388	0.0202
480.694	0.02
481	0.0203
481.306	0.02
481.612	0.0198
481.918	0.0202
482.224	0.02
482.53	0.0193
482.835	0.0192
483.141	0.0189
483.446	0.0191
483.752	0.018
484.057	0.0178
484.363	0.0179
484.668	0.0174
484.973	0.0166
485.278	0.0168
485.583	0.0172
485.888	0.0163
486.193	0.0157
486.498	0.0162
486.803	0.0166
487.107	0.0162
487.412	0.0157
487.717	0.0155
488.021	0.0152
488.325	0.0165
488.63	0.0154
488.934	0.0154
489.238	0.0144
489.542	0.014
489.846	0.0145
490.15	0.0146
490.454	0.0138
490.758	0.0143
491.062	0.0134
491.366	0.0141
491.669	0.0131
491.973	0.0139
492.276	0.0133
492.58	0.0132
492.883	0.0122
493.186	0.0128
493.489	0.0129
493.792	0.0112
494.096	0.0113
494.399	0.0116
494.701	0.0117
495.004	0.0096
495.307	0.0118
495.61	0.0105
495.912	0.0115
496.215	0.0102
496.517	0.0097
496.82	0.0106
497.122	0.0098
497.424	0.011
497.727	0.01
498.029	0.0092
498.331	0.0093
498.633	0.01
498.935	0.0092
499.237	0.0087
499.538	0.0073
499.84	0.0086
500.142	0.0074
500.443	0.0083
500.745	0.0079
501.046	0.0068
501.348	0.0072
501.649	0.0066
501.95	0.0063
502.251	0.0065
502.552	0.0069
502.853	0.0062
503.154	0.0071
503.455	0.0067
503.756	0.0062
504.057	0.0072
504.357	0.0054
504.658	0.0063
504.958	0.0054
505.259	0.0062
505.559	0.0047
505.859	0.0053
506.16	0.0059
506.46	0.0045
506.76	0.0056
507.06	0.0056
507.36	0.0049
507.66	0.005
507.96	0.0055
508.259	0.0047
508.559	0.0052
508.859	0.0047
509.158	0.0044
509.457	0.0043
509.757	0.0046
510.056	0.0036
510.355	0.0042
510.655	0.0043
510.954	0.0038
511.253	0.0032
511.552	0.0035
511.851	0.0036
512.149	0.0018
512.448	0.0039
512.747	0.0034
513.045	0.0025
513.344	0.0026
513.642	0.0025
513.941	0.0024
514.239	0.0031
514.537	0.0007
514.836	0.0022
515.134	0.0012
515.432	0.003
515.73	0.0018
516.028	0.0018
516.326	0.0019
516.623	0.0015
516.921	0.0007
517.219	0.0015
517.516	0.0021
517.814	0.0016
518.111	0.0019
518.409	0.0004
518.706	0.0005
519.003	0.0015
519.3	0.0016
519.597	0.0011
519.894	0.0009
520.191	0.0015
520.488	0.0022
520.785	-0.0001
521.082	0.0008
521.378	-0.001
521.675	-0.0001
521.971	0.0004
522.268	0.0006
522.564	0.0002
522.861	0.001
523.157	0.0003
523.453	0.0017
523.749	0.0013
524.045	0.0006
524.341	0.0012
524.637	-0
524.933	-0.0005
525.229	-0.0001
525.524	0.0001
525.82	0
526.115	-0.0003
526.411	0.0004
526.706	0.0007
527.002	0.0011
527.297	-0.0013
527.592	0.0007
527.887	0.0008
528.182	0.0011
528.477	0.001
528.772	-0.0002
529.067	0.0006
529.362	0.0002
529.657	-0.0006
529.951	0.0002
530.246	-0.0002
530.54	-0.0004
530.835	-0.0004
531.129	-0.0002
531.423	-0.0008
531.718	-0.0006
532.012	-0.0003
532.306	-0.0003
532.6	-0.001
532.894	-0.0011
533.188	-0
533.482	-0.0006
533.775	-0.0005
534.069	-0.0014
534.363	-0.0016
534.656	-0.0017
534.95	-0.0005
535.243	-0.0004
535.536	-0.0006
535.83	-0.002
536.123	-0.0003
536.416	-0.0009
536.709	-0.0003
537.002	-0.0009
537.295	-0.0009
537.588	-0.0023
537.881	-0.001
538.173	-0.0006
538.466	-0.0008
538.759	-0.0003
539.051	-0.0003
539.344	-0.0012
539.636	-0.001
539.928	-0.0005
540.22	-0.0002
540.513	-0.0013
540.805	-0.0008
541.097	-0.0014
541.389	-0.0012
541.681	-0
541.972	0.0006
542.264	0.0002
542.556	0.0001
542.847	0.001
543.139	-0.0001
543.431	-0.0005
543.722	-0.0002
544.013	-0.0001
544.305	-0.0002
544.596	-0.0013
544.887	-0.0006
545.178	0.0003
545.469	-0.0017
545.76	-0.0002
546.051	0.0007
546.342	-0.0008
546.632	-0.0014
546.923	-0.0006
547.214	-0.0014
547.504	-0.0012
547.795	-0.0014
548.085	-0.0018
548.375	-0.0018
548.666	-0.001
548.956	-0.0009
549.246	-0.001
549.536	-0.0004
549.826	-0.0003
550.116	-0.0013
550.406	-0.0013
550.695	-0.002
550.985	0.0004
551.275	-0.0011
551.564	-0.0012
551.854	-0.0009
552.143	-0.0014
552.433	-0.0022
552.722	-0.0012
553.011	-0.0006
553.3	-0.0005
553.589	-0.0001
553.879	-0.0006
554.167	-0.0002
554.456	0.0015
554.745	-0.0004
555.034	-0.0014
555.323	0.0001
555.611	-0.0014
555.9	-0.0009
556.188	-0.0015
556.477	-0.0007
556.765	-0.0034
557.053	-0.0016
557.342	-0.0009
557.63	-0.0002
557.918	0.0003
558.206	0.0004
558.494	-0.0006
558.782	-0.0004
559.069	0.0007
559.357	0.0005
559.645	-0.0007
559.932	-0.0002
560.22	-0.0004
560.507	-0.0012
560.795	-0.0016
561.082	-0.0016
561.37	-0.0004
561.657	-0.0016
561.944	-0.0018
562.231	-0.0005
562.518	-0.0007
562.805	-0.0008
563.092	0.0005
563.379	-0.0005
563.665	0.0003
563.952	0.0003
564.239	-0
564.525	0.0006
564.811	0.0014
565.098	-0.0001
565.384	-0.0006
565.67	0.0005
565.957	0.0012
566.243	0.0013
566.529	0.0003
566.815	-0.0002
567.101	0.0007
567.387	0.0012
567.672	0.0002
567.958	0.0007
568.244	0.0011
568.529	0.0002
568.815	-0.0013
569.1	-0.0008
569.386	-0.001
569.671	0.0002
569.956	-0.0007
570.242	-0.001
570.527	-0.0007
570.812	0.0005
571.097	-0.001
571.382	-0.001
571.666	0.0004
571.951	-0.0007
572.236	-0.0006
572.521	-0.0002
572.805	-0.0002
573.09	-0.0009
573.374	-0.0018
573.659	-0.0011
573.943	-0.001
574.227	-0.0008
574.511	-0.0012
574.795	-0.0004
575.079	-0.0006
575.363	-0.0015
575.647	-0.0008
575.931	-0.0003
576.215	-0.0011
576.499	-0.0014
576.782	-0.0017
577.066	-0.0012
577.349	-0
577.633	-0.0015
577.916	-0.0019
578.2	-0.0007
578.483	-0.0005
578.766	0.0003
579.049	0.0001
579.332	0.0011
579.615	0.0003
579.898	-0.0003
580.181	0.0006
580.464	0.0008
580.746	-0
581.029	-0.0004
581.312	-0.0007
581.594	-0.0015
581.877	-0.0014
582.159	-0.0011
582.441	-0.0016
582.724	-0.001
583.006	0.0004
583.288	0.0005
583.57	0.0009
583.852	0.0005
584.134	0.0003
584.416	-0.0007
584.697	-0.0003
584.979	-0.0012
585.261	-0.0023
585.542	-0.0015
585.824	-0.0009
586.105	-0.0015
586.387	-0.001
586.668	-0.0008
586.949	-0.0004
587.231	-0.0003
587.512	-0.0006
587.793	-0
588.074	-0.0006
588.355	0.0004
588.636	-0.0006
588.916	-0.0011
589.197	0.0001
589.478	-0.0003
589.758	-0.0001
590.039	0.0001
590.319	0.0007
590.6	0.0006
590.88	0.0006
591.16	0.0014
591.441	0.0013
591.721	-0.0001
592.001	-0.0007
592.281	-0.0002
592.561	-0.0002
592.841	-0.0015
593.12	-0.0027
593.4	-0.0013
593.68	-0.002
593.959	-0.0014
594.239	-0.0013
594.518	0.0001
594.798	0
595.077	-0.0019
595.356	-0.0009
595.636	-0.0013
595.915	-0.0001
596.194	0.0006
596.473	0.0006
596.752	0.0007
597.031	-0.0004
597.31	-0.0002
597.588	-0.0007
597.867	-0.0007
598.146	-0.0006
598.424	-0.0004
598.703	-0.0006
598.981	-0.0024
599.259	-0.002
599.538	-0.0003
599.816	-0.0004
600.094	-0.0018
600.372	-0.0022
600.65	-0.001
600.928	-0.0008
601.206	-0.0004
601.484	-0.0002
601.762	-0.0005
602.04	-0.0007
602.317	-0.001
602.595	0.0002
602.872	0.0001
603.15	0.0009
603.427	-0.0015
603.704	-0.0018
603.982	-0.0007
604.259	-0.0006
604.536	-0.0004
604.813	-0.0002
605.09	-0.0009
605.367	-0.0011
605.644	-0.0013
605.921	-0.0013
606.197	-0.0011
606.474	-0.0008
606.751	-0.0007
607.027	-0.0009
607.304	-0.001
607.58	-0.0012
607.856	-0.0021
608.133	-0.0016
608.409	-0.0006
608.685	-0.0014
608.961	-0.0014
609.237	-0.0012
609.513	-0.0006
609.789	-0.0009
610.065	-0.0013
610.341	-0.0014
610.616	-0.0003
610.892	0.0009
611.167	0.0006
611.443	0.0002
611.718	-0.0001
611.994	-0
612.269	-0
612.544	-0.0002
612.819	-0.0006
613.095	-0.0007
613.37	-0
613.645	-0.001
613.919	-0.0008
614.194	0
614.469	0.0002
614.744	-0.0006
615.019	-0.0015
615.293	-0.0011
615.568	-0.0011
615.842	0.0001
616.116	0.001
616.391	0.0012
616.665	0.0004
616.939	0.0008
617.213	0.001
617.488	0.0011
617.762	-0.0001
618.035	-0.0005
618.309	-0.0012
618.583	0.0008
618.857	0.0015
619.131	0.0008
619.404	0.0011
619.678	0.0012
619.951	-0.0007
620.225	-0.0005
620.498	0.0001
620.771	-0.0004
621.045	-0.0005
621.318	-0.0011
621.591	-0.002
621.864	-0.0019
622.137	-0.0015
622.41	-0.0013
622.683	-0.0004
622.956	-0.0001
623.228	-0.0001
623.501	0.0011
623.774	0.0006
624.046	0.0009
624.319	-0.0011
624.591	-0.0018
624.863	-0.0007
625.136	-0.0001
625.408	0.0005
625.68	-0
625.952	0.0013
626.224	0.0014
626.496	0.0014
626.768	0.0009
627.04	-0.0001
627.311	-0.0004
627.583	0.0008
627.855	0.0015
628.126	0.0018
628.398	0.0024
628.669	0.0031
628.941	0.0017
629.212	0.0014
629.483	0.0014
629.755	0.0012
630.026	0.0013
630.297	0.0012
630.568	0.0012
630.839	0.0012
631.11	0.0011
631.38	0.0023
631.651	0.0021
631.922	0.0015
632.192	0.0006
632.463	0.0004
632.733	0.0002
633.004	0.0016
633.274	0.0021
633.545	0.0018
633.815	0.0018
634.085	-0.0009
634.355	-0.0012
634.625	-0.0006
634.895	-0.0002
635.165	-0.0005
635.435	-0.0003
635.705	-0.0003
635.974	-0.0006
636.244	0.0005
636.514	0.0009
636.783	-0.0006
637.053	0.0004
637.322	0.0018
637.591	0.0011
637.861	-0.001
638.13	0.0006
638.399	-0.0003
638.668	-0.0007
638.937	-0.0009
639.206	-0.002
639.475	-0.0009
639.744	-0.0007
640.013	0.0002
640.281	0.0006
640.55	0.0008
640.819	0.0009
641.087	0.001
641.356	0.0005
641.624	0.0029
641.892	0.0026
642.161	0.0027
642.429	0.002
642.697	0.0008
642.965	0.0014
643.233	-0.0003
643.501	-0.0004
643.769	0
644.037	0.001
644.305	0.0003
644.572	0.001
644.84	-0.0004
645.108	-0.0019
645.375	-0.0016
645.643	-0.0004
645.91	0.0014
646.177	0.002
646.445	0.0016
646.712	0.0039
646.979	0.0035
647.246	0.0039
647.513	0.0037
647.78	0.0022
648.047	0.0015
648.314	-0.0001
648.58	0.0003
648.847	0.0009
649.114	0.0016
649.38	0.0011
649.647	0.0009
649.913	0.0014
650.18	0.0008
650.446	0.0013
650.712	0.0009
650.978	0.0004
651.245	0.0002
651.511	0.0008
651.777	-0.0002
652.043	0.0002
652.309	0.0016
652.574	0.0026
652.84	0.0022
653.106	0.0018
653.371	0.0029
653.637	0.0025
653.903	0.003
654.168	0.0036
654.433	0.0045
654.699	0.0035
654.964	0.0051
655.229	0.0031
655.494	0.0011
655.759	-0.0043
656.024	-0.0002
656.289	-0
656.554	0.0023
656.819	0.0014
657.084	0.0011
657.349	0.0018
657.613	0.0014
657.878	0.0003
658.142	0.0001
658.407	0.0017
658.671	0.0022
658.936	0.0006
659.2	0.0014
659.464	0.0014
659.728	0.001
659.992	0.0007
660.256	0.001
660.52	0.0008
660.784	-0.0004
661.048	0.0008
661.312	0.0005
661.575	0.0002
661.839	0.001
662.103	0.0007
662.366	0.0008
662.63	0.0004
662.893	-0.0003
663.156	-0.0004
663.42	-0.0016
663.683	-0.0017
663.946	-0.0026
664.209	-0.0017
664.472	-0.0023
664.735	-0.0009
664.998	-0.0007
665.261	-0.0008
665.524	-0.0016
665.786	-0.001
666.049	-0.0005
666.312	-0.0006
666.574	-0.0008
666.837	0.0004
667.099	0.0011
667.361	0.0006
667.624	0.0007
667.886	-0.0004
668.148	0
668.41	0.0003
668.672	-0.0004
668.934	0.0004
669.196	0.001
669.458	0.0016
669.72	0.0018
669.982	0.0018
670.243	0.0018
670.505	0.0004
670.766	0.0017
671.028	0.001
671.289	-0.0002
671.551	-0.0004
671.812	-0.0021
672.073	0.0001
672.334	0.0001
672.596	-0
672.857	-0.0002
673.118	-0.0005
673.379	-0.0011
673.639	-0.0011
673.9	-0.001
674.161	-0.0004
674.422	-0.0009
674.682	-0.0004
674.943	-0.0002
675.203	0.0002
675.464	-0.0002
675.724	-0.0008
675.985	-0.0013
676.245	-0.0012
676.505	-0.0009
676.765	-0.0009
677.025	0.0002
677.285	-0.0007
677.545	0.001
677.805	0.0008
678.065	0.0006
678.325	0.0011
678.585	0.0001
678.844	-0.0013
679.104	-0.0008
679.363	-0.0024
679.623	-0.0023
679.882	-0.0018
680.142	-0.0003
680.401	-0.0004
680.66	0.0007
680.919	0.0026
681.178	0.0021
681.437	0.0017
681.696	-0.0003
681.955	0.0011
682.214	0.0011
682.473	-0
682.732	-0.0012
682.99	-0.0002
683.249	0.0009
683.508	-0
683.766	-0.0005
684.024	-0.0005
684.283	-0.0002
684.541	-0.0007
684.799	-0.0006
685.058	-0
685.316	-0.0009
685.574	-0.0012
685.832	-0.0013
686.09	-0.0007
686.348	-0.0023
686.606	-0.0016
686.863	-0.0011
687.121	-0.0005
687.379	-0.0003
687.636	-0.0005
687.894	0.0008
688.151	0.0008
688.409	0.0003
688.666	-0.0005
688.923	-0.0011
689.181	-0.0012
689.438	-0.0015
689.695	-0.0015
689.952	-0.002
690.209	-0.0017
690.466	-0.0013
690.723	-0.0009
690.979	-0.0005
691.236	-0.0013
691.493	-0.0006
691.75	0.0004
692.006	-0.0001
692.263	0
692.519	-0.0006
692.775	0.0001
693.032	-0.0003
693.288	-0.0006
693.544	-0.0001
693.8	0.0002
694.056	-0.0007
694.313	-0.0011
694.568	-0.0009
694.824	-0.0013
695.08	-0.0012
695.336	-0.003
695.592	-0.0036
695.847	-0.0005
696.103	-0.0004
696.359	-0.0004
696.614	-0.0017
696.869	-0.0017
697.125	-0.004
697.38	-0.0022
697.635	-0.001
697.891	-0.0003
698.146	0.0007
698.401	-0.0005
698.656	-0.0006
698.911	0.0002
699.166	0.0001
699.42	0.0017
699.675	-0.0001
699.93	0.0011
700.185	0.0001
700.439	0.0001
700.694	-0.0002
700.948	-0.0013
701.203	-0.001
701.457	-0.0009
701.711	-0.0014
701.965	-0.0022
702.22	-0.0022
702.474	-0.0023
702.728	-0.0021
702.982	-0.0015
703.236	-0.0017
703.49	-0.0006
703.743	-0.0018
703.997	-0.0011
704.251	-0.0017
704.504	-0.0016
704.758	-0.0018
705.012	-0.0005
705.265	0.0003
705.518	0.0008
705.772	0.0009
706.025	0.0011
706.278	-0.0006
706.531	-0.001
706.785	-0.0022
707.038	-0.0025
707.291	-0.0012
707.543	-0.0017
707.796	-0.001
708.049	-0.0023
708.302	-0.0024
708.555	-0.0034
708.807	-0.0018
709.06	-0.0027
709.312	-0.0019
709.565	-0.0021
709.817	-0.003
710.069	-0.0027
710.322	-0.0034
710.574	-0.0033
710.826	-0.0043
711.078	-0.0034
711.33	-0.0023
711.582	-0.0032
711.834	-0.0036
712.086	-0.0033
712.338	-0.0037
712.59	-0.0034
712.841	-0.0051
713.093	-0.004
713.344	-0.0042
713.596	-0.0043
713.847	-0.0013
714.099	-0.002
714.35	-0.0017
714.601	-0.0026
714.853	-0.0022
715.104	-0.0016
715.355	-0.0019
715.606	-0.001
715.857	-0.0008
716.108	-0.0009
716.359	-0.0014
716.609	-0.0003
716.86	-0.002
717.111	-0.0009
717.361	-0.0012
717.612	0.0008
717.863	0.0007
718.113	0.002
718.363	-0.0002
718.614	0.0023
718.864	0.0025
719.114	0.0015
719.364	0.0018
719.614	0.0016
719.865	0.0024
720.114	0.0032
720.364	0.0027
720.614	0.0031
720.864	0.0025
721.114	0.0021
721.364	0.0014
721.613	0.0019
721.863	0.0016
722.112	0.0011
722.362	0.0001
722.611	-0.0002
722.86	0
723.11	0.0009
723.359	-0.0005
723.608	-0.0003
723.857	-0.0009
724.106	0
724.355	0.0007
724.604	0.0009
724.853	0.0008
725.102	-0.0005
725.351	-0.0005
725.599	-0.0016
725.848	-0.0009
726.097	0.0001
726.345	-0.0005
726.594	-0.0019
726.842	-0.0013
727.09	-0.0025
727.339	-0.004
727.587	-0.0041
727.835	-0.0043
728.083	-0.0029
728.331	-0.004
728.579	-0.002
728.827	-0.0007
729.075	-0.0005
729.323	-0.0003
729.571	-0.0004
729.818	-0.0007
730.066	-0.0005
730.314	-0.0002
730.561	0.0019
730.809	0.0007
731.056	-0.0005
731.303	0.0015
731.551	0.0004
731.798	0.0007
732.045	0.0005
732.292	0.0011
732.539	0.0014
732.786	0.0014
733.033	0.0008
733.28	0.0013
733.527	0.0007
733.774	-0
734.021	-0.0022
734.267	-0.0027
734.514	-0.0025
734.76	-0.0029
735.007	-0.0025
735.253	-0.0034
735.5	-0.0032
735.746	-0.0033
735.992	-0.0018
736.238	-0.001
736.485	0.0002
736.731	0.0005
736.977	-0.0016
737.223	0.0002
737.469	-0.0002
737.715	0.0003
737.96	-0.0002
738.206	-0.0016
738.452	-0.0003
738.697	-0.0011
738.943	-0.0016
739.189	-0.0017
739.434	-0.0012
739.679	-0.0016
739.925	-0.0015
740.17	-0.0028
740.415	-0.0027
740.66	-0.0033
740.906	-0.0032
741.151	-0.0026
741.396	-0.0033
741.641	-0.0036
741.886	-0.0032
742.13	-0.0012
742.375	-0.0012
742.62	-0.0028
742.865	-0.0023
743.109	-0.0003
743.354	0.0003
743.598	0.0008
743.843	0.0011
744.087	0.0018
744.331	0.0017
744.576	0.0021
744.82	0.0037
745.064	0.0038
745.308	0.0033
745.552	0.003
745.796	0.0013
746.04	0.0013
746.284	0.0011
746.528	0.0024
746.771	0.0044
747.015	0.0033
747.259	0.0026
747.502	0.0015
747.746	0.0009
747.989	0.0011
748.233	0.0003
748.476	0.0019
748.719	0.0034
748.963	0.0043
749.206	0.0039
749.449	0.002
749.692	0.0023
749.935	0.0022
750.178	0.0007
750.421	0.0007
750.664	0.0014
750.906	0.002
751.149	0.0019
751.392	0.0013
751.635	0.0009
751.877	0.0013
752.12	0.0006
752.362	-0.0003
752.604	0.0001
752.847	0.0019
753.089	0.0031
753.331	0.0031
753.573	0.002
753.816	0.0013
754.058	0.0005
754.3	-0.001
754.542	-0.0003
754.783	-0.0027
755.025	-0.0016
755.267	-0.0006
755.509	-0.0018
755.75	-0.0018
755.992	-0.0009
756.234	-0.0013
756.475	-0.0013
756.716	-0.0022
756.958	-0.0026
757.199	-0.0012
757.44	-0.0013
757.682	-0.0022
757.923	-0.0003
758.164	0.0009
758.405	0.0007
758.646	0.0022
758.887	0.0024
759.128	0.0017
759.369	0.001
759.609	0.0016
759.85	0.0014
760.091	0.0021
760.331	0.0014
760.572	-0.0002
760.812	-0.0011
761.053	-0.0014
761.293	-0.0004
761.533	-0.0001
761.774	0.0019
762.014	0.001
762.254	0.001
762.494	-0.0008
762.734	0.0002
762.974	-0.0012
763.214	-0.0006
763.454	-0.0004
763.694	-0.0012
763.933	-0.0014
764.173	-0.0036
764.413	-0.0052
764.652	-0.0048
764.892	-0.0038
765.131	-0.0032
765.371	-0.0031
765.61	-0.0036
765.849	-0.0027
766.089	-0.0017
766.328	-0.0012
766.567	-0.0013
766.806	-0.0002
767.045	-0.0004
767.284	-0.0019
767.523	-0.0012
767.762	-0.0026
768.001	-0.0024
768.239	-0.0022
768.478	-0.0011
768.717	-0.001
768.955	-0.0013
769.194	-0.0014
769.432	0.0004
769.671	0.0008
769.909	0.001
770.148	0.0013
770.386	0.0013
770.624	0.002
770.862	0.0026
771.1	0.0031
771.338	0.0036
771.576	0.002
771.814	0.0025
772.052	0.0035
772.29	0.0039
772.528	0.0047
772.765	0.0051
773.003	0.005
773.24	0.0056
773.478	0.004
773.716	0.0045
773.953	0.0035
774.19	0.0036
774.428	0.0052
774.665	0.0059
774.902	0.0052
775.139	0.0044
775.376	0.0039
775.613	0.004
775.85	0.0026
776.087	0.0013
776.324	0.0016
776.561	0.0017
776.798	-0.0001
777.034	0.0008
777.271	0.0015
777.508	0.0022
777.744	0.0028
777.981	0.0032
778.217	0.0031
778.454	0.0035
778.69	0.0017
778.926	0.0009
779.162	0.0008
779.399	0.0015
779.635	0.0014
779.871	0.0015
780.107	0.0012
780.343	0.0003
780.579	0.001
780.814	0.0012
781.05	0.0009
781.286	-0.0006
781.522	0.0008
781.757	0.0011
781.993	0.002
782.228	0.0009
782.464	0.0009
782.699	0.0003
782.934	-0.0003
783.17	0.0002
783.405	-0.0002
783.64	-0.0007
783.875	-0.0013
784.11	-0.0011
784.345	-0.0001
784.58	0.0008
784.815	0.0014
785.05	0.0012
785.285	-0.0009
785.52	-0.0014
785.754	-0.002
785.989	-0.0026
786.223	-0.0036
786.458	-0.0032
786.692	-0.0027
786.927	-0.0019
787.161	-0.0009
787.396	-0.002
787.63	-0.0018
787.864	-0.0027
788.098	-0.0037
788.332	-0.0037
788.566	-0.0027
788.8	-0.0033
789.034	-0.0017
789.268	-0.0018
789.502	-0.0013
789.736	-0.0015
789.969	-0.0011
790.203	-0.0009
790.437	-0.0023
790.67	-0.0024
790.904	-0.0037
791.137	-0.0039
791.37	-0.0036
791.604	-0.0057
791.837	-0.0057
792.07	-0.0045
792.303	-0.0049
792.537	-0.0052
792.77	-0.0051
793.003	-0.005
793.236	-0.0044
793.469	-0.0038
793.701	-0.0033
793.934	-0.0023
794.167	-0.0024
794.4	-0.002
794.632	-0.0006
794.865	0.0004
795.097	0.0002
795.33	-0.0018
795.562	-0.0004
795.795	-0.0001
796.027	-0.0002
796.259	0.0001
796.491	0.0008
796.724	-0.0001
796.956	0.0008
797.188	0.0005
797.42	-0
797.652	-0.0006
797.883	0.0007
798.115	0.0021
798.347	0.0015
798.579	0.0031
798.81	0.0039
799.042	0.004
799.274	0.003
799.505	0.0027
799.737	0.0027
799.968	0.0012
800.199	0.0005
800.431	0.0001
800.662	0.0009
800.893	-0.0001
801.124	0.0014
801.355	0.0001
801.586	0.0009
801.817	0.0001
802.048	-0.0012
802.279	-0.0018
802.51	-0.0005
802.741	0.0003
802.971	-0.0002
803.202	0.0005
803.433	0.0009
803.663	0.0008
803.894	-0.0001
804.124	-0.0004
804.354	0.0002
804.585	-0
804.815	0.0008
805.045	0.0002
805.275	0.001
805.506	-0.0223
805.736	-0.0309
805.966	-0.1838
806.196	-0.0549
