Data from 03 0.5 mM K2Cr2O7 0.3 mM BQDS 1 M H2SO4 5 min_Absorbance_0074.txt Node
Date: Mon Dec 13 23:49:46 EST 2021
User: kwabilab-user
Spectrometer: HDX00518
Trigger mode: 0
Integration Time (sec): 5.000000E-2
Scans to average: 50
Nonlinearity correction enabled: false
Boxcar width: 0
Storing dark spectrum: false
XAxis mode: Wavelengths
Number of Pixels in Spectrum: 2068
>>>>>Begin Spectral Data<<<<<
195.27	-0.0102
195.642	-0.1091
196.014	-0.0817
196.386	-0.0806
196.758	-0.0124
197.129	-0.0103
197.501	-0.0179
197.872	0.005
198.244	0.0325
198.615	0.0437
198.986	0.0387
199.357	0.0425
199.728	0.0358
200.099	0.0471
200.47	0.0355
200.841	0.0203
201.212	0.0336
201.582	0.0366
201.953	0.0366
202.323	0.0497
202.694	0.0334
203.064	0.032
203.434	0.0334
203.804	0.0269
204.174	0.0462
204.544	0.0318
204.914	0.0249
205.284	0.0578
205.653	0.0208
206.023	0.0171
206.393	0.0208
206.762	0.0332
207.131	0.0555
207.501	0.015
207.87	0.0628
208.239	0.0373
208.608	0.0228
208.977	0.0061
209.346	0.0462
209.715	0.0325
210.083	0.0105
210.452	0.0153
210.82	0.0565
211.189	0.0121
211.557	0.0403
211.925	0.0149
212.294	0.027
212.662	0.0514
213.03	0.0334
213.398	0.0688
213.766	0.0566
214.133	0.0498
214.501	0.0449
214.869	0.0305
215.236	0.0339
215.604	0.0274
215.971	0.0479
216.338	0.0657
216.705	0.0777
217.072	0.0633
217.439	0.0455
217.806	0.0645
218.173	0.0669
218.54	0.0629
218.907	0.0921
219.273	0.0743
219.64	0.0789
220.006	0.0927
220.373	0.1026
220.739	0.1305
221.105	0.136
221.471	0.1337
221.837	0.1618
222.203	0.1637
222.569	0.2001
222.935	0.2138
223.3	0.2167
223.666	0.2489
224.031	0.279
224.397	0.2804
224.762	0.3154
225.127	0.3246
225.493	0.3686
225.858	0.3842
226.223	0.4049
226.588	0.4281
226.952	0.4339
227.317	0.481
227.682	0.484
228.046	0.5052
228.411	0.5269
228.775	0.532
229.14	0.551
229.504	0.5703
229.868	0.576
230.232	0.5891
230.596	0.5986
230.96	0.6296
231.324	0.6147
231.688	0.6256
232.052	0.6556
232.415	0.6531
232.779	0.6664
233.142	0.6608
233.505	0.6678
233.869	0.6865
234.232	0.6864
234.595	0.6865
234.958	0.684
235.321	0.6906
235.684	0.6952
236.047	0.6894
236.409	0.6805
236.772	0.6912
237.134	0.6904
237.497	0.6878
237.859	0.6977
238.222	0.6908
238.584	0.6927
238.946	0.6894
239.308	0.6805
239.67	0.686
240.032	0.6855
240.393	0.6889
240.755	0.6806
241.117	0.6845
241.478	0.6758
241.84	0.6775
242.201	0.6699
242.562	0.6706
242.924	0.6662
243.285	0.6668
243.646	0.672
244.007	0.6671
244.368	0.6664
244.728	0.6644
245.089	0.6697
245.45	0.6614
245.81	0.6688
246.171	0.6685
246.531	0.6557
246.891	0.6618
247.252	0.6548
247.612	0.658
247.972	0.6608
248.332	0.6559
248.692	0.6609
249.051	0.6687
249.411	0.6604
249.771	0.6566
250.13	0.6542
250.49	0.653
250.849	0.66
251.208	0.653
251.568	0.6477
251.927	0.6517
252.286	0.6549
252.645	0.6565
253.004	0.6547
253.363	0.6534
253.721	0.659
254.08	0.653
254.439	0.6513
254.797	0.6472
255.155	0.6499
255.514	0.6435
255.872	0.6501
256.23	0.651
256.588	0.6515
256.946	0.6446
257.304	0.6457
257.662	0.6496
258.02	0.65
258.377	0.6454
258.735	0.6416
259.093	0.6411
259.45	0.6422
259.807	0.639
260.165	0.6407
260.522	0.6345
260.879	0.6288
261.236	0.6354
261.593	0.631
261.95	0.6229
262.306	0.6314
262.663	0.6224
263.02	0.6278
263.376	0.6235
263.733	0.6151
264.089	0.6178
264.445	0.6118
264.802	0.6155
265.158	0.6187
265.514	0.6109
265.87	0.605
266.226	0.6021
266.581	0.6009
266.937	0.5955
267.293	0.6002
267.648	0.5884
268.004	0.5885
268.359	0.5908
268.714	0.5786
269.07	0.5805
269.425	0.5769
269.78	0.5683
270.135	0.5709
270.49	0.5714
270.844	0.5701
271.199	0.5624
271.554	0.5615
271.908	0.5559
272.263	0.5535
272.617	0.5502
272.972	0.5478
273.326	0.5403
273.68	0.5393
274.034	0.5362
274.388	0.531
274.742	0.5288
275.096	0.5282
275.45	0.5203
275.803	0.5178
276.157	0.5175
276.51	0.5075
276.864	0.5059
277.217	0.504
277.571	0.498
277.924	0.4967
278.277	0.491
278.63	0.4846
278.983	0.4791
279.336	0.4762
279.688	0.4758
280.041	0.466
280.394	0.4693
280.746	0.461
281.099	0.4555
281.451	0.4494
281.803	0.4454
282.156	0.4391
282.508	0.4368
282.86	0.4316
283.212	0.4236
283.564	0.4239
283.916	0.4173
284.267	0.4099
284.619	0.4108
284.971	0.4078
285.322	0.4004
285.673	0.3957
286.025	0.3909
286.376	0.3857
286.727	0.3816
287.078	0.3799
287.429	0.374
287.78	0.3703
288.131	0.3637
288.482	0.3599
288.833	0.3546
289.183	0.3491
289.534	0.3458
289.884	0.3437
290.235	0.338
290.585	0.3341
290.935	0.3284
291.285	0.323
291.635	0.3207
291.985	0.3168
292.335	0.3113
292.685	0.3092
293.035	0.3049
293.384	0.3002
293.734	0.2974
294.083	0.2908
294.433	0.2874
294.782	0.2841
295.131	0.2802
295.48	0.2735
295.829	0.2719
296.179	0.2678
296.527	0.2644
296.876	0.2596
297.225	0.2562
297.574	0.2518
297.922	0.2492
298.271	0.2454
298.619	0.2422
298.968	0.2378
299.316	0.2344
299.664	0.2307
300.012	0.2284
300.36	0.2248
300.708	0.2215
301.056	0.2185
301.404	0.2145
301.752	0.2126
302.099	0.2084
302.447	0.2066
302.794	0.2038
303.142	0.2023
303.489	0.1988
303.836	0.1971
304.183	0.1944
304.531	0.1922
304.878	0.1903
305.224	0.1882
305.571	0.1853
305.918	0.1834
306.265	0.1825
306.611	0.1803
306.958	0.179
307.304	0.1775
307.651	0.176
307.997	0.1753
308.343	0.1738
308.689	0.172
309.035	0.17
309.381	0.1703
309.727	0.1688
310.073	0.1684
310.419	0.1673
310.764	0.1661
311.11	0.1655
311.455	0.1654
311.801	0.1658
312.146	0.164
312.491	0.1641
312.837	0.1629
313.182	0.163
313.527	0.1627
313.872	0.1634
314.216	0.1634
314.561	0.1633
314.906	0.1635
315.251	0.1635
315.595	0.1636
315.94	0.1643
316.284	0.1646
316.628	0.1654
316.972	0.1662
317.317	0.167
317.661	0.1668
318.005	0.1674
318.348	0.1691
318.692	0.17
319.036	0.1696
319.38	0.1704
319.723	0.1716
320.067	0.1733
320.41	0.1736
320.754	0.1756
321.097	0.1761
321.44	0.1776
321.783	0.1788
322.126	0.181
322.469	0.1804
322.812	0.1826
323.155	0.1839
323.498	0.1852
323.84	0.1875
324.183	0.1884
324.525	0.1904
324.868	0.1917
325.21	0.1931
325.552	0.1949
325.894	0.1958
326.236	0.1978
326.578	0.199
326.92	0.2009
327.262	0.2028
327.604	0.2036
327.946	0.2057
328.287	0.2076
328.629	0.21
328.97	0.2113
329.312	0.2127
329.653	0.2146
329.994	0.217
330.335	0.2185
330.676	0.221
331.017	0.2218
331.358	0.2245
331.699	0.2262
332.04	0.2284
332.38	0.2297
332.721	0.231
333.061	0.2337
333.402	0.236
333.742	0.2381
334.083	0.2384
334.423	0.2398
334.763	0.2414
335.103	0.2429
335.443	0.245
335.783	0.2464
336.123	0.2478
336.462	0.249
336.802	0.2516
337.141	0.2522
337.481	0.2533
337.82	0.2551
338.16	0.2559
338.499	0.2585
338.838	0.2592
339.177	0.2613
339.516	0.2629
339.855	0.2649
340.194	0.2651
340.533	0.2667
340.872	0.2676
341.21	0.2687
341.549	0.2702
341.887	0.2706
342.226	0.272
342.564	0.2731
342.902	0.2741
343.24	0.2738
343.578	0.2744
343.916	0.276
344.254	0.2755
344.592	0.2763
344.93	0.2764
345.268	0.2761
345.605	0.2766
345.943	0.2773
346.28	0.2779
346.618	0.278
346.955	0.278
347.292	0.2787
347.629	0.2789
347.966	0.2791
348.303	0.2797
348.64	0.2797
348.977	0.2796
349.314	0.2802
349.65	0.2798
349.987	0.2797
350.324	0.2805
350.66	0.2793
350.996	0.2781
351.333	0.279
351.669	0.2782
352.005	0.2765
352.341	0.2765
352.677	0.2753
353.013	0.2745
353.349	0.2737
353.685	0.2729
354.02	0.2708
354.356	0.2692
354.691	0.2687
355.027	0.2673
355.362	0.2674
355.697	0.2662
356.033	0.2652
356.368	0.2642
356.703	0.2626
357.038	0.2622
357.373	0.2612
357.707	0.2601
358.042	0.2586
358.377	0.2584
358.711	0.2564
359.046	0.2555
359.38	0.2542
359.715	0.2532
360.049	0.2521
360.383	0.2505
360.717	0.2489
361.051	0.2481
361.385	0.2455
361.719	0.2434
362.053	0.2422
362.387	0.24
362.72	0.2385
363.054	0.2362
363.387	0.2352
363.721	0.2328
364.054	0.23
364.387	0.2287
364.721	0.2271
365.054	0.2246
365.387	0.2227
365.72	0.2208
366.053	0.2191
366.385	0.2173
366.718	0.2158
367.051	0.2143
367.383	0.2127
367.716	0.211
368.048	0.2099
368.381	0.2076
368.713	0.2067
369.045	0.2055
369.377	0.2036
369.709	0.202
370.041	0.2005
370.373	0.1991
370.705	0.1972
371.037	0.1949
371.368	0.1935
371.7	0.1932
372.031	0.1899
372.363	0.1877
372.694	0.1851
373.025	0.1826
373.356	0.1807
373.688	0.179
374.019	0.1762
374.35	0.1747
374.68	0.1722
375.011	0.1696
375.342	0.1675
375.673	0.1663
376.003	0.1636
376.334	0.1617
376.664	0.1591
376.995	0.1578
377.325	0.1553
377.655	0.1538
377.985	0.1529
378.315	0.151
378.645	0.1495
378.975	0.1477
379.305	0.1465
379.635	0.1453
379.964	0.1438
380.294	0.1422
380.623	0.1411
380.953	0.1392
381.282	0.1375
381.611	0.1357
381.941	0.1345
382.27	0.1325
382.599	0.1313
382.928	0.1295
383.257	0.1282
383.585	0.1257
383.914	0.1245
384.243	0.1226
384.571	0.1206
384.9	0.1181
385.228	0.1178
385.557	0.115
385.885	0.1127
386.213	0.1112
386.541	0.1099
386.869	0.1083
387.197	0.106
387.525	0.1047
387.853	0.1027
388.181	0.1009
388.508	0.0995
388.836	0.0974
389.164	0.0959
389.491	0.0953
389.818	0.0937
390.146	0.0922
390.473	0.0915
390.8	0.0904
391.127	0.0884
391.454	0.0869
391.781	0.0855
392.108	0.0848
392.435	0.0836
392.761	0.0819
393.088	0.0811
393.415	0.0807
393.741	0.0798
394.067	0.0782
394.394	0.078
394.72	0.0761
395.046	0.0757
395.372	0.0742
395.698	0.0743
396.024	0.0723
396.35	0.072
396.676	0.0704
397.001	0.0697
397.327	0.0686
397.653	0.0677
397.978	0.0663
398.303	0.0655
398.629	0.0635
398.954	0.0628
399.279	0.0624
399.604	0.0619
399.929	0.0611
400.254	0.0602
400.579	0.0598
400.904	0.0585
401.229	0.0583
401.553	0.0574
401.878	0.057
402.202	0.0557
402.527	0.055
402.851	0.0549
403.175	0.0539
403.5	0.0529
403.824	0.053
404.148	0.0529
404.472	0.052
404.796	0.0517
405.119	0.0515
405.443	0.0511
405.767	0.05
406.09	0.0496
406.414	0.0498
406.737	0.0495
407.061	0.049
407.384	0.0492
407.707	0.0484
408.03	0.0483
408.353	0.0484
408.676	0.0479
408.999	0.0478
409.322	0.0472
409.645	0.0476
409.968	0.0468
410.29	0.0469
410.613	0.0472
410.935	0.0464
411.258	0.0469
411.58	0.0458
411.902	0.0468
412.224	0.0458
412.546	0.0459
412.868	0.0453
413.19	0.046
413.512	0.0454
413.834	0.0451
414.156	0.045
414.477	0.0458
414.799	0.0453
415.121	0.0456
415.442	0.0453
415.763	0.045
416.085	0.0454
416.406	0.0456
416.727	0.0454
417.048	0.0452
417.369	0.0447
417.69	0.0447
418.011	0.0445
418.331	0.045
418.652	0.045
418.973	0.0448
419.293	0.0453
419.614	0.0452
419.934	0.0455
420.254	0.0447
420.574	0.045
420.895	0.045
421.215	0.0447
421.535	0.0449
421.855	0.0446
422.174	0.0445
422.494	0.0445
422.814	0.0443
423.134	0.0451
423.453	0.045
423.773	0.045
424.092	0.0455
424.411	0.0445
424.731	0.045
425.05	0.0447
425.369	0.0442
425.688	0.0447
426.007	0.045
426.326	0.0451
426.644	0.0454
426.963	0.0459
427.282	0.0452
427.6	0.0452
427.919	0.0453
428.237	0.0445
428.556	0.0458
428.874	0.0449
429.192	0.0458
429.51	0.0458
429.828	0.0448
430.146	0.0458
430.464	0.0447
430.782	0.0456
431.1	0.0459
431.418	0.0449
431.735	0.0447
432.053	0.0458
432.37	0.0459
432.688	0.0455
433.005	0.0444
433.322	0.046
433.639	0.0458
433.957	0.0452
434.274	0.0457
434.591	0.0453
434.907	0.0452
435.224	0.045
435.541	0.0449
435.858	0.0456
436.174	0.0458
436.491	0.0452
436.807	0.0443
437.124	0.0451
437.44	0.0456
437.756	0.0454
438.072	0.0455
438.388	0.0453
438.704	0.0443
439.02	0.045
439.336	0.0447
439.652	0.0442
439.968	0.0439
440.283	0.0435
440.599	0.0441
440.914	0.0451
441.23	0.0451
441.545	0.0445
441.86	0.0439
442.175	0.0438
442.491	0.0444
442.806	0.0437
443.121	0.0438
443.435	0.0439
443.75	0.0437
444.065	0.0437
444.38	0.0438
444.694	0.0445
445.009	0.0441
445.323	0.0432
445.638	0.0424
445.952	0.0432
446.266	0.0434
446.58	0.0432
446.894	0.0429
447.208	0.0431
447.522	0.0433
447.836	0.0423
448.15	0.0425
448.464	0.0421
448.777	0.0426
449.091	0.0418
449.404	0.0422
449.718	0.0416
450.031	0.0423
450.345	0.0413
450.658	0.0418
450.971	0.0417
451.284	0.042
451.597	0.041
451.91	0.0413
452.223	0.0409
452.535	0.0407
452.848	0.0417
453.161	0.0405
453.473	0.0405
453.786	0.0403
454.098	0.0402
454.411	0.0408
454.723	0.0393
455.035	0.039
455.347	0.0391
455.659	0.0394
455.971	0.0398
456.283	0.0392
456.595	0.0398
456.907	0.0396
457.218	0.0383
457.53	0.0383
457.841	0.0385
458.153	0.038
458.464	0.0382
458.776	0.038
459.087	0.0378
459.398	0.0383
459.709	0.0376
460.02	0.0375
460.331	0.0366
460.642	0.037
460.953	0.0367
461.263	0.0361
461.574	0.0357
461.885	0.0358
462.195	0.0358
462.506	0.0353
462.816	0.0351
463.126	0.0358
463.437	0.0352
463.747	0.0347
464.057	0.0339
464.367	0.0342
464.677	0.0343
464.987	0.0335
465.296	0.0338
465.606	0.0327
465.916	0.0329
466.225	0.0329
466.535	0.0333
466.844	0.0334
467.154	0.0325
467.463	0.0318
467.772	0.0322
468.081	0.0322
468.39	0.0317
468.699	0.0307
469.008	0.0308
469.317	0.0304
469.626	0.0291
469.935	0.0297
470.243	0.0299
470.552	0.0299
470.86	0.0303
471.169	0.03
471.477	0.0304
471.785	0.0296
472.093	0.0294
472.402	0.028
472.71	0.0289
473.018	0.0277
473.326	0.0272
473.633	0.0278
473.941	0.0281
474.249	0.0275
474.556	0.0275
474.864	0.0265
475.171	0.027
475.479	0.0269
475.786	0.0266
476.094	0.0258
476.401	0.026
476.708	0.0261
477.015	0.0256
477.322	0.0252
477.629	0.025
477.936	0.0247
478.242	0.0242
478.549	0.0238
478.856	0.0245
479.162	0.0234
479.469	0.0236
479.775	0.0244
480.081	0.0231
480.388	0.0224
480.694	0.0224
481	0.023
481.306	0.0221
481.612	0.0227
481.918	0.0218
482.224	0.0214
482.53	0.0211
482.835	0.0218
483.141	0.0206
483.446	0.0213
483.752	0.0198
484.057	0.0202
484.363	0.0196
484.668	0.0196
484.973	0.0193
485.278	0.0195
485.583	0.0197
485.888	0.0191
486.193	0.0187
486.498	0.0179
486.803	0.0182
487.107	0.0186
487.412	0.0173
487.717	0.0181
488.021	0.0172
488.325	0.0177
488.63	0.0176
488.934	0.0172
489.238	0.0166
489.542	0.0155
489.846	0.0166
490.15	0.0167
490.454	0.016
490.758	0.0155
491.062	0.0156
491.366	0.0157
491.669	0.0153
491.973	0.0156
492.276	0.0146
492.58	0.0144
492.883	0.014
493.186	0.0143
493.489	0.0143
493.792	0.0128
494.096	0.0135
494.399	0.0136
494.701	0.0133
495.004	0.0121
495.307	0.0133
495.61	0.0121
495.912	0.0133
496.215	0.0121
496.517	0.0121
496.82	0.0125
497.122	0.011
497.424	0.0121
497.727	0.0109
498.029	0.0108
498.331	0.0113
498.633	0.0115
498.935	0.0112
499.237	0.0105
499.538	0.0097
499.84	0.0094
500.142	0.0094
500.443	0.0093
500.745	0.0099
501.046	0.0085
501.348	0.0094
501.649	0.0083
501.95	0.0082
502.251	0.0091
502.552	0.0086
502.853	0.008
503.154	0.0076
503.455	0.0081
503.756	0.0076
504.057	0.0092
504.357	0.0066
504.658	0.0083
504.958	0.008
505.259	0.0075
505.559	0.0068
505.859	0.0068
506.16	0.0065
506.46	0.0071
506.76	0.0073
507.06	0.0063
507.36	0.0065
507.66	0.0062
507.96	0.0062
508.259	0.006
508.559	0.0063
508.859	0.0062
509.158	0.0057
509.457	0.0054
509.757	0.0055
510.056	0.0057
510.355	0.0053
510.655	0.0048
510.954	0.0058
511.253	0.0045
511.552	0.0051
511.851	0.0054
512.149	0.0038
512.448	0.0049
512.747	0.0053
513.045	0.0043
513.344	0.0033
513.642	0.0039
513.941	0.0043
514.239	0.0038
514.537	0.0034
514.836	0.0042
515.134	0.0029
515.432	0.0051
515.73	0.0036
516.028	0.0036
516.326	0.0032
516.623	0.0035
516.921	0.0014
517.219	0.0031
517.516	0.0034
517.814	0.0021
518.111	0.0022
518.409	0.0018
518.706	0.002
519.003	0.0023
519.3	0.0019
519.597	0.0012
519.894	0.0021
520.191	0.0024
520.488	0.0028
520.785	0.0019
521.082	0.0028
521.378	0.0018
521.675	0.0018
521.971	0.0012
522.268	0.0019
522.564	0.0019
522.861	0.0016
523.157	0.0014
523.453	0.003
523.749	0.0017
524.045	0.0013
524.341	0.0013
524.637	0.0007
524.933	0.0008
525.229	0.0002
525.524	0.0002
525.82	-0.0001
526.115	0.0003
526.411	0.0011
526.706	0.0006
527.002	0.0006
527.297	-0.0004
527.592	0.0005
527.887	0.0019
528.182	0.0017
528.477	0.0019
528.772	0.0018
529.067	0.0005
529.362	0.0012
529.657	0.0001
529.951	0.0013
530.246	0.0004
530.54	0.0008
530.835	0
531.129	0.0003
531.423	-0.0004
531.718	0.0002
532.012	0.0009
532.306	-0.0006
532.6	-0.0006
532.894	0.0004
533.188	0.0004
533.482	-0.0002
533.775	0.0005
534.069	-0.0002
534.363	-0.0008
534.656	-0.0017
534.95	0.0004
535.243	-0.0004
535.536	-0.0005
535.83	-0.0007
536.123	0
536.416	-0.0005
536.709	-0.0004
537.002	-0.0002
537.295	-0.0004
537.588	-0.001
537.881	-0.0005
538.173	-0.0005
538.466	-0.0004
538.759	-0.0006
539.051	0.0008
539.344	-0.0007
539.636	-0.0003
539.928	0.0008
540.22	-0.0005
540.513	-0.0002
540.805	0.0005
541.097	-0.001
541.389	-0.0009
541.681	0.0001
541.972	0.0002
542.264	0.001
542.556	0.0002
542.847	0.0013
543.139	0.0004
543.431	-0.0007
543.722	0
544.013	-0.0001
544.305	-0.0008
544.596	-0.0008
544.887	0.0011
545.178	0.0004
545.469	-0.0005
545.76	0.001
546.051	0.0014
546.342	0.0008
546.632	-0.0009
546.923	-0.0003
547.214	-0
547.504	-0.0014
547.795	-0.0012
548.085	-0.002
548.375	-0.0009
548.666	-0.0013
548.956	0.0001
549.246	-0.0009
549.536	0.0001
549.826	0.0004
550.116	-0.0008
550.406	-0.0015
550.695	-0.0021
550.985	-0.0001
551.275	-0.0013
551.564	-0.0007
551.854	-0.0008
552.143	-0.0016
552.433	-0.0017
552.722	-0.0023
553.011	-0.0003
553.3	-0.0007
553.589	-0.0004
553.879	-0.0008
554.167	-0.0006
554.456	0.0001
554.745	0.0013
555.034	-0.001
555.323	0.0008
555.611	-0.0009
555.9	-0.0006
556.188	-0.001
556.477	-0.0006
556.765	-0.0025
557.053	-0.0011
557.342	-0.001
557.63	-0.0007
557.918	0.0001
558.206	0.0003
558.494	-0.0005
558.782	0
559.069	0.0001
559.357	0.0009
559.645	-0.0011
559.932	-0.0003
560.22	-0.001
560.507	-0.0007
560.795	-0.0009
561.082	-0.002
561.37	-0.0004
561.657	-0.0001
561.944	-0.0009
562.231	-0.0005
562.518	0
562.805	-0.0002
563.092	-0.0003
563.379	0
563.665	0.0011
563.952	-0.0001
564.239	0.0001
564.525	-0.0003
564.811	0.0012
565.098	-0.0004
565.384	-0.0001
565.67	0.0012
565.957	0.0014
566.243	0.0009
566.529	0.0004
566.815	0.0003
567.101	0.001
567.387	0.0007
567.672	0.0001
567.958	0.0004
568.244	0.0006
568.529	0.0004
568.815	-0.0002
569.1	-0.0012
569.386	-0.0011
569.671	0.0006
569.956	-0.0001
570.242	-0.0001
570.527	-0.0005
570.812	0.0001
571.097	-0.0002
571.382	-0.001
571.666	-0.0001
571.951	-0.0002
572.236	0.0004
572.521	0.0003
572.805	-0.0007
573.09	-0.0007
573.374	-0.001
573.659	-0.0005
573.943	-0.0008
574.227	-0.0006
574.511	-0.0014
574.795	-0.0006
575.079	0.0003
575.363	-0.0008
575.647	-0.0003
575.931	-0.0001
576.215	-0.0016
576.499	-0.0006
576.782	-0.0009
577.066	-0.0012
577.349	-0.0001
577.633	-0.0012
577.916	-0.001
578.2	-0.0001
578.483	-0.0004
578.766	-0.0002
579.049	-0.0004
579.332	0.0003
579.615	0.0006
579.898	-0.0001
580.181	0.0009
580.464	0.0013
580.746	0.0005
581.029	-0.0002
581.312	-0.0008
581.594	-0.0013
581.877	-0.0002
582.159	-0.0007
582.441	-0.0011
582.724	0
583.006	0.0007
583.288	0.0001
583.57	0.0008
583.852	0.001
584.134	0.0005
584.416	0.0008
584.697	-0.0001
584.979	-0.0006
585.261	-0.0007
585.542	-0.0008
585.824	-0.0008
586.105	-0.0006
586.387	-0.0008
586.668	-0.0009
586.949	-0.0006
587.231	0.0002
587.512	-0.0002
587.793	0.0007
588.074	-0.0004
588.355	0.0003
588.636	-0.001
588.916	-0.0005
589.197	-0.0003
589.478	0.0001
589.758	-0.0007
590.039	0.0007
590.319	0.0003
590.6	0.0004
590.88	0.0008
591.16	0.0002
591.441	0.0011
591.721	-0.0008
592.001	-0.0006
592.281	-0.0002
592.561	0
592.841	-0.0012
593.12	-0.002
593.4	-0.0003
593.68	-0.0015
593.959	-0.0011
594.239	-0.0008
594.518	-0.0007
594.798	0.0004
595.077	-0.0007
595.356	-0.0004
595.636	-0.0001
595.915	-0.0002
596.194	0.0006
596.473	0.0008
596.752	-0.0002
597.031	0
597.31	0.0003
597.588	-0.0007
597.867	-0.0001
598.146	-0.0001
598.424	0.0001
598.703	0.0003
598.981	-0.0017
599.259	-0.0015
599.538	-0
599.816	0.0004
600.094	-0.0012
600.372	-0.002
600.65	-0.0013
600.928	-0.0007
601.206	0.0001
601.484	-0.001
601.762	0.0004
602.04	-0.0007
602.317	-0.0004
602.595	-0.0006
602.872	0.0003
603.15	0.0007
603.427	-0.0019
603.704	-0.0016
603.982	-0.0004
604.259	-0.0012
604.536	-0.0002
604.813	-0.0002
605.09	-0.0011
605.367	-0.0008
605.644	-0.0016
605.921	-0.0001
606.197	-0.0008
606.474	0.0001
606.751	-0.0005
607.027	-0.0008
607.304	-0.0005
607.58	-0.001
607.856	-0.0012
608.133	-0.001
608.409	-0.0004
608.685	-0.0009
608.961	-0.0008
609.237	0
609.513	-0.0001
609.789	-0.0002
610.065	-0.0002
610.341	-0.0004
610.616	0.0003
610.892	0.0009
611.167	0.0007
611.443	0.0002
611.718	0.0008
611.994	0.0003
612.269	-0.0001
612.544	-0.0001
612.819	-0.001
613.095	-0.0009
613.37	-0
613.645	-0.0005
613.919	-0.001
614.194	0
614.469	0.0004
614.744	-0.0004
615.019	-0.0002
615.293	-0.0007
615.568	-0.0008
615.842	-0.0005
616.116	0.0011
616.391	0.0013
616.665	0.0004
616.939	0.0001
617.213	0.0016
617.488	0.001
617.762	-0.0007
618.035	-0.0006
618.309	-0.0003
618.583	-0.0001
618.857	0.001
619.131	0.0011
619.404	0.0015
619.678	0.0008
619.951	-0.0005
620.225	-0.0004
620.498	0.0002
620.771	-0.0008
621.045	-0.001
621.318	-0.0006
621.591	-0.0012
621.864	-0.002
622.137	-0.0017
622.41	-0.0012
622.683	-0.0018
622.956	-0.0009
623.228	-0.001
623.501	0
623.774	-0.0006
624.046	-0.0002
624.319	-0.0012
624.591	-0.0012
624.863	-0.001
625.136	0.0002
625.408	-0.0009
625.68	-0.0008
625.952	0.0009
626.224	0.0008
626.496	0.0001
626.768	-0
627.04	-0.0008
627.311	-0.0003
627.583	-0.0005
627.855	0.001
628.126	0.0015
628.398	0.0015
628.669	0.002
628.941	0.0024
629.212	0.0014
629.483	0.0011
629.755	0.0003
630.026	-0.0002
630.297	0
630.568	-0.0001
630.839	0.0006
631.11	0.0005
631.38	0.0012
631.651	0.0007
631.922	0.001
632.192	0.0002
632.463	-0.0003
632.733	-0.0012
633.004	0
633.274	0.0006
633.545	0.0006
633.815	0.0004
634.085	-0.0015
634.355	-0.0016
634.625	-0.0013
634.895	-0.0012
635.165	-0.002
635.435	-0.002
635.705	-0.0018
635.974	-0.0021
636.244	-0.0011
636.514	-0.0006
636.783	-0.0007
637.053	-0.0016
637.322	-0.0003
637.591	0.0004
637.861	-0.0018
638.13	-0.0011
638.399	-0.0022
638.668	-0.0022
638.937	-0.0023
639.206	-0.0029
639.475	-0.0025
639.744	-0.0032
640.013	-0.0021
640.281	-0.0019
640.55	-0.001
640.819	-0.0016
641.087	-0.0006
641.356	-0.0009
641.624	0.0002
641.892	0.0006
642.161	0.0004
642.429	-0.0006
642.697	-0.0003
642.965	-0.0007
643.233	-0.0009
643.501	-0.0013
643.769	-0.0007
644.037	0.0001
644.305	-0.0002
644.572	-0.0002
644.84	-0.0012
645.108	-0.0015
645.375	-0.002
645.643	-0.001
645.91	0.0002
646.177	0.0015
646.445	0.0014
646.712	0.003
646.979	0.0033
647.246	0.0038
647.513	0.0033
647.78	0.0022
648.047	0.0007
648.314	-0.0009
648.58	-0.0003
648.847	0.0001
649.114	0.0009
649.38	-0.0004
649.647	-0.0001
649.913	0.0002
650.18	0.0003
650.446	0.0005
650.712	-0.0007
650.978	-0.0006
651.245	-0.0009
651.511	-0.0006
651.777	0.0003
652.043	-0.0009
652.309	-0.0004
652.574	0.0022
652.84	0.0017
653.106	0.0016
653.371	0.0014
653.637	0.0017
653.903	0.002
654.168	0.0031
654.433	0.0033
654.699	0.0027
654.964	0.0039
655.229	0.002
655.494	-0.0001
655.759	-0.0033
656.024	0.0004
656.289	-0
656.554	0.0015
656.819	0.0004
657.084	0.0007
657.349	0.001
657.613	0.0006
657.878	0.0002
658.142	-0.0001
658.407	0.0003
658.671	0.0011
658.936	0.0008
659.2	0.0009
659.464	0.0011
659.728	0.001
659.992	-0.0002
660.256	-0.0001
660.52	0.0006
660.784	0.0005
661.048	0.0004
661.312	0.0011
661.575	0.0008
661.839	0.0013
662.103	0.0001
662.366	0.0002
662.63	-0.0006
662.893	-0.0001
663.156	-0.0009
663.42	-0.0017
663.683	-0.0027
663.946	-0.0027
664.209	-0.0023
664.472	-0.002
664.735	-0.0012
664.998	-0.0002
665.261	-0.0006
665.524	-0.0018
665.786	-0.002
666.049	-0.0013
666.312	-0.0009
666.574	-0.0011
666.837	-0.0003
667.099	0.0002
667.361	-0.0006
667.624	-0.0008
667.886	-0.0024
668.148	-0.0023
668.41	-0.0003
668.672	-0.0013
668.934	0.0001
669.196	0.0005
669.458	0.0016
669.72	0.002
669.982	0.0018
670.243	0.0013
670.505	0.0006
670.766	0.0006
671.028	0.0005
671.289	-0.0017
671.551	-0.0012
671.812	-0.0016
672.073	-0.0006
672.334	-0.0012
672.596	-0.0017
672.857	-0.0025
673.118	-0.001
673.379	-0.0024
673.639	-0.0016
673.9	-0.0018
674.161	-0.0022
674.422	-0.0024
674.682	-0.002
674.943	-0.0021
675.203	-0.0017
675.464	-0.0022
675.724	-0.0032
675.985	-0.0032
676.245	-0.0034
676.505	-0.0023
676.765	-0.003
677.025	-0.0023
677.285	-0.002
677.545	-0.0003
677.805	-0.0007
678.065	-0.0006
678.325	-0.0004
678.585	-0.0014
678.844	-0.0023
679.104	-0.0025
679.363	-0.0027
679.623	-0.0034
679.882	-0.0034
680.142	-0.0024
680.401	-0.0021
680.66	-0.0008
680.919	0.0004
681.178	-0.0002
681.437	-0.0005
681.696	-0.0006
681.955	-0.0002
682.214	0.0003
682.473	-0.0007
682.732	-0.0021
682.99	-0.0005
683.249	-0.0004
683.508	-0.0007
683.766	-0.0017
684.024	-0.0012
684.283	-0.0006
684.541	-0.0009
684.799	-0.0003
685.058	-0.0007
685.316	-0.0014
685.574	-0.0015
685.832	-0.0019
686.09	-0.0019
686.348	-0.0027
686.606	-0.0025
686.863	-0.0024
687.121	-0.0018
687.379	-0.0015
687.636	-0.0021
687.894	-0.0012
688.151	-0
688.409	-0.0001
688.666	-0.0011
688.923	-0.0029
689.181	-0.0016
689.438	-0.0023
689.695	-0.0028
689.952	-0.0036
690.209	-0.0037
690.466	-0.003
690.723	-0.0022
690.979	-0.0017
691.236	-0.003
691.493	-0.0015
691.75	-0.0014
692.006	-0.0013
692.263	-0.0014
692.519	-0.0019
692.775	-0.0012
693.032	-0.0017
693.288	-0.0019
693.544	-0.0007
693.8	-0.0004
694.056	-0.0009
694.313	-0.001
694.568	-0.0012
694.824	-0.0015
695.08	-0.0015
695.336	-0.0027
695.592	-0.0035
695.847	-0.0015
696.103	-0.0019
696.359	-0.0015
696.614	-0.0021
696.869	-0.0031
697.125	-0.0037
697.38	-0.0014
697.635	-0.001
697.891	-0.0007
698.146	-0.0004
698.401	-0.0016
698.656	-0.0021
698.911	-0.0014
699.166	-0.0013
699.42	-0.0003
699.675	-0.001
699.93	0.0007
700.185	-0.0017
700.439	-0.0011
700.694	-0.0016
700.948	-0.0022
701.203	-0.0018
701.457	-0.0023
701.711	-0.0033
701.965	-0.0033
702.22	-0.0025
702.474	-0.0027
702.728	-0.0021
702.982	-0.0027
703.236	-0.001
703.49	-0.0015
703.743	-0.0016
703.997	-0.002
704.251	-0.0025
704.504	-0.0022
704.758	-0.0028
705.012	-0.0023
705.265	-0.0013
705.518	0.0001
705.772	-0.0007
706.025	-0.0001
706.278	-0.0023
706.531	-0.0027
706.785	-0.0029
707.038	-0.0035
707.291	-0.0023
707.543	-0.0028
707.796	-0.0016
708.049	-0.0026
708.302	-0.0028
708.555	-0.0024
708.807	-0.002
709.06	-0.0032
709.312	-0.0012
709.565	-0.0017
709.817	-0.0029
710.069	-0.0035
710.322	-0.0032
710.574	-0.0037
710.826	-0.0034
711.078	-0.0034
711.33	-0.0033
711.582	-0.0045
711.834	-0.004
712.086	-0.0045
712.338	-0.0052
712.59	-0.0045
712.841	-0.0056
713.093	-0.005
713.344	-0.0047
713.596	-0.0043
713.847	-0.0037
714.099	-0.0037
714.35	-0.0039
714.601	-0.004
714.853	-0.0032
715.104	-0.0035
715.355	-0.0026
715.606	-0.0026
715.857	-0.0014
716.108	-0.0029
716.359	-0.0022
716.609	-0.0037
716.86	-0.0026
717.111	-0.0026
717.361	-0.0022
717.612	-0.0002
717.863	-0
718.113	0.0011
718.363	-0.0008
718.614	0.0015
718.864	0.0011
719.114	0.0001
719.364	0.0005
719.614	0.0009
719.865	0.0018
720.114	0.0026
720.364	0.002
720.614	0.0021
720.864	0.0019
721.114	0.0012
721.364	0.0017
721.613	0.0016
721.863	0.0012
722.112	0.0007
722.362	0.0001
722.611	-0.0004
722.86	-0.0005
723.11	0.0002
723.359	-0.0014
723.608	-0.0002
723.857	-0.0009
724.106	-0.0003
724.355	0.0001
724.604	-0.0009
724.853	-0.0006
725.102	-0.0029
725.351	-0.0018
725.599	-0.0029
725.848	-0.0024
726.097	-0.0019
726.345	-0.0027
726.594	-0.0035
726.842	-0.0029
727.09	-0.004
727.339	-0.005
727.587	-0.0048
727.835	-0.0044
728.083	-0.004
728.331	-0.005
728.579	-0.0038
728.827	-0.0023
729.075	-0.0025
729.323	-0.0028
729.571	-0.0027
729.818	-0.0022
730.066	-0.0019
730.314	-0.0026
730.561	-0.0001
730.809	-0.0003
731.056	-0.0012
731.303	0.0002
731.551	-0.0007
731.798	-0.0006
732.045	-0.0001
732.292	0.0012
732.539	0.0009
732.786	0.0017
733.033	0.0004
733.28	0.0015
733.527	0.0007
733.774	0.0005
734.021	-0.0013
734.267	-0.0022
734.514	-0.0025
734.76	-0.0031
735.007	-0.0027
735.253	-0.0034
735.5	-0.0029
735.746	-0.0031
735.992	-0.002
736.238	-0.0021
736.485	-0.002
736.731	-0.0016
736.977	-0.0028
737.223	-0.0022
737.469	-0.0022
737.715	-0.0015
737.96	-0.0018
738.206	-0.0031
738.452	-0.0033
738.697	-0.0024
738.943	-0.0017
739.189	-0.0024
739.434	-0.0016
739.679	-0.0032
739.925	-0.0027
740.17	-0.0046
740.415	-0.0057
740.66	-0.006
740.906	-0.006
741.151	-0.0054
741.396	-0.0052
741.641	-0.0057
741.886	-0.0055
742.13	-0.0042
742.375	-0.0029
742.62	-0.0034
742.865	-0.0036
743.109	-0.0015
743.354	-0.0015
743.598	-0.0006
743.843	0.0004
744.087	0.0009
744.331	0.001
744.576	0.0009
744.82	0.0019
745.064	0.0017
745.308	0.0029
745.552	0.0015
745.796	0.0005
746.04	0.0007
746.284	0.0002
746.528	0.0011
746.771	0.0028
747.015	0.0013
747.259	0.0009
747.502	-0
747.746	-0.0006
747.989	0
748.233	-0.0004
748.476	0.0006
748.719	0.0012
748.963	0.0022
749.206	0.0021
749.449	0.0007
749.692	0.0007
749.935	0.0006
750.178	-0.0007
750.421	-0.0006
750.664	-0.0003
750.906	0.0011
751.149	0.0008
751.392	0.0001
751.635	-0.0003
751.877	-0.0001
752.12	-0.0013
752.362	-0.0012
752.604	-0.0004
752.847	0.0005
753.089	0.0014
753.331	0.0017
753.573	0.0003
753.816	-0.0004
754.058	-0.0012
754.3	-0.0026
754.542	-0.0021
754.783	-0.0024
755.025	-0.0025
755.267	-0.0013
755.509	-0.0019
755.75	-0.0022
755.992	-0.0016
756.234	-0.003
756.475	-0.0024
756.716	-0.0035
756.958	-0.0025
757.199	-0.0022
757.44	-0.0018
757.682	-0.0025
757.923	-0.0009
758.164	-0.0007
758.405	-0.0013
758.646	0.0004
758.887	0.0004
759.128	0.0008
759.369	0.0005
759.609	0.0011
759.85	0.0006
760.091	0.0014
760.331	0.0001
760.572	-0.001
760.812	-0.0011
761.053	-0.001
761.293	-0.0005
761.533	-0.0001
761.774	0.0011
762.014	0.0011
762.254	0.0001
762.494	-0.0011
762.734	-0.0002
762.974	-0.0021
763.214	-0.0011
763.454	-0.0019
763.694	-0.0019
763.933	-0.0025
764.173	-0.0047
764.413	-0.0056
764.652	-0.005
764.892	-0.0045
765.131	-0.0039
765.371	-0.0033
765.61	-0.0037
765.849	-0.0032
766.089	-0.0028
766.328	-0.0021
766.567	-0.0029
766.806	-0.002
767.045	-0.0011
767.284	-0.0016
767.523	-0.0012
767.762	-0.0018
768.001	-0.0023
768.239	-0.0018
768.478	-0.0013
768.717	-0.001
768.955	-0.0009
769.194	-0.0008
769.432	0.0014
769.671	0.0018
769.909	0.0013
770.148	0.0009
770.386	0.001
770.624	0.002
770.862	0.0014
771.1	0.0026
771.338	0.0014
771.576	0.0006
771.814	0.0007
772.052	0.0012
772.29	0.0024
772.528	0.0034
772.765	0.0044
773.003	0.004
773.24	0.0039
773.478	0.0028
773.716	0.0027
773.953	0.0019
774.19	0.0018
774.428	0.0026
774.665	0.0027
774.902	0.0036
775.139	0.0036
775.376	0.0033
775.613	0.0028
775.85	0.0025
776.087	0.0015
776.324	0.0006
776.561	0.0008
776.798	0.0002
777.034	-0.0002
777.271	0.0012
777.508	0.002
777.744	0.002
777.981	0.0034
778.217	0.0027
778.454	0.002
778.69	0.001
778.926	-0.0002
779.162	-0.0004
779.399	-0.0001
779.635	-0.001
779.871	-0.0007
780.107	-0.0007
780.343	-0.0019
780.579	-0.001
780.814	-0.0013
781.05	-0.0012
781.286	-0.0017
781.522	-0.0015
781.757	-0.001
781.993	-0.0009
782.228	-0.0021
782.464	-0.0015
782.699	-0.0019
782.934	-0.0028
783.17	-0.0027
783.405	-0.0033
783.64	-0.003
783.875	-0.004
784.11	-0.0042
784.345	-0.0025
784.58	-0.0027
784.815	-0.0024
785.05	-0.0029
785.285	-0.0034
785.52	-0.0037
785.754	-0.0046
785.989	-0.0047
786.223	-0.0061
786.458	-0.0054
786.692	-0.0041
786.927	-0.0035
787.161	-0.0029
787.396	-0.0043
787.63	-0.0034
787.864	-0.0043
788.098	-0.0047
788.332	-0.0037
788.566	-0.0037
788.8	-0.004
789.034	-0.0028
789.268	-0.0022
789.502	-0.0017
789.736	-0.0023
789.969	-0.0024
790.203	-0.0031
790.437	-0.0046
790.67	-0.0048
790.904	-0.0057
791.137	-0.0059
791.37	-0.0062
791.604	-0.0073
791.837	-0.0071
792.07	-0.0062
792.303	-0.0067
792.537	-0.0065
792.77	-0.007
793.003	-0.0063
793.236	-0.0055
793.469	-0.005
793.701	-0.0047
793.934	-0.0036
794.167	-0.0031
794.4	-0.0031
794.632	-0.0018
794.865	-0.0019
795.097	-0.0012
795.33	-0.0032
795.562	-0.0028
795.795	-0.0014
796.027	-0.0004
796.259	-0.001
796.491	-0.0006
796.724	-0.0011
796.956	0.0004
797.188	-0.0006
797.42	-0.0004
797.652	-0.0012
797.883	-0.0001
798.115	-0
798.347	0.0001
798.579	0.002
798.81	0.0017
799.042	0.0023
799.274	0.0012
799.505	0.0008
799.737	0.001
799.968	0.0002
800.199	-0.0008
800.431	-0.0006
800.662	-0.0004
800.893	-0.001
801.124	-0.0006
801.355	-0.0015
801.586	-0.0015
801.817	-0.0027
802.048	-0.0039
802.279	-0.0043
802.51	-0.0019
802.741	-0.0018
802.971	-0.0007
803.202	0.0001
803.433	0.0002
803.663	-0.0016
803.894	-0.001
804.124	-0.002
804.354	-0.0019
804.585	-0.0015
804.815	-0.0008
805.045	-0.001
805.275	-0.001
805.506	-0.0431
805.736	0.0483
805.966	0.0792
806.196	0.1478
