Data from 03 0.5 mM K2Cr2O7 0.3 mM BQDS 1 M H2SO4 5 min_Absorbance_0065.txt Node
Date: Mon Dec 13 23:04:45 EST 2021
User: kwabilab-user
Spectrometer: HDX00518
Trigger mode: 0
Integration Time (sec): 5.000000E-2
Scans to average: 50
Nonlinearity correction enabled: false
Boxcar width: 0
Storing dark spectrum: false
XAxis mode: Wavelengths
Number of Pixels in Spectrum: 2068
>>>>>Begin Spectral Data<<<<<
195.27	-0.061
195.642	0.0612
196.014	0.0913
196.386	0.1263
196.758	-0.0109
197.129	-0.0144
197.501	-0.0084
197.872	0.0175
198.244	0.0301
198.615	0.0499
198.986	0.0401
199.357	0.0508
199.728	0.0261
200.099	0.0364
200.47	0.042
200.841	0.0376
201.212	0.0355
201.582	0.0303
201.953	0.044
202.323	0.0528
202.694	0.0291
203.064	0.0445
203.434	0.0424
203.804	0.0086
204.174	0.0619
204.544	0.0629
204.914	0.0247
205.284	0.0534
205.653	0.0441
206.023	0.0455
206.393	0.0125
206.762	0.0332
207.131	0.0342
207.501	0.0301
207.87	0.0559
208.239	0.041
208.608	0.0382
208.977	0.0334
209.346	0.0297
209.715	0.0532
210.083	0.035
210.452	0.038
210.82	0.0288
211.189	0.0239
211.557	0.0426
211.925	0.0058
212.294	0.0342
212.662	0.0442
213.03	0.0326
213.398	0.0615
213.766	0.0438
214.133	0.0367
214.501	0.0477
214.869	0.047
215.236	0.0438
215.604	0.0414
215.971	0.0498
216.338	0.065
216.705	0.0686
217.072	0.0622
217.439	0.0456
217.806	0.0702
218.173	0.0636
218.54	0.0643
218.907	0.0762
219.273	0.0799
219.64	0.0677
220.006	0.1047
220.373	0.0999
220.739	0.1391
221.105	0.1299
221.471	0.1652
221.837	0.1648
222.203	0.1779
222.569	0.1926
222.935	0.226
223.3	0.2271
223.666	0.2598
224.031	0.2931
224.397	0.2814
224.762	0.3232
225.127	0.3375
225.493	0.3802
225.858	0.3981
226.223	0.4266
226.588	0.437
226.952	0.4691
227.317	0.4759
227.682	0.5061
228.046	0.501
228.411	0.5183
228.775	0.5481
229.14	0.5548
229.504	0.5686
229.868	0.5985
230.232	0.5891
230.596	0.6068
230.96	0.6266
231.324	0.6177
231.688	0.6414
232.052	0.653
232.415	0.648
232.779	0.6857
233.142	0.6951
233.505	0.6941
233.869	0.675
234.232	0.6982
234.595	0.694
234.958	0.6937
235.321	0.6936
235.684	0.6956
236.047	0.6961
236.409	0.6897
236.772	0.7
237.134	0.694
237.497	0.7056
237.859	0.7071
238.222	0.7168
238.584	0.7019
238.946	0.6987
239.308	0.6982
239.67	0.6905
240.032	0.686
240.393	0.6901
240.755	0.6986
241.117	0.694
241.478	0.6858
241.84	0.6925
242.201	0.6771
242.562	0.6746
242.924	0.6789
243.285	0.6742
243.646	0.6797
244.007	0.674
244.368	0.6759
244.728	0.67
245.089	0.672
245.45	0.6707
245.81	0.6664
246.171	0.6656
246.531	0.6724
246.891	0.6616
247.252	0.661
247.612	0.6659
247.972	0.6709
248.332	0.6723
248.692	0.6654
249.051	0.661
249.411	0.6718
249.771	0.6606
250.13	0.661
250.49	0.6598
250.849	0.6638
251.208	0.6614
251.568	0.6581
251.927	0.6601
252.286	0.6613
252.645	0.6576
253.004	0.6663
253.363	0.6589
253.721	0.6619
254.08	0.664
254.439	0.6614
254.797	0.6519
255.155	0.6531
255.514	0.6583
255.872	0.6631
256.23	0.6551
256.588	0.6602
256.946	0.6589
257.304	0.6528
257.662	0.664
258.02	0.6522
258.377	0.6508
258.735	0.6553
259.093	0.6457
259.45	0.6514
259.807	0.6474
260.165	0.6494
260.522	0.6489
260.879	0.6436
261.236	0.6478
261.593	0.643
261.95	0.6336
262.306	0.6369
262.663	0.6342
263.02	0.6406
263.376	0.6314
263.733	0.631
264.089	0.6225
264.445	0.6223
264.802	0.6231
265.158	0.6233
265.514	0.6153
265.87	0.6082
266.226	0.6094
266.581	0.6113
266.937	0.6101
267.293	0.6007
267.648	0.6068
268.004	0.5974
268.359	0.5919
268.714	0.5985
269.07	0.5876
269.425	0.5833
269.78	0.577
270.135	0.5837
270.49	0.5789
270.844	0.5821
271.199	0.5742
271.554	0.5715
271.908	0.5647
272.263	0.5661
272.617	0.5609
272.972	0.5537
273.326	0.5501
273.68	0.5446
274.034	0.5439
274.388	0.5462
274.742	0.5371
275.096	0.5336
275.45	0.5364
275.803	0.5253
276.157	0.527
276.51	0.5184
276.864	0.5189
277.217	0.5143
277.571	0.5096
277.924	0.5008
278.277	0.4987
278.63	0.4987
278.983	0.4911
279.336	0.4866
279.688	0.4823
280.041	0.474
280.394	0.4745
280.746	0.47
281.099	0.4642
281.451	0.461
281.803	0.4544
282.156	0.4488
282.508	0.4421
282.86	0.4416
283.212	0.4365
283.564	0.4324
283.916	0.4257
284.267	0.4222
284.619	0.4169
284.971	0.4151
285.322	0.4076
285.673	0.4056
286.025	0.3974
286.376	0.395
286.727	0.3942
287.078	0.3879
287.429	0.3831
287.78	0.3798
288.131	0.3726
288.482	0.3678
288.833	0.3632
289.183	0.3599
289.534	0.3558
289.884	0.3522
290.235	0.3452
290.585	0.3402
290.935	0.3362
291.285	0.3315
291.635	0.3287
291.985	0.3236
292.335	0.3214
292.685	0.3189
293.035	0.3132
293.384	0.3063
293.734	0.3036
294.083	0.2991
294.433	0.2947
294.782	0.2912
295.131	0.2848
295.48	0.2816
295.829	0.278
296.179	0.2736
296.527	0.271
296.876	0.2664
297.225	0.2627
297.574	0.2583
297.922	0.2551
298.271	0.2501
298.619	0.2482
298.968	0.2433
299.316	0.2387
299.664	0.2377
300.012	0.233
300.36	0.2295
300.708	0.228
301.056	0.2247
301.404	0.2204
301.752	0.218
302.099	0.2146
302.447	0.2125
302.794	0.2084
303.142	0.206
303.489	0.2039
303.836	0.2023
304.183	0.1989
304.531	0.1974
304.878	0.195
305.224	0.1937
305.571	0.1902
305.918	0.1878
306.265	0.1877
306.611	0.1843
306.958	0.1841
307.304	0.1814
307.651	0.1811
307.997	0.179
308.343	0.1781
308.689	0.1763
309.035	0.1753
309.381	0.1746
309.727	0.1738
310.073	0.1729
310.419	0.1715
310.764	0.1701
311.11	0.1695
311.455	0.1699
311.801	0.1687
312.146	0.1686
312.491	0.1685
312.837	0.1672
313.182	0.1673
313.527	0.167
313.872	0.1676
314.216	0.1672
314.561	0.1668
314.906	0.1675
315.251	0.1674
315.595	0.1673
315.94	0.1686
316.284	0.1684
316.628	0.1692
316.972	0.1697
317.317	0.1705
317.661	0.1708
318.005	0.1712
318.348	0.1724
318.692	0.1731
319.036	0.1731
319.38	0.1741
319.723	0.1749
320.067	0.1759
320.41	0.1774
320.754	0.1789
321.097	0.1795
321.44	0.1809
321.783	0.1824
322.126	0.184
322.469	0.1844
322.812	0.1854
323.155	0.1882
323.498	0.189
323.84	0.1908
324.183	0.1926
324.525	0.1937
324.868	0.1959
325.21	0.1966
325.552	0.1981
325.894	0.2003
326.236	0.2012
326.578	0.2029
326.92	0.2046
327.262	0.207
327.604	0.2075
327.946	0.2102
328.287	0.2115
328.629	0.2137
328.97	0.2154
329.312	0.2166
329.653	0.2179
329.994	0.2208
330.335	0.2218
330.676	0.2245
331.017	0.2256
331.358	0.228
331.699	0.2301
332.04	0.2311
332.38	0.2333
332.721	0.2347
333.061	0.2376
333.402	0.2394
333.742	0.241
334.083	0.2426
334.423	0.244
334.763	0.2456
335.103	0.2466
335.443	0.2488
335.783	0.2512
336.123	0.2516
336.462	0.2526
336.802	0.2553
337.141	0.2559
337.481	0.2579
337.82	0.2589
338.16	0.2601
338.499	0.2623
338.838	0.2639
339.177	0.266
339.516	0.2681
339.855	0.2682
340.194	0.2692
340.533	0.2708
340.872	0.2722
341.21	0.273
341.549	0.2737
341.887	0.275
342.226	0.2761
342.564	0.2771
342.902	0.2784
343.24	0.2785
343.578	0.2785
343.916	0.2797
344.254	0.2798
344.592	0.2795
344.93	0.2802
345.268	0.2809
345.605	0.281
345.943	0.2819
346.28	0.2828
346.618	0.2817
346.955	0.2831
347.292	0.2823
347.629	0.2829
347.966	0.2841
348.303	0.2838
348.64	0.2841
348.977	0.2841
349.314	0.2843
349.65	0.2834
349.987	0.2843
350.324	0.284
350.66	0.2842
350.996	0.2831
351.333	0.2827
351.669	0.2816
352.005	0.2818
352.341	0.2805
352.677	0.2792
353.013	0.2792
353.349	0.2781
353.685	0.276
354.02	0.2753
354.356	0.2733
354.691	0.2721
355.027	0.2713
355.362	0.2714
355.697	0.2697
356.033	0.269
356.368	0.2675
356.703	0.2666
357.038	0.2662
357.373	0.2638
357.707	0.263
358.042	0.2626
358.377	0.2619
358.711	0.26
359.046	0.259
359.38	0.2585
359.715	0.257
360.049	0.2554
360.383	0.2547
360.717	0.2526
361.051	0.2515
361.385	0.2497
361.719	0.2473
362.053	0.2467
362.387	0.2436
362.72	0.2421
363.054	0.2396
363.387	0.2384
363.721	0.2362
364.054	0.2342
364.387	0.2317
364.721	0.2299
365.054	0.2276
365.387	0.2262
365.72	0.2231
366.053	0.2225
366.385	0.2205
366.718	0.2187
367.051	0.2171
367.383	0.2154
367.716	0.2145
368.048	0.2131
368.381	0.2101
368.713	0.2096
369.045	0.2082
369.377	0.2064
369.709	0.2047
370.041	0.2033
370.373	0.2018
370.705	0.1999
371.037	0.1981
371.368	0.1958
371.7	0.1953
372.031	0.1924
372.363	0.19
372.694	0.1881
373.025	0.1859
373.356	0.1835
373.688	0.1817
374.019	0.1789
374.35	0.1772
374.68	0.1748
375.011	0.1725
375.342	0.1698
375.673	0.1681
376.003	0.1655
376.334	0.1636
376.664	0.1618
376.995	0.1602
377.325	0.1579
377.655	0.1566
377.985	0.1545
378.315	0.153
378.645	0.1516
378.975	0.1497
379.305	0.1483
379.635	0.1478
379.964	0.1469
380.294	0.1437
380.623	0.1428
380.953	0.1411
381.282	0.1396
381.611	0.1382
381.941	0.1363
382.27	0.135
382.599	0.1329
382.928	0.131
383.257	0.1295
383.585	0.1279
383.914	0.1267
384.243	0.1242
384.571	0.1225
384.9	0.1206
385.228	0.1192
385.557	0.1169
385.885	0.1149
386.213	0.1136
386.541	0.112
386.869	0.1098
387.197	0.1074
387.525	0.1055
387.853	0.1042
388.181	0.1031
388.508	0.1014
388.836	0.0992
389.164	0.0977
389.491	0.0962
389.818	0.0947
390.146	0.094
390.473	0.0926
390.8	0.0915
391.127	0.0896
391.454	0.088
391.781	0.0872
392.108	0.0859
392.435	0.0848
392.761	0.0831
393.088	0.0825
393.415	0.0823
393.741	0.0811
394.067	0.0798
394.394	0.079
394.72	0.0777
395.046	0.077
395.372	0.0757
395.698	0.0753
396.024	0.0738
396.35	0.0728
396.676	0.0715
397.001	0.0703
397.327	0.0695
397.653	0.0689
397.978	0.0671
398.303	0.0663
398.629	0.0649
398.954	0.0639
399.279	0.0634
399.604	0.0627
399.929	0.0616
400.254	0.0617
400.579	0.0603
400.904	0.0603
401.229	0.059
401.553	0.0579
401.878	0.0577
402.202	0.0565
402.527	0.0562
402.851	0.056
403.175	0.0549
403.5	0.0547
403.824	0.0535
404.148	0.054
404.472	0.0527
404.796	0.0522
405.119	0.0519
405.443	0.0514
405.767	0.0507
406.09	0.0513
406.414	0.0509
406.737	0.0498
407.061	0.0499
407.384	0.0496
407.707	0.0494
408.03	0.0487
408.353	0.0492
408.676	0.0485
408.999	0.0488
409.322	0.0484
409.645	0.0477
409.968	0.0474
410.29	0.0481
410.613	0.048
410.935	0.048
411.258	0.0474
411.58	0.0469
411.902	0.0467
412.224	0.0465
412.546	0.0465
412.868	0.0463
413.19	0.0466
413.512	0.047
413.834	0.0454
414.156	0.0459
414.477	0.0466
414.799	0.0459
415.121	0.0465
415.442	0.0457
415.763	0.0459
416.085	0.0458
416.406	0.0464
416.727	0.0462
417.048	0.0457
417.369	0.0452
417.69	0.0456
418.011	0.0456
418.331	0.0459
418.652	0.0463
418.973	0.0458
419.293	0.0455
419.614	0.046
419.934	0.0463
420.254	0.0456
420.574	0.046
420.895	0.0454
421.215	0.0456
421.535	0.0456
421.855	0.0448
422.174	0.0456
422.494	0.0452
422.814	0.0454
423.134	0.0458
423.453	0.0456
423.773	0.0461
424.092	0.0457
424.411	0.0454
424.731	0.0453
425.05	0.045
425.369	0.0448
425.688	0.0456
426.007	0.0453
426.326	0.046
426.644	0.0453
426.963	0.0462
427.282	0.0456
427.6	0.0456
427.919	0.0455
428.237	0.0462
428.556	0.0463
428.874	0.0463
429.192	0.0467
429.51	0.0469
429.828	0.046
430.146	0.0463
430.464	0.0454
430.782	0.0464
431.1	0.046
431.418	0.0458
431.735	0.0454
432.053	0.0462
432.37	0.0464
432.688	0.0457
433.005	0.0461
433.322	0.0463
433.639	0.046
433.957	0.0468
434.274	0.0465
434.591	0.046
434.907	0.0453
435.224	0.0458
435.541	0.0457
435.858	0.0457
436.174	0.0462
436.491	0.0455
436.807	0.0448
437.124	0.0453
437.44	0.0457
437.756	0.0458
438.072	0.0458
438.388	0.0462
438.704	0.0454
439.02	0.0455
439.336	0.0454
439.652	0.0448
439.968	0.0449
440.283	0.0441
440.599	0.0445
440.914	0.046
441.23	0.0461
441.545	0.0449
441.86	0.045
442.175	0.0448
442.491	0.0447
442.806	0.0446
443.121	0.0446
443.435	0.0445
443.75	0.0454
444.065	0.0446
444.38	0.0442
444.694	0.0448
445.009	0.0438
445.323	0.0442
445.638	0.0434
445.952	0.0444
446.266	0.0444
446.58	0.0436
446.894	0.0444
447.208	0.0439
447.522	0.0441
447.836	0.0433
448.15	0.043
448.464	0.0429
448.777	0.0429
449.091	0.0428
449.404	0.0428
449.718	0.0425
450.031	0.0428
450.345	0.0425
450.658	0.0426
450.971	0.0427
451.284	0.0424
451.597	0.042
451.91	0.0417
452.223	0.042
452.535	0.0411
452.848	0.0418
453.161	0.0414
453.473	0.0414
453.786	0.0406
454.098	0.0408
454.411	0.0411
454.723	0.0403
455.035	0.04
455.347	0.0388
455.659	0.0399
455.971	0.0405
456.283	0.04
456.595	0.0399
456.907	0.04
457.218	0.0397
457.53	0.0386
457.841	0.0392
458.153	0.0388
458.464	0.0394
458.776	0.0386
459.087	0.0382
459.398	0.038
459.709	0.0379
460.02	0.0377
460.331	0.0372
460.642	0.0378
460.953	0.0365
461.263	0.0364
461.574	0.0369
461.885	0.0367
462.195	0.0362
462.506	0.036
462.816	0.0358
463.126	0.036
463.437	0.0352
463.747	0.0348
464.057	0.0344
464.367	0.0348
464.677	0.0342
464.987	0.0341
465.296	0.0345
465.606	0.0336
465.916	0.0339
466.225	0.034
466.535	0.0335
466.844	0.0334
467.154	0.0328
467.463	0.0324
467.772	0.0332
468.081	0.0322
468.39	0.0318
468.699	0.0318
469.008	0.0312
469.317	0.0312
469.626	0.0299
469.935	0.0296
470.243	0.0306
470.552	0.0304
470.86	0.0303
471.169	0.0304
471.477	0.0298
471.785	0.0299
472.093	0.0292
472.402	0.0292
472.71	0.0292
473.018	0.0282
473.326	0.0279
473.633	0.0282
473.941	0.0283
474.249	0.0278
474.556	0.0289
474.864	0.0277
475.171	0.027
475.479	0.0272
475.786	0.0265
476.094	0.0268
476.401	0.0257
476.708	0.0263
477.015	0.026
477.322	0.0262
477.629	0.0256
477.936	0.0257
478.242	0.0244
478.549	0.024
478.856	0.0242
479.162	0.0241
479.469	0.0239
479.775	0.0243
480.081	0.0238
480.388	0.0235
480.694	0.0229
481	0.0227
481.306	0.0226
481.612	0.0224
481.918	0.0221
482.224	0.0223
482.53	0.022
482.835	0.0225
483.141	0.0219
483.446	0.0212
483.752	0.0213
484.057	0.0201
484.363	0.0203
484.668	0.0206
484.973	0.0199
485.278	0.0192
485.583	0.0193
485.888	0.0196
486.193	0.0188
486.498	0.0183
486.803	0.0181
487.107	0.0177
487.412	0.018
487.717	0.0177
488.021	0.0177
488.325	0.0183
488.63	0.0174
488.934	0.0176
489.238	0.0172
489.542	0.0161
489.846	0.0165
490.15	0.0163
490.454	0.0169
490.758	0.0153
491.062	0.0159
491.366	0.015
491.669	0.0151
491.973	0.0153
492.276	0.015
492.58	0.015
492.883	0.0143
493.186	0.0142
493.489	0.0144
493.792	0.0145
494.096	0.0139
494.399	0.0135
494.701	0.0131
495.004	0.012
495.307	0.0128
495.61	0.0125
495.912	0.0131
496.215	0.0119
496.517	0.012
496.82	0.0122
497.122	0.0111
497.424	0.0123
497.727	0.0113
498.029	0.0105
498.331	0.0107
498.633	0.0111
498.935	0.0102
499.237	0.0099
499.538	0.01
499.84	0.0102
500.142	0.0097
500.443	0.0086
500.745	0.0092
501.046	0.0083
501.348	0.0091
501.649	0.0087
501.95	0.0085
502.251	0.0083
502.552	0.0084
502.853	0.0081
503.154	0.0087
503.455	0.009
503.756	0.0079
504.057	0.0086
504.357	0.0069
504.658	0.0088
504.958	0.0083
505.259	0.0082
505.559	0.007
505.859	0.0065
506.16	0.0072
506.46	0.0074
506.76	0.0073
507.06	0.007
507.36	0.0063
507.66	0.0065
507.96	0.0071
508.259	0.0059
508.559	0.0066
508.859	0.0057
509.158	0.006
509.457	0.006
509.757	0.006
510.056	0.0062
510.355	0.0058
510.655	0.005
510.954	0.0064
511.253	0.0062
511.552	0.0054
511.851	0.0055
512.149	0.0042
512.448	0.0052
512.747	0.0042
513.045	0.0042
513.344	0.004
513.642	0.0034
513.941	0.0039
514.239	0.0041
514.537	0.0028
514.836	0.0042
515.134	0.0021
515.432	0.0043
515.73	0.0036
516.028	0.0037
516.326	0.0031
516.623	0.0035
516.921	0.0025
517.219	0.0025
517.516	0.0028
517.814	0.0028
518.111	0.0024
518.409	0.0024
518.706	0.0019
519.003	0.0029
519.3	0.0029
519.597	0.0016
519.894	0.0028
520.191	0.0029
520.488	0.0026
520.785	0.0014
521.082	0.0031
521.378	0.0016
521.675	0.0012
521.971	0.0009
522.268	0.002
522.564	0.0014
522.861	0.0024
523.157	0.0021
523.453	0.0017
523.749	0.0024
524.045	0.0019
524.341	0.0016
524.637	0.0012
524.933	0.0008
525.229	0.0009
525.524	0.0004
525.82	-0.0007
526.115	0.0006
526.411	0.0008
526.706	0.0014
527.002	0.0015
527.297	0
527.592	0.0007
527.887	0.0029
528.182	0.0013
528.477	0.0018
528.772	0.0011
529.067	0.0012
529.362	0.0003
529.657	0.0004
529.951	0.001
530.246	-0.0002
530.54	0.0008
530.835	0.0005
531.129	-0.0003
531.423	0.0005
531.718	0.0007
532.012	0.0011
532.306	-0.0004
532.6	-0.0004
532.894	-0.0002
533.188	0.0005
533.482	-0.0001
533.775	0.0008
534.069	-0.0001
534.363	-0.0004
534.656	-0.0015
534.95	0.0008
535.243	-0.0009
535.536	0.0007
535.83	-0.0022
536.123	0.0001
536.416	-0.0002
536.709	-0.0004
537.002	0.0001
537.295	-0.0012
537.588	-0.0012
537.881	-0.0007
538.173	-0.0005
538.466	-0
538.759	-0.0003
539.051	-0.0006
539.344	-0.0009
539.636	-0.0008
539.928	-0.0002
540.22	0.0001
540.513	-0
540.805	0.0001
541.097	-0.0016
541.389	-0.0005
541.681	-0
541.972	-0.0004
542.264	-0.0002
542.556	-0.0008
542.847	-0.0011
543.139	-0.0004
543.431	-0.0013
543.722	-0.0013
544.013	-0.0005
544.305	-0.0008
544.596	-0.002
544.887	-0.0001
545.178	0.0001
545.469	-0.0016
545.76	-0.001
546.051	-0.0003
546.342	-0.001
546.632	-0.0014
546.923	-0.0014
547.214	-0.0007
547.504	-0.0015
547.795	-0.0014
548.085	-0.0019
548.375	-0.001
548.666	-0.0018
548.956	-0.0018
549.246	-0.0019
549.536	-0.0011
549.826	-0.001
550.116	-0.0012
550.406	-0.0018
550.695	-0.0022
550.985	-0.0009
551.275	-0.0022
551.564	-0.0008
551.854	-0.0001
552.143	-0.0023
552.433	-0.0027
552.722	-0.002
553.011	-0
553.3	0.0004
553.589	-0.0002
553.879	0
554.167	-0.0007
554.456	0.0009
554.745	-0.0009
555.034	-0.0015
555.323	0.0011
555.611	-0.0005
555.9	-0.0006
556.188	-0.0021
556.477	0.0001
556.765	-0.002
557.053	-0.0016
557.342	-0.0001
557.63	-0.0008
557.918	0
558.206	0.0002
558.494	-0.0007
558.782	0.0003
559.069	0.0006
559.357	0.0006
559.645	-0.0007
559.932	-0.0004
560.22	-0.0012
560.507	-0.0017
560.795	-0.0015
561.082	-0.0011
561.37	-0.0012
561.657	-0.0004
561.944	-0.0007
562.231	-0.0004
562.518	-0.0002
562.805	-0.0005
563.092	0.0003
563.379	-0
563.665	0.0006
563.952	-0.0005
564.239	-0.0004
564.525	-0.0001
564.811	0.0012
565.098	0.0009
565.384	-0.0003
565.67	-0.0003
565.957	0.0007
566.243	0.001
566.529	0.0004
566.815	0.0005
567.101	0.0017
567.387	0.0004
567.672	0.0001
567.958	0.0009
568.244	0.0001
568.529	0.0012
568.815	-0.0007
569.1	-0.0003
569.386	-0.0006
569.671	0.0004
569.956	0.0007
570.242	0.0004
570.527	-0.0008
570.812	-0.0005
571.097	0
571.382	-0.0003
571.666	0.0002
571.951	-0.0002
572.236	-0.0002
572.521	0.0001
572.805	-0.0004
573.09	-0.0006
573.374	-0.0012
573.659	-0.0001
573.943	-0.0007
574.227	-0.0005
574.511	-0.0002
574.795	0.0002
575.079	-0.0002
575.363	-0.0005
575.647	-0.0005
575.931	-0.0003
576.215	-0.0008
576.499	-0.0005
576.782	-0.0012
577.066	-0.0006
577.349	0.0003
577.633	-0.0005
577.916	-0.0005
578.2	-0.0002
578.483	-0.0005
578.766	0.0002
579.049	-0.0004
579.332	0.0015
579.615	0.0001
579.898	-0.0006
580.181	0.0005
580.464	0.0005
580.746	0.0001
581.029	-0.0008
581.312	-0.0006
581.594	-0.0017
581.877	-0.0012
582.159	-0.001
582.441	-0.001
582.724	-0.0004
583.006	0.0004
583.288	-0.0002
583.57	0.0007
583.852	0.0003
584.134	0.0011
584.416	0.0001
584.697	0.0001
584.979	-0.0007
585.261	-0.0009
585.542	-0.0013
585.824	-0.0005
586.105	-0.0015
586.387	-0.0015
586.668	-0.0002
586.949	-0.0002
587.231	-0
587.512	-0.0004
587.793	-0.0003
588.074	-0.0009
588.355	0.0004
588.636	-0.0005
588.916	-0.0011
589.197	-0.0008
589.478	-0.0002
589.758	-0.0002
590.039	0.0004
590.319	-0.0005
590.6	-0.0001
590.88	0.0005
591.16	0.001
591.441	0.0005
591.721	0.0002
592.001	-0.0005
592.281	-0.0006
592.561	0.0001
592.841	-0.0003
593.12	-0.0021
593.4	-0.0013
593.68	-0.0018
593.959	-0.0014
594.239	-0.0011
594.518	-0.0006
594.798	-0.0004
595.077	-0.0012
595.356	-0.001
595.636	-0.0009
595.915	-0.0004
596.194	-0.0002
596.473	0.0002
596.752	-0.0003
597.031	0.0002
597.31	0.0001
597.588	-0.0008
597.867	-0.0005
598.146	-0.0008
598.424	-0.0003
598.703	-0.0003
598.981	-0.0014
599.259	-0.0011
599.538	-0.001
599.816	0.0004
600.094	-0.0007
600.372	-0.0017
600.65	-0.0018
600.928	-0.0011
601.206	-0.0005
601.484	-0.0005
601.762	-0.0001
602.04	-0.0001
602.317	-0.0005
602.595	-0.0002
602.872	0.0001
603.15	0.0015
603.427	-0.001
603.704	-0.0012
603.982	-0.0004
604.259	-0.0003
604.536	-0.0005
604.813	-0.0003
605.09	-0.0007
605.367	-0.001
605.644	-0.0015
605.921	-0.0016
606.197	-0.0009
606.474	-0.0002
606.751	-0.0009
607.027	-0.0009
607.304	-0.0004
607.58	-0.0006
607.856	-0.0015
608.133	-0.0018
608.409	-0.0003
608.685	-0.0009
608.961	-0.0007
609.237	-0.0012
609.513	-0.0012
609.789	-0.0006
610.065	-0.0012
610.341	-0.0014
610.616	-0.0005
610.892	0.0006
611.167	0.0003
611.443	-0.0009
611.718	-0.001
611.994	-0.0012
612.269	-0.0011
612.544	-0.0016
612.819	-0.0011
613.095	-0.0016
613.37	0.0004
613.645	-0.0013
613.919	-0.0008
614.194	-0.0005
614.469	0.0006
614.744	-0.0005
615.019	-0.0013
615.293	-0.001
615.568	-0.0008
615.842	-0.0004
616.116	0.0002
616.391	0.0007
616.665	0.0004
616.939	0.0006
617.213	0.0006
617.488	0.0005
617.762	-0.0011
618.035	0.0001
618.309	-0.0017
618.583	0.0001
618.857	0.0008
619.131	0.0005
619.404	0.0002
619.678	0.0001
619.951	-0.0007
620.225	-0.0012
620.498	-0.0007
620.771	-0.0005
621.045	-0.0013
621.318	-0.0014
621.591	-0.002
621.864	-0.0011
622.137	-0.0023
622.41	-0.0019
622.683	-0.0014
622.956	-0.0013
623.228	-0.0005
623.501	-0.0001
623.774	-0.0009
624.046	-0.0009
624.319	-0.0015
624.591	-0.0019
624.863	-0.001
625.136	-0.0005
625.408	-0.0001
625.68	0.0003
625.952	0
626.224	-0.0004
626.496	0.0001
626.768	-0.0003
627.04	-0.0011
627.311	-0.002
627.583	-0.0012
627.855	0.0006
628.126	0.0001
628.398	0.0012
628.669	0.0013
628.941	0.0009
629.212	-0.0001
629.483	0.0009
629.755	-0.0001
630.026	-0.0002
630.297	0.0013
630.568	0.0001
630.839	0.0001
631.11	0.0002
631.38	-0.0002
631.651	0.0008
631.922	0.0004
632.192	-0.0004
632.463	-0.0014
632.733	-0.0011
633.004	-0.0006
633.274	0.0004
633.545	0.0001
633.815	0.001
634.085	-0.0012
634.355	-0.0025
634.625	-0.0015
634.895	-0.0017
635.165	-0.0005
635.435	-0.0016
635.705	-0.0016
635.974	-0.0025
636.244	-0.0004
636.514	-0.0012
636.783	-0.0015
637.053	-0.001
637.322	-0.0002
637.591	-0.0008
637.861	-0.0025
638.13	-0.002
638.399	-0.0018
638.668	-0.0023
638.937	-0.0028
639.206	-0.0025
639.475	-0.0027
639.744	-0.0036
640.013	-0.0028
640.281	-0.0028
640.55	-0.0021
640.819	-0.0018
641.087	-0.0018
641.356	-0.0015
641.624	-0.0001
641.892	-0.0001
642.161	-0.0011
642.429	-0.0013
642.697	-0.0013
642.965	-0.0016
643.233	-0.0019
643.501	-0.0015
643.769	-0.0007
644.037	-0.0004
644.305	-0.0011
644.572	-0.0009
644.84	-0.0014
645.108	-0.0018
645.375	-0.0022
645.643	-0.0012
645.91	0.0001
646.177	0.0008
646.445	0.0009
646.712	0.0035
646.979	0.0028
647.246	0.0025
647.513	0.0026
647.78	0.0021
648.047	0.0007
648.314	-0.0012
648.58	-0.001
648.847	-0.0011
649.114	0.0005
649.38	0.0003
649.647	-0.0008
649.913	-0.0008
650.18	-0.0007
650.446	-0
650.712	-0.0012
650.978	-0.0013
651.245	-0.0015
651.511	-0.001
651.777	-0.0009
652.043	-0.0009
652.309	0.0001
652.574	0.0012
652.84	0.0008
653.106	0.0008
653.371	0.0018
653.637	0.0012
653.903	0.0015
654.168	0.0015
654.433	0.0024
654.699	0.0023
654.964	0.003
655.229	0.0014
655.494	0.0004
655.759	-0.0025
656.024	-0.0003
656.289	-0
656.554	-0.0007
656.819	-0.0008
657.084	-0.0001
657.349	0.0005
657.613	-0
657.878	-0.0005
658.142	-0.0011
658.407	-0.0003
658.671	0.0006
658.936	0.0011
659.2	0.0004
659.464	0.001
659.728	0.0012
659.992	0.0002
660.256	0.0009
660.52	-0.0003
660.784	-0
661.048	0.0005
661.312	-0
661.575	0.0003
661.839	0.0008
662.103	-0
662.366	-0.0007
662.63	-0.0011
662.893	-0.0008
663.156	-0.0006
663.42	-0.0013
663.683	-0.0018
663.946	-0.0033
664.209	-0.0027
664.472	-0.0032
664.735	-0.0019
664.998	-0.0005
665.261	-0.0014
665.524	-0.001
665.786	-0.0008
666.049	-0.0008
666.312	-0.0004
666.574	-0.0011
666.837	-0.0005
667.099	-0
667.361	-0.0012
667.624	-0.0022
667.886	-0.0025
668.148	-0.0023
668.41	-0.0015
668.672	-0.0007
668.934	0
669.196	0.0002
669.458	0.0011
669.72	0.0017
669.982	0.0012
670.243	0.0009
670.505	-0.0003
670.766	0.0005
671.028	-0.0002
671.289	-0.0019
671.551	-0.001
671.812	-0.0022
672.073	-0.0005
672.334	-0.001
672.596	-0.0015
672.857	-0.002
673.118	-0.002
673.379	-0.0026
673.639	-0.0034
673.9	-0.0023
674.161	-0.0026
674.422	-0.0026
674.682	-0.0025
674.943	-0.0018
675.203	-0.0023
675.464	-0.0023
675.724	-0.0044
675.985	-0.0037
676.245	-0.0038
676.505	-0.003
676.765	-0.0028
677.025	-0.0023
677.285	-0.0026
677.545	-0.0014
677.805	-0.0012
678.065	-0.0011
678.325	-0.0013
678.585	-0.0017
678.844	-0.0031
679.104	-0.0028
679.363	-0.0036
679.623	-0.0037
679.882	-0.0038
680.142	-0.0027
680.401	-0.0028
680.66	-0.0014
680.919	0.0004
681.178	-0.0008
681.437	-0.001
681.696	-0.0015
681.955	-0.0016
682.214	-0.0006
682.473	-0.0018
682.732	-0.0018
682.99	-0.0023
683.249	-0.0014
683.508	-0.0023
683.766	-0.0024
684.024	-0.0026
684.283	-0.0008
684.541	-0.0008
684.799	-0.0013
685.058	-0.0004
685.316	-0.0014
685.574	-0.0019
685.832	-0.0022
686.09	-0.0022
686.348	-0.0032
686.606	-0.003
686.863	-0.0031
687.121	-0.0026
687.379	-0.0017
687.636	-0.0024
687.894	-0.0006
688.151	-0.0011
688.409	-0.001
688.666	-0.0024
688.923	-0.0032
689.181	-0.0032
689.438	-0.0028
689.695	-0.0033
689.952	-0.004
690.209	-0.004
690.466	-0.0036
690.723	-0.0023
690.979	-0.0026
691.236	-0.0031
691.493	-0.0025
691.75	-0.002
692.006	-0.0019
692.263	-0.0024
692.519	-0.003
692.775	-0.0019
693.032	-0.002
693.288	-0.0014
693.544	-0.0007
693.8	-0.0005
694.056	-0.0007
694.313	-0.0014
694.568	-0.0007
694.824	-0.0017
695.08	-0.0021
695.336	-0.0024
695.592	-0.0032
695.847	-0.0022
696.103	-0.0026
696.359	-0.0025
696.614	-0.0024
696.869	-0.003
697.125	-0.0039
697.38	-0.0029
697.635	-0.002
697.891	-0.0016
698.146	-0.0015
698.401	-0.0021
698.656	-0.0028
698.911	-0.0016
699.166	-0.0015
699.42	-0.0007
699.675	-0.0013
699.93	-0.0006
700.185	-0.0016
700.439	-0.0011
700.694	-0.0008
700.948	-0.0007
701.203	-0.0018
701.457	-0.0019
701.711	-0.0028
701.965	-0.0022
702.22	-0.0018
702.474	-0.0025
702.728	-0.0013
702.982	-0.002
703.236	-0.0011
703.49	-0.0002
703.743	-0.0017
703.997	-0.0014
704.251	-0.0023
704.504	-0.0022
704.758	-0.0022
705.012	-0.0015
705.265	-0.0017
705.518	-0.0009
705.772	-0.0011
706.025	-0.0018
706.278	-0.002
706.531	-0.0028
706.785	-0.0026
707.038	-0.0032
707.291	-0.003
707.543	-0.0034
707.796	-0.0029
708.049	-0.0026
708.302	-0.0032
708.555	-0.0035
708.807	-0.0019
709.06	-0.0028
709.312	-0.0016
709.565	-0.0017
709.817	-0.0028
710.069	-0.0031
710.322	-0.0028
710.574	-0.0036
710.826	-0.004
711.078	-0.004
711.33	-0.0033
711.582	-0.0044
711.834	-0.0048
712.086	-0.0045
712.338	-0.0056
712.59	-0.0048
712.841	-0.0058
713.093	-0.0052
713.344	-0.0055
713.596	-0.0052
713.847	-0.0042
714.099	-0.0042
714.35	-0.005
714.601	-0.0035
714.853	-0.0038
715.104	-0.0041
715.355	-0.0037
715.606	-0.0032
715.857	-0.0029
716.108	-0.0038
716.359	-0.0029
716.609	-0.0035
716.86	-0.0025
717.111	-0.0023
717.361	-0.002
717.612	-0.0006
717.863	0.0006
718.113	0.0017
718.363	0.0003
718.614	0.0014
718.864	0.0005
719.114	0.0005
719.364	0.0007
719.614	0.0003
719.865	0.0014
720.114	0.0014
720.364	0.0013
720.614	0.002
720.864	0.0013
721.114	0.0016
721.364	0.0009
721.613	0.0011
721.863	0.0001
722.112	0.0004
722.362	-0.0006
722.611	-0.0007
722.86	-0.0012
723.11	-0.0006
723.359	-0.0021
723.608	-0.0013
723.857	-0.0019
724.106	-0.0015
724.355	-0.0012
724.604	-0.0007
724.853	-0.0013
725.102	-0.0027
725.351	-0.0023
725.599	-0.0036
725.848	-0.0036
726.097	-0.0026
726.345	-0.0038
726.594	-0.0041
726.842	-0.0035
727.09	-0.0039
727.339	-0.0057
727.587	-0.0052
727.835	-0.0052
728.083	-0.0043
728.331	-0.0043
728.579	-0.0036
728.827	-0.0032
729.075	-0.0031
729.323	-0.0032
729.571	-0.0034
729.818	-0.0032
730.066	-0.003
730.314	-0.0029
730.561	-0.0014
730.809	-0.0014
731.056	-0.0016
731.303	-0.0012
731.551	-0.0009
731.798	-0.0007
732.045	-0.0013
732.292	-0.0001
732.539	0.0009
732.786	0.0011
733.033	0.0007
733.28	0.0004
733.527	0.0006
733.774	0
734.021	-0.0025
734.267	-0.0022
734.514	-0.0032
734.76	-0.0035
735.007	-0.0027
735.253	-0.0038
735.5	-0.0035
735.746	-0.0035
735.992	-0.0028
736.238	-0.0026
736.485	-0.0021
736.731	-0.0023
736.977	-0.0028
737.223	-0.003
737.469	-0.0019
737.715	-0.0017
737.96	-0.002
738.206	-0.0028
738.452	-0.0024
738.697	-0.0022
738.943	-0.0022
739.189	-0.0021
739.434	-0.0019
739.679	-0.0029
739.925	-0.0037
740.17	-0.0049
740.415	-0.0056
740.66	-0.0068
740.906	-0.0054
741.151	-0.0054
741.396	-0.0051
741.641	-0.0058
741.886	-0.0059
742.13	-0.0036
742.375	-0.0039
742.62	-0.0035
742.865	-0.0039
743.109	-0.0019
743.354	-0.0017
743.598	-0.0001
743.843	0.0001
744.087	0.0009
744.331	0.001
744.576	0.0021
744.82	0.0024
745.064	0.0025
745.308	0.0026
745.552	0.0017
745.796	0.0001
746.04	0.0014
746.284	0.0003
746.528	0.0013
746.771	0.0026
747.015	0.0019
747.259	0.0018
747.502	0.0006
747.746	-0.0003
747.989	0.0004
748.233	-0.0005
748.476	0.001
748.719	0.0012
748.963	0.0026
749.206	0.0025
749.449	0.0002
749.692	0.0009
749.935	0.0013
750.178	-0.0002
750.421	-0.0011
750.664	-0.001
750.906	-0.0003
751.149	0.0005
751.392	-0.0009
751.635	-0.0013
751.877	-0.0009
752.12	-0.0013
752.362	-0.0017
752.604	-0.0007
752.847	0.0006
753.089	0.0003
753.331	0.001
753.573	-0
753.816	-0.0015
754.058	-0.0012
754.3	-0.0038
754.542	-0.0021
754.783	-0.0033
755.025	-0.0025
755.267	-0.0015
755.509	-0.0016
755.75	-0.0019
755.992	-0.0014
756.234	-0.0025
756.475	-0.0024
756.716	-0.0029
756.958	-0.0028
757.199	-0.0023
757.44	-0.0021
757.682	-0.0025
757.923	-0.0011
758.164	-0.0012
758.405	-0.0008
758.646	0.0004
758.887	-0.0002
759.128	0
759.369	-0.0004
759.609	0.0005
759.85	0.0005
760.091	0.0006
760.331	0.0003
760.572	-0.001
760.812	-0.0004
761.053	-0.0011
761.293	-0.0007
761.533	-0.0006
761.774	0.0005
762.014	0.0003
762.254	-0.0003
762.494	-0.0016
762.734	-0.0019
762.974	-0.0024
763.214	-0.0026
763.454	-0.0025
763.694	-0.003
763.933	-0.0029
764.173	-0.0042
764.413	-0.0057
764.652	-0.0056
764.892	-0.0045
765.131	-0.0043
765.371	-0.0038
765.61	-0.0047
765.849	-0.0039
766.089	-0.0032
766.328	-0.0023
766.567	-0.0031
766.806	-0.0024
767.045	-0.0019
767.284	-0.0025
767.523	-0.0019
767.762	-0.003
768.001	-0.0019
768.239	-0.0022
768.478	-0.0014
768.717	-0.0014
768.955	-0.0011
769.194	-0.001
769.432	0.0005
769.671	0.0002
769.909	0.0009
770.148	0.0005
770.386	0.0012
770.624	0.0006
770.862	0.0005
771.1	0.0015
771.338	0.0008
771.576	-0.0002
771.814	0.001
772.052	0.0008
772.29	0.0015
772.528	0.0031
772.765	0.0029
773.003	0.0037
773.24	0.0032
773.478	0.0009
773.716	0.0012
773.953	0.0008
774.19	0.0007
774.428	0.002
774.665	0.0025
774.902	0.0032
775.139	0.0025
775.376	0.0023
775.613	0.0022
775.85	0.0013
776.087	0.0007
776.324	0.0012
776.561	0.0006
776.798	0.0002
777.034	0.0003
777.271	0.0015
777.508	0.0015
777.744	0.0017
777.981	0.0016
778.217	0.0019
778.454	0.0013
778.69	-0.0004
778.926	-0.001
779.162	-0.0007
779.399	-0.0015
779.635	-0.0019
779.871	-0.0017
780.107	-0.0015
780.343	-0.003
780.579	-0.0021
780.814	-0.0016
781.05	-0.0019
781.286	-0.0032
781.522	-0.0015
781.757	-0.0016
781.993	-0.0018
782.228	-0.0026
782.464	-0.0018
782.699	-0.0024
782.934	-0.0036
783.17	-0.0024
783.405	-0.0028
783.64	-0.0028
783.875	-0.0039
784.11	-0.0042
784.345	-0.0031
784.58	-0.003
784.815	-0.0015
785.05	-0.0028
785.285	-0.0041
785.52	-0.0033
785.754	-0.005
785.989	-0.0054
786.223	-0.0071
786.458	-0.0055
786.692	-0.005
786.927	-0.0042
787.161	-0.0041
787.396	-0.0045
787.63	-0.0049
787.864	-0.0056
788.098	-0.0059
788.332	-0.0053
788.566	-0.0034
788.8	-0.0039
789.034	-0.0029
789.268	-0.0036
789.502	-0.0029
789.736	-0.0033
789.969	-0.0036
790.203	-0.0039
790.437	-0.005
790.67	-0.0058
790.904	-0.0066
791.137	-0.0072
791.37	-0.0067
791.604	-0.0079
791.837	-0.0078
792.07	-0.0069
792.303	-0.0065
792.537	-0.0063
792.77	-0.0059
793.003	-0.0067
793.236	-0.0055
793.469	-0.0059
793.701	-0.0049
793.934	-0.0032
794.167	-0.0031
794.4	-0.0025
794.632	-0.002
794.865	-0.002
795.097	-0.0014
795.33	-0.0027
795.562	-0.0017
795.795	-0.0011
796.027	-0.0008
796.259	-0.0005
796.491	-0.0005
796.724	-0.0006
796.956	0.0005
797.188	-0.0006
797.42	-0.0006
797.652	-0.0009
797.883	0.0002
798.115	0.0005
798.347	-0.0006
798.579	0.0015
798.81	0.002
799.042	0.0025
799.274	0.0012
799.505	-0.0002
799.737	0
799.968	-0.0007
800.199	-0.0009
800.431	-0.0022
800.662	-0.0015
800.893	-0.002
801.124	-0.0021
801.355	-0.0023
801.586	-0.0026
801.817	-0.0032
802.048	-0.0036
802.279	-0.0042
802.51	-0.0027
802.741	-0.0014
802.971	0.0001
803.202	-0.0006
803.433	-0
803.663	-0.0009
803.894	-0.0016
804.124	-0.0021
804.354	-0.0021
804.585	-0.0023
804.815	-0.0002
805.045	-0.001
805.275	-0.0014
805.506	-0.029
805.736	-0.0309
805.966	-0.0527
806.196	-0.12
