Data from 03 0.5 mM K2Cr2O7 0.3 mM BQDS 1 M H2SO4 5 min_Absorbance_0054.txt Node
Date: Mon Dec 13 22:09:45 EST 2021
User: kwabilab-user
Spectrometer: HDX00518
Trigger mode: 0
Integration Time (sec): 5.000000E-2
Scans to average: 50
Nonlinearity correction enabled: false
Boxcar width: 0
Storing dark spectrum: false
XAxis mode: Wavelengths
Number of Pixels in Spectrum: 2068
>>>>>Begin Spectral Data<<<<<
195.27	-0.0577
195.642	0.324
196.014	-0.0111
196.386	0.2725
196.758	-0.0195
197.129	-0.0021
197.501	-0.0179
197.872	0.013
198.244	0.0283
198.615	0.0423
198.986	0.031
199.357	0.0454
199.728	0.042
200.099	0.033
200.47	0.0304
200.841	0.036
201.212	0.0484
201.582	0.0519
201.953	0.045
202.323	0.0412
202.694	0.0494
203.064	0.0334
203.434	0.0386
203.804	0.0133
204.174	0.0544
204.544	0.0451
204.914	0.0307
205.284	0.0574
205.653	0.0178
206.023	0.032
206.393	0.0151
206.762	0.0482
207.131	0.0517
207.501	0.0247
207.87	0.0516
208.239	0.044
208.608	0.0262
208.977	0.0239
209.346	0.0371
209.715	0.0219
210.083	0.0372
210.452	0.0324
210.82	0.045
211.189	-0.0039
211.557	0.0644
211.925	0.0218
212.294	0.0381
212.662	0.0386
213.03	0.0332
213.398	0.0521
213.766	0.0656
214.133	0.0398
214.501	0.0562
214.869	0.0469
215.236	0.0308
215.604	0.0595
215.971	0.044
216.338	0.0677
216.705	0.0813
217.072	0.0643
217.439	0.0448
217.806	0.0619
218.173	0.0505
218.54	0.0713
218.907	0.0768
219.273	0.0915
219.64	0.1083
220.006	0.108
220.373	0.0918
220.739	0.1226
221.105	0.1513
221.471	0.1485
221.837	0.1624
222.203	0.1821
222.569	0.2093
222.935	0.2194
223.3	0.2189
223.666	0.2554
224.031	0.2742
224.397	0.2886
224.762	0.3266
225.127	0.3499
225.493	0.3575
225.858	0.3972
226.223	0.4042
226.588	0.4253
226.952	0.4671
227.317	0.472
227.682	0.4999
228.046	0.4941
228.411	0.5251
228.775	0.5308
229.14	0.5683
229.504	0.5831
229.868	0.6019
230.232	0.6064
230.596	0.6179
230.96	0.6482
231.324	0.6221
231.688	0.6504
232.052	0.671
232.415	0.6687
232.779	0.6822
233.142	0.689
233.505	0.7011
233.869	0.7078
234.232	0.6953
234.595	0.6821
234.958	0.7011
235.321	0.6985
235.684	0.7085
236.047	0.7013
236.409	0.6851
236.772	0.7141
237.134	0.7069
237.497	0.6918
237.859	0.7298
238.222	0.7129
238.584	0.7065
238.946	0.6989
239.308	0.7039
239.67	0.7116
240.032	0.6849
240.393	0.6987
240.755	0.7012
241.117	0.6972
241.478	0.6966
241.84	0.6956
242.201	0.6976
242.562	0.6807
242.924	0.6766
243.285	0.6798
243.646	0.6834
244.007	0.6751
244.368	0.6812
244.728	0.6916
245.089	0.6891
245.45	0.6924
245.81	0.6894
246.171	0.6768
246.531	0.6755
246.891	0.6792
247.252	0.6718
247.612	0.6761
247.972	0.684
248.332	0.6829
248.692	0.6817
249.051	0.676
249.411	0.6808
249.771	0.6726
250.13	0.6746
250.49	0.677
250.849	0.6688
251.208	0.68
251.568	0.6707
251.927	0.6694
252.286	0.6759
252.645	0.6764
253.004	0.6753
253.363	0.6759
253.721	0.681
254.08	0.6767
254.439	0.6725
254.797	0.6687
255.155	0.6676
255.514	0.673
255.872	0.6766
256.23	0.6719
256.588	0.6826
256.946	0.6734
257.304	0.6678
257.662	0.6729
258.02	0.6642
258.377	0.6687
258.735	0.6628
259.093	0.6615
259.45	0.6618
259.807	0.6572
260.165	0.6622
260.522	0.6618
260.879	0.6565
261.236	0.6603
261.593	0.6612
261.95	0.6557
262.306	0.65
262.663	0.6511
263.02	0.6489
263.376	0.6449
263.733	0.6478
264.089	0.6407
264.445	0.6375
264.802	0.6332
265.158	0.6393
265.514	0.6347
265.87	0.6293
266.226	0.6297
266.581	0.6311
266.937	0.6196
267.293	0.6213
267.648	0.6078
268.004	0.6163
268.359	0.6043
268.714	0.6079
269.07	0.606
269.425	0.6026
269.78	0.5991
270.135	0.5964
270.49	0.5967
270.844	0.5918
271.199	0.5907
271.554	0.5867
271.908	0.5812
272.263	0.5827
272.617	0.574
272.972	0.5746
273.326	0.5672
273.68	0.5627
274.034	0.5611
274.388	0.5566
274.742	0.5545
275.096	0.5523
275.45	0.5472
275.803	0.5418
276.157	0.5444
276.51	0.5315
276.864	0.5303
277.217	0.5234
277.571	0.5217
277.924	0.5189
278.277	0.5112
278.63	0.5095
278.983	0.5054
279.336	0.4992
279.688	0.4942
280.041	0.4912
280.394	0.4849
280.746	0.4838
281.099	0.4797
281.451	0.4703
281.803	0.4683
282.156	0.4596
282.508	0.4574
282.86	0.4551
283.212	0.4493
283.564	0.4448
283.916	0.4413
284.267	0.4354
284.619	0.4291
284.971	0.4252
285.322	0.4228
285.673	0.4174
286.025	0.4127
286.376	0.4055
286.727	0.4047
287.078	0.3994
287.429	0.3953
287.78	0.3906
288.131	0.3842
288.482	0.3802
288.833	0.3746
289.183	0.3714
289.534	0.3651
289.884	0.3628
290.235	0.3583
290.585	0.3532
290.935	0.3487
291.285	0.3449
291.635	0.3381
291.985	0.3341
292.335	0.3298
292.685	0.3263
293.035	0.3229
293.384	0.3183
293.734	0.3143
294.083	0.3096
294.433	0.3041
294.782	0.3
295.131	0.2966
295.48	0.2914
295.829	0.2877
296.179	0.2842
296.527	0.2798
296.876	0.2753
297.225	0.2726
297.574	0.2675
297.922	0.2643
298.271	0.2595
298.619	0.2561
298.968	0.2532
299.316	0.2493
299.664	0.2461
300.012	0.2421
300.36	0.2383
300.708	0.2347
301.056	0.2318
301.404	0.2281
301.752	0.2265
302.099	0.2229
302.447	0.2199
302.794	0.2171
303.142	0.2143
303.489	0.2105
303.836	0.2087
304.183	0.2064
304.531	0.2039
304.878	0.2018
305.224	0.2014
305.571	0.1973
305.918	0.1952
306.265	0.1935
306.611	0.1912
306.958	0.1907
307.304	0.1875
307.651	0.1869
307.997	0.1849
308.343	0.1844
308.689	0.1825
309.035	0.1812
309.381	0.1805
309.727	0.1787
310.073	0.1783
310.419	0.1779
310.764	0.1759
311.11	0.1757
311.455	0.1753
311.801	0.1749
312.146	0.1737
312.491	0.1737
312.837	0.1729
313.182	0.1732
313.527	0.1732
313.872	0.1726
314.216	0.1728
314.561	0.1723
314.906	0.172
315.251	0.1725
315.595	0.1736
315.94	0.1735
316.284	0.1744
316.628	0.1746
316.972	0.1752
317.317	0.1759
317.661	0.1759
318.005	0.1764
318.348	0.1778
318.692	0.1785
319.036	0.1788
319.38	0.1797
319.723	0.1804
320.067	0.1815
320.41	0.182
320.754	0.1842
321.097	0.1853
321.44	0.186
321.783	0.1875
322.126	0.1892
322.469	0.1895
322.812	0.1905
323.155	0.1927
323.498	0.1941
323.84	0.196
324.183	0.1976
324.525	0.1985
324.868	0.2009
325.21	0.2018
325.552	0.2043
325.894	0.2046
326.236	0.2065
326.578	0.2083
326.92	0.2103
327.262	0.2119
327.604	0.2133
327.946	0.2154
328.287	0.2165
328.629	0.219
328.97	0.2199
329.312	0.2222
329.653	0.2232
329.994	0.2254
330.335	0.2273
330.676	0.2299
331.017	0.2318
331.358	0.2336
331.699	0.2354
332.04	0.2366
332.38	0.2383
332.721	0.2409
333.061	0.2426
333.402	0.245
333.742	0.2468
334.083	0.2488
334.423	0.2492
334.763	0.2516
335.103	0.253
335.443	0.2538
335.783	0.2559
336.123	0.2569
336.462	0.2587
336.802	0.2616
337.141	0.2617
337.481	0.2633
337.82	0.265
338.16	0.2662
338.499	0.2684
338.838	0.2689
339.177	0.2712
339.516	0.2722
339.855	0.2734
340.194	0.2753
340.533	0.2769
340.872	0.2777
341.21	0.278
341.549	0.2796
341.887	0.2808
342.226	0.2809
342.564	0.2831
342.902	0.2831
343.24	0.2838
343.578	0.2845
343.916	0.2854
344.254	0.2855
344.592	0.2861
344.93	0.2865
345.268	0.287
345.605	0.2874
345.943	0.2873
346.28	0.2881
346.618	0.2879
346.955	0.2878
347.292	0.2887
347.629	0.2877
347.966	0.2885
348.303	0.2892
348.64	0.2891
348.977	0.2888
349.314	0.2896
349.65	0.2892
349.987	0.2894
350.324	0.2892
350.66	0.2887
350.996	0.2885
351.333	0.2882
351.669	0.2881
352.005	0.2869
352.341	0.2859
352.677	0.2849
353.013	0.2835
353.349	0.2828
353.685	0.282
354.02	0.2803
354.356	0.2778
354.691	0.2783
355.027	0.2763
355.362	0.2761
355.697	0.2751
356.033	0.2751
356.368	0.2731
356.703	0.2721
357.038	0.2712
357.373	0.2693
357.707	0.2681
358.042	0.2675
358.377	0.2676
358.711	0.2653
359.046	0.2646
359.38	0.2631
359.715	0.2617
360.049	0.2603
360.383	0.2596
360.717	0.2576
361.051	0.2562
361.385	0.2544
361.719	0.2519
362.053	0.2498
362.387	0.2478
362.72	0.2466
363.054	0.2439
363.387	0.2422
363.721	0.2402
364.054	0.2375
364.387	0.236
364.721	0.2342
365.054	0.2323
365.387	0.2306
365.72	0.2284
366.053	0.2264
366.385	0.2245
366.718	0.2228
367.051	0.2216
367.383	0.2196
367.716	0.2182
368.048	0.2165
368.381	0.2149
368.713	0.214
369.045	0.2128
369.377	0.2099
369.709	0.2084
370.041	0.2074
370.373	0.2059
370.705	0.2032
371.037	0.2014
371.368	0.1995
371.7	0.1993
372.031	0.1966
372.363	0.1937
372.694	0.1914
373.025	0.1895
373.356	0.1867
373.688	0.1852
374.019	0.1828
374.35	0.1804
374.68	0.1779
375.011	0.1756
375.342	0.1731
375.673	0.1715
376.003	0.1686
376.334	0.1679
376.664	0.1647
376.995	0.1633
377.325	0.1601
377.655	0.1594
377.985	0.1579
378.315	0.1564
378.645	0.1543
378.975	0.1532
379.305	0.1511
379.635	0.1505
379.964	0.1492
380.294	0.147
380.623	0.1456
380.953	0.1446
381.282	0.1422
381.611	0.141
381.941	0.1393
382.27	0.1376
382.599	0.1357
382.928	0.1337
383.257	0.1328
383.585	0.1302
383.914	0.1295
384.243	0.1274
384.571	0.1253
384.9	0.1223
385.228	0.1217
385.557	0.1195
385.885	0.1168
386.213	0.1153
386.541	0.1138
386.869	0.1121
387.197	0.1097
387.525	0.108
387.853	0.1063
388.181	0.1053
388.508	0.1026
388.836	0.1012
389.164	0.0992
389.491	0.0986
389.818	0.0966
390.146	0.0957
390.473	0.0944
390.8	0.0934
391.127	0.0913
391.454	0.0901
391.781	0.0892
392.108	0.0882
392.435	0.0865
392.761	0.0852
393.088	0.0847
393.415	0.0835
393.741	0.083
394.067	0.0815
394.394	0.0809
394.72	0.0793
395.046	0.0791
395.372	0.078
395.698	0.0766
396.024	0.0759
396.35	0.0744
396.676	0.0729
397.001	0.0719
397.327	0.0712
397.653	0.0702
397.978	0.0686
398.303	0.0677
398.629	0.0664
398.954	0.0653
399.279	0.065
399.604	0.0642
399.929	0.0637
400.254	0.0626
400.579	0.0623
400.904	0.0608
401.229	0.0598
401.553	0.0595
401.878	0.0587
402.202	0.0576
402.527	0.0578
402.851	0.0572
403.175	0.0562
403.5	0.0556
403.824	0.0555
404.148	0.0551
404.472	0.0532
404.796	0.0535
405.119	0.0533
405.443	0.0529
405.767	0.0518
406.09	0.0517
406.414	0.0519
406.737	0.051
407.061	0.0511
407.384	0.051
407.707	0.0503
408.03	0.0501
408.353	0.0504
408.676	0.05
408.999	0.0495
409.322	0.0497
409.645	0.0496
409.968	0.0487
410.29	0.049
410.613	0.0491
410.935	0.0488
411.258	0.0489
411.58	0.0481
411.902	0.0483
412.224	0.0479
412.546	0.0479
412.868	0.0476
413.19	0.0482
413.512	0.0477
413.834	0.0466
414.156	0.0472
414.477	0.048
414.799	0.0472
415.121	0.0479
415.442	0.0472
415.763	0.0467
416.085	0.0468
416.406	0.0473
416.727	0.047
417.048	0.0465
417.369	0.0468
417.69	0.0467
418.011	0.0467
418.331	0.0466
418.652	0.0473
418.973	0.0469
419.293	0.0463
419.614	0.047
419.934	0.0471
420.254	0.0466
420.574	0.0471
420.895	0.0471
421.215	0.0466
421.535	0.0469
421.855	0.0465
422.174	0.0459
422.494	0.0462
422.814	0.0463
423.134	0.0469
423.453	0.047
423.773	0.0468
424.092	0.0465
424.411	0.0458
424.731	0.0469
425.05	0.0461
425.369	0.0469
425.688	0.0465
426.007	0.0463
426.326	0.0467
426.644	0.0468
426.963	0.0476
427.282	0.0467
427.6	0.0462
427.919	0.0461
428.237	0.0468
428.556	0.047
428.874	0.047
429.192	0.0473
429.51	0.0473
429.828	0.0474
430.146	0.0475
430.464	0.0458
430.782	0.0472
431.1	0.0473
431.418	0.0466
431.735	0.0464
432.053	0.0467
432.37	0.0472
432.688	0.0472
433.005	0.0465
433.322	0.0472
433.639	0.0467
433.957	0.0475
434.274	0.0471
434.591	0.0471
434.907	0.0458
435.224	0.0461
435.541	0.0465
435.858	0.0467
436.174	0.0472
436.491	0.0465
436.807	0.0459
437.124	0.0465
437.44	0.0469
437.756	0.0468
438.072	0.0468
438.388	0.0471
438.704	0.0464
439.02	0.0467
439.336	0.0459
439.652	0.046
439.968	0.0458
440.283	0.0454
440.599	0.045
440.914	0.0461
441.23	0.0466
441.545	0.046
441.86	0.0451
442.175	0.045
442.491	0.0456
442.806	0.0454
443.121	0.0453
443.435	0.0457
443.75	0.0456
444.065	0.0455
444.38	0.0444
444.694	0.0462
445.009	0.0456
445.323	0.0448
445.638	0.0441
445.952	0.0449
446.266	0.0451
446.58	0.0449
446.894	0.0448
447.208	0.0449
447.522	0.0448
447.836	0.0447
448.15	0.0434
448.464	0.0446
448.777	0.044
449.091	0.0435
449.404	0.044
449.718	0.0441
450.031	0.0431
450.345	0.0433
450.658	0.0433
450.971	0.0427
451.284	0.0431
451.597	0.042
451.91	0.0429
452.223	0.0423
452.535	0.0419
452.848	0.0427
453.161	0.0414
453.473	0.042
453.786	0.0416
454.098	0.0413
454.411	0.0417
454.723	0.0401
455.035	0.0411
455.347	0.0404
455.659	0.0412
455.971	0.0413
456.283	0.0404
456.595	0.0403
456.907	0.0404
457.218	0.0397
457.53	0.0388
457.841	0.0401
458.153	0.0404
458.464	0.039
458.776	0.0391
459.087	0.0386
459.398	0.0392
459.709	0.0393
460.02	0.0388
460.331	0.0377
460.642	0.0386
460.953	0.0379
461.263	0.0379
461.574	0.0368
461.885	0.0366
462.195	0.0373
462.506	0.037
462.816	0.0372
463.126	0.0368
463.437	0.0362
463.747	0.035
464.057	0.0346
464.367	0.0356
464.677	0.0351
464.987	0.0353
465.296	0.0353
465.606	0.0344
465.916	0.0349
466.225	0.0343
466.535	0.0344
466.844	0.0333
467.154	0.0343
467.463	0.0335
467.772	0.0327
468.081	0.0326
468.39	0.0322
468.699	0.0331
469.008	0.032
469.317	0.0315
469.626	0.0303
469.935	0.0308
470.243	0.0312
470.552	0.0311
470.86	0.0305
471.169	0.0311
471.477	0.0304
471.785	0.0299
472.093	0.0303
472.402	0.0294
472.71	0.0303
473.018	0.0292
473.326	0.0286
473.633	0.029
473.941	0.0292
474.249	0.0279
474.556	0.029
474.864	0.029
475.171	0.0276
475.479	0.0275
475.786	0.0271
476.094	0.0268
476.401	0.0262
476.708	0.027
477.015	0.0268
477.322	0.0262
477.629	0.0261
477.936	0.0264
478.242	0.0246
478.549	0.0247
478.856	0.0253
479.162	0.0247
479.469	0.0248
479.775	0.0253
480.081	0.0246
480.388	0.0234
480.694	0.0235
481	0.023
481.306	0.0228
481.612	0.0228
481.918	0.0228
482.224	0.0224
482.53	0.0227
482.835	0.0216
483.141	0.0218
483.446	0.0221
483.752	0.0218
484.057	0.0207
484.363	0.0213
484.668	0.0206
484.973	0.02
485.278	0.0201
485.583	0.0201
485.888	0.0193
486.193	0.0189
486.498	0.0183
486.803	0.0189
487.107	0.0181
487.412	0.0186
487.717	0.0179
488.021	0.0178
488.325	0.0192
488.63	0.0178
488.934	0.0185
489.238	0.0179
489.542	0.0167
489.846	0.0169
490.15	0.017
490.454	0.0163
490.758	0.0161
491.062	0.0155
491.366	0.0157
491.669	0.0155
491.973	0.0162
492.276	0.0154
492.58	0.0152
492.883	0.0147
493.186	0.0154
493.489	0.014
493.792	0.0138
494.096	0.0138
494.399	0.0136
494.701	0.0133
495.004	0.0124
495.307	0.0133
495.61	0.0133
495.912	0.0133
496.215	0.0122
496.517	0.0127
496.82	0.0122
497.122	0.0117
497.424	0.012
497.727	0.0111
498.029	0.0107
498.331	0.0121
498.633	0.0119
498.935	0.0112
499.237	0.01
499.538	0.0102
499.84	0.0107
500.142	0.0098
500.443	0.0099
500.745	0.0092
501.046	0.0086
501.348	0.01
501.649	0.0086
501.95	0.0083
502.251	0.0083
502.552	0.0086
502.853	0.0084
503.154	0.0077
503.455	0.0089
503.756	0.0088
504.057	0.0089
504.357	0.0071
504.658	0.0095
504.958	0.0086
505.259	0.0083
505.559	0.007
505.859	0.0072
506.16	0.0079
506.46	0.0069
506.76	0.0073
507.06	0.007
507.36	0.0065
507.66	0.0067
507.96	0.0074
508.259	0.0065
508.559	0.007
508.859	0.0062
509.158	0.0065
509.457	0.0056
509.757	0.0063
510.056	0.0064
510.355	0.006
510.655	0.0058
510.954	0.0059
511.253	0.0061
511.552	0.0054
511.851	0.0056
512.149	0.0039
512.448	0.0049
512.747	0.0047
513.045	0.004
513.344	0.0045
513.642	0.004
513.941	0.0033
514.239	0.0043
514.537	0.0027
514.836	0.0039
515.134	0.0018
515.432	0.0044
515.73	0.0038
516.028	0.0033
516.326	0.0035
516.623	0.0042
516.921	0.0012
517.219	0.0031
517.516	0.0028
517.814	0.0033
518.111	0.0028
518.409	0.0009
518.706	0.0023
519.003	0.0038
519.3	0.002
519.597	0.0019
519.894	0.0021
520.191	0.0019
520.488	0.0022
520.785	0.0016
521.082	0.0018
521.378	0.0015
521.675	0.0016
521.971	0.001
522.268	0.0015
522.564	0.0016
522.861	0.0022
523.157	0.0022
523.453	0.0019
523.749	0.0018
524.045	0.0015
524.341	0.002
524.637	0.0006
524.933	0.0012
525.229	0.001
525.524	0
525.82	-0.0005
526.115	-0.0006
526.411	0.0013
526.706	0.0011
527.002	0.0016
527.297	-0.0001
527.592	0.001
527.887	0.0016
528.182	0.0015
528.477	0.0021
528.772	0.0022
529.067	0.0005
529.362	0.0004
529.657	0.0004
529.951	0.0011
530.246	-0.0001
530.54	0.0009
530.835	0.0004
531.129	0.0004
531.423	0.0009
531.718	-0
532.012	-0
532.306	-0.0004
532.6	-0.0008
532.894	-0.0001
533.188	0.0007
533.482	0.0001
533.775	-0.0003
534.069	-0.0002
534.363	-0.0017
534.656	-0.0022
534.95	-0.0005
535.243	-0.0004
535.536	0.0001
535.83	-0.0012
536.123	-0.0005
536.416	-0.0002
536.709	-0.0005
537.002	-0.0001
537.295	-0.0006
537.588	-0.0004
537.881	-0.0012
538.173	-0.0001
538.466	-0.0005
538.759	-0.0004
539.051	-0.0002
539.344	-0.001
539.636	0.0002
539.928	0.0003
540.22	-0.001
540.513	-0.0006
540.805	-0.0001
541.097	-0.0013
541.389	-0.0009
541.681	-0.0003
541.972	-0.0004
542.264	-0.0002
542.556	-0.0005
542.847	-0.0002
543.139	0.0001
543.431	-0.0004
543.722	-0.0009
544.013	-0
544.305	-0.0015
544.596	-0.0014
544.887	0
545.178	0.0002
545.469	-0.002
545.76	-0.0018
546.051	0.0001
546.342	-0.0017
546.632	-0.0021
546.923	-0.0008
547.214	-0.0008
547.504	-0.0013
547.795	-0.0011
548.085	-0.0016
548.375	-0.0013
548.666	-0.0022
548.956	-0.0015
549.246	-0.001
549.536	-0.0014
549.826	-0.0006
550.116	-0.0017
550.406	-0.0012
550.695	-0.0022
550.985	-0.0011
551.275	-0.0008
551.564	-0.0017
551.854	-0.0016
552.143	-0.0018
552.433	-0.0027
552.722	-0.0027
553.011	-0.0008
553.3	-0.0006
553.589	-0.0004
553.879	-0.0006
554.167	-0.0006
554.456	0.0002
554.745	-0.0004
555.034	-0.0019
555.323	0.0003
555.611	-0.0001
555.9	-0.0008
556.188	-0.002
556.477	-0.0007
556.765	-0.0032
557.053	-0.0019
557.342	-0.0016
557.63	-0.0008
557.918	0.0003
558.206	0.0001
558.494	-0.0002
558.782	-0.0006
559.069	-0.0002
559.357	0.0002
559.645	-0.0011
559.932	-0.0006
560.22	-0.0002
560.507	-0.0015
560.795	-0.0018
561.082	-0.0018
561.37	-0.0001
561.657	-0.0016
561.944	-0.0006
562.231	-0.0008
562.518	-0.0008
562.805	-0.0007
563.092	-0.0005
563.379	-0.0008
563.665	-0.0001
563.952	-0.0002
564.239	-0.0001
564.525	-0.0005
564.811	0.001
565.098	-0.0004
565.384	-0.0006
565.67	-0.0007
565.957	0.0003
566.243	0.0021
566.529	-0.0001
566.815	0.0001
567.101	0.0009
567.387	0.0009
567.672	-0.0005
567.958	0.0012
568.244	0.0004
568.529	0.0007
568.815	-0.0003
569.1	-0.0004
569.386	-0.0011
569.671	-0.0002
569.956	-0.0001
570.242	-0.0002
570.527	-0.0002
570.812	0.0006
571.097	0.0001
571.382	-0.0005
571.666	0.0008
571.951	-0
572.236	-0.001
572.521	-0.0004
572.805	-0.0006
573.09	-0.0009
573.374	-0.0012
573.659	-0.0008
573.943	-0.0009
574.227	-0.0008
574.511	-0.0006
574.795	-0.0006
575.079	0.0002
575.363	-0.0008
575.647	-0.0008
575.931	-0.0004
576.215	-0.0014
576.499	-0.001
576.782	-0.0013
577.066	-0.0011
577.349	0.0004
577.633	0.0001
577.916	-0.0005
578.2	-0.0001
578.483	-0.0011
578.766	-0.0011
579.049	-0.0004
579.332	0.0001
579.615	-0.0002
579.898	-0.0001
580.181	-0.0001
580.464	0.0001
580.746	-0
581.029	-0.0006
581.312	-0.0004
581.594	-0.0008
581.877	-0.0011
582.159	-0.0015
582.441	-0.0014
582.724	-0.0009
583.006	-0.0004
583.288	-0.0002
583.57	0.0001
583.852	0.0002
584.134	0.0005
584.416	0.0005
584.697	-0.0003
584.979	-0.0005
585.261	-0.0013
585.542	-0.001
585.824	-0.0013
586.105	-0.0014
586.387	-0.0018
586.668	-0.0009
586.949	-0.0002
587.231	-0.0006
587.512	-0.0002
587.793	-0.0004
588.074	-0.001
588.355	-0.0004
588.636	-0.0006
588.916	-0.0011
589.197	-0.0008
589.478	-0.0006
589.758	-0.0003
590.039	0.0005
590.319	-0.0001
590.6	-0.0002
590.88	0.001
591.16	0.0004
591.441	0.0003
591.721	-0.0003
592.001	-0.0008
592.281	-0.0005
592.561	-0.0003
592.841	-0.0006
593.12	-0.0017
593.4	-0.0012
593.68	-0.0018
593.959	-0.0008
594.239	-0.0018
594.518	-0.001
594.798	-0
595.077	-0.001
595.356	-0.0012
595.636	-0.001
595.915	-0.0008
596.194	-0.0002
596.473	-0.0006
596.752	-0.0005
597.031	0.0005
597.31	-0
597.588	-0.0006
597.867	-0.0003
598.146	-0.0006
598.424	-0.0007
598.703	-0
598.981	-0.0013
599.259	-0.0016
599.538	-0.0014
599.816	-0.0003
600.094	-0.0007
600.372	-0.0022
600.65	-0.0019
600.928	-0.0009
601.206	-0.0001
601.484	-0.0005
601.762	-0.001
602.04	-0.0004
602.317	-0.001
602.595	-0.0014
602.872	-0.0007
603.15	0.0006
603.427	-0.0008
603.704	-0.0014
603.982	-0.0008
604.259	-0.0008
604.536	-0.0001
604.813	-0.0005
605.09	-0.0011
605.367	-0.0006
605.644	-0.0014
605.921	-0.0014
606.197	-0.0004
606.474	-0.0006
606.751	-0.0006
607.027	-0.0009
607.304	-0.0008
607.58	-0.0007
607.856	-0.0017
608.133	-0.0017
608.409	-0.0008
608.685	-0.0003
608.961	-0.0011
609.237	-0.0008
609.513	-0.0005
609.789	-0.0006
610.065	-0.0005
610.341	-0.0011
610.616	-0.0011
610.892	-0.0003
611.167	-0.0005
611.443	-0.0006
611.718	-0.0017
611.994	-0.0017
612.269	-0.0014
612.544	-0.0016
612.819	-0.0009
613.095	-0.0011
613.37	-0.001
613.645	-0.0009
613.919	-0.0011
614.194	-0.0007
614.469	0.0008
614.744	-0.0003
615.019	-0.0009
615.293	-0.0013
615.568	-0.0015
615.842	-0.0005
616.116	0.0003
616.391	0.0006
616.665	0.0006
616.939	-0.0003
617.213	0.0001
617.488	0.0011
617.762	-0.0013
618.035	-0.0006
618.309	-0.0009
618.583	-0.0008
618.857	0.0011
619.131	0.0006
619.404	-0.0006
619.678	0.0003
619.951	-0.0005
620.225	-0.0009
620.498	-0.0016
620.771	-0.0009
621.045	-0.0016
621.318	-0.002
621.591	-0.003
621.864	-0.0026
622.137	-0.003
622.41	-0.0021
622.683	-0.0015
622.956	-0.0012
623.228	-0.0006
623.501	-0.0002
623.774	-0.0011
624.046	-0.0016
624.319	-0.0015
624.591	-0.0021
624.863	-0.002
625.136	-0.0009
625.408	-0.001
625.68	0.0004
625.952	-0.0011
626.224	-0.0004
626.496	-0.0009
626.768	-0.0002
627.04	-0.0013
627.311	-0.0011
627.583	-0.0007
627.855	-0.0001
628.126	-0.0001
628.398	0.0004
628.669	0.001
628.941	0.0011
629.212	0.0007
629.483	0.0001
629.755	-0.0001
630.026	0.0003
630.297	0.0007
630.568	-0.0002
630.839	-0.0005
631.11	-0.0005
631.38	-0.0002
631.651	0.0002
631.922	0.0006
632.192	-0.0016
632.463	-0.0015
632.733	-0.0013
633.004	-0.0005
633.274	-0.0007
633.545	-0.0002
633.815	-0.0001
634.085	-0.002
634.355	-0.0023
634.625	-0.0022
634.895	-0.0017
635.165	-0.0013
635.435	-0.0024
635.705	-0.0013
635.974	-0.0022
636.244	-0.0021
636.514	-0.001
636.783	-0.0017
637.053	-0.0024
637.322	-0.0011
637.591	-0.0005
637.861	-0.0018
638.13	-0.0017
638.399	-0.0033
638.668	-0.0021
638.937	-0.0029
639.206	-0.0033
639.475	-0.0034
639.744	-0.0042
640.013	-0.0028
640.281	-0.0027
640.55	-0.0023
640.819	-0.0023
641.087	-0.0023
641.356	-0.003
641.624	-0.0012
641.892	0.0003
642.161	-0.0004
642.429	-0.0009
642.697	-0.0022
642.965	-0.001
643.233	-0.003
643.501	-0.0013
643.769	-0.0014
644.037	-0.0016
644.305	-0.0012
644.572	-0.0005
644.84	-0.0017
645.108	-0.0026
645.375	-0.0029
645.643	-0.0018
645.91	-0.0002
646.177	0.0007
646.445	0.0002
646.712	0.0022
646.979	0.0024
647.246	0.0024
647.513	0.0025
647.78	0.0014
648.047	-0.0001
648.314	-0.0017
648.58	-0.0016
648.847	-0.0011
649.114	-0.0005
649.38	0.0002
649.647	-0.0011
649.913	-0.0013
650.18	-0.001
650.446	-0.0006
650.712	-0.002
650.978	-0.0013
651.245	-0.0021
651.511	-0.0014
651.777	-0.0006
652.043	-0.0015
652.309	-0.0001
652.574	0.0005
652.84	0.0003
653.106	0.0007
653.371	0.0015
653.637	0.0005
653.903	0.0008
654.168	0.0019
654.433	0.0022
654.699	0.0015
654.964	0.0027
655.229	0.0012
655.494	0.001
655.759	-0.001
656.024	-0.0001
656.289	-0
656.554	-0.0021
656.819	-0.0018
657.084	0.0002
657.349	0.0002
657.613	-0.0007
657.878	-0.0008
658.142	-0.001
658.407	-0.001
658.671	0.0003
658.936	-0.0004
659.2	0.0001
659.464	0.0005
659.728	0.0003
659.992	-0.0008
660.256	-0.0005
660.52	-0.0007
660.784	-0.0005
661.048	-0.0001
661.312	-0.0003
661.575	0.0003
661.839	0.0003
662.103	-0.0005
662.366	-0.0013
662.63	-0.001
662.893	-0.0011
663.156	-0.0015
663.42	-0.0015
663.683	-0.0022
663.946	-0.003
664.209	-0.0028
664.472	-0.0032
664.735	-0.001
664.998	-0.0014
665.261	-0.0004
665.524	-0.0015
665.786	-0.0007
666.049	-0.0013
666.312	-0.0006
666.574	-0.0007
666.837	-0.0008
667.099	-0.0005
667.361	-0.0015
667.624	-0.0013
667.886	-0.002
668.148	-0.002
668.41	-0.0008
668.672	-0.0015
668.934	0.0003
669.196	0.0003
669.458	0.0009
669.72	0.0018
669.982	0.0007
670.243	0.0007
670.505	0.0001
670.766	0
671.028	-0.0009
671.289	-0.002
671.551	-0.0011
671.812	-0.0029
672.073	-0.0016
672.334	-0.0014
672.596	-0.0018
672.857	-0.0018
673.118	-0.0015
673.379	-0.0039
673.639	-0.003
673.9	-0.003
674.161	-0.0034
674.422	-0.0035
674.682	-0.0036
674.943	-0.0031
675.203	-0.0025
675.464	-0.0039
675.724	-0.0043
675.985	-0.0039
676.245	-0.0039
676.505	-0.0033
676.765	-0.0034
677.025	-0.0035
677.285	-0.0028
677.545	-0.0013
677.805	-0.0016
678.065	-0.0022
678.325	-0.0016
678.585	-0.0032
678.844	-0.0034
679.104	-0.0041
679.363	-0.0051
679.623	-0.0038
679.882	-0.0037
680.142	-0.0034
680.401	-0.004
680.66	-0.002
680.919	-0.0003
681.178	-0.0014
681.437	-0.0014
681.696	-0.0018
681.955	-0.0012
682.214	-0.0012
682.473	-0.0028
682.732	-0.0016
682.99	-0.0024
683.249	-0.0019
683.508	-0.0017
683.766	-0.003
684.024	-0.0024
684.283	-0.0012
684.541	-0.0012
684.799	-0.001
685.058	-0.0011
685.316	-0.0022
685.574	-0.0016
685.832	-0.0021
686.09	-0.0025
686.348	-0.0041
686.606	-0.0036
686.863	-0.0042
687.121	-0.0024
687.379	-0.0018
687.636	-0.0025
687.894	-0.0022
688.151	-0.0015
688.409	-0.0017
688.666	-0.0028
688.923	-0.0037
689.181	-0.0042
689.438	-0.0039
689.695	-0.0035
689.952	-0.0046
690.209	-0.0045
690.466	-0.0052
690.723	-0.0033
690.979	-0.0028
691.236	-0.0027
691.493	-0.003
691.75	-0.0026
692.006	-0.003
692.263	-0.0027
692.519	-0.0032
692.775	-0.002
693.032	-0.0025
693.288	-0.0012
693.544	-0.0012
693.8	-0.0012
694.056	-0.0019
694.313	-0.001
694.568	-0.0012
694.824	-0.0022
695.08	-0.0027
695.336	-0.0034
695.592	-0.003
695.847	-0.0025
696.103	-0.0025
696.359	-0.0028
696.614	-0.0032
696.869	-0.0037
697.125	-0.0044
697.38	-0.0034
697.635	-0.0022
697.891	-0.0016
698.146	-0.0015
698.401	-0.003
698.656	-0.0036
698.911	-0.0021
699.166	-0.0021
699.42	-0.0012
699.675	-0.0018
699.93	-0.0013
700.185	-0.0016
700.439	-0.0014
700.694	-0.0011
700.948	-0.0013
701.203	-0.0022
701.457	-0.0025
701.711	-0.0028
701.965	-0.003
702.22	-0.0029
702.474	-0.0026
702.728	-0.0014
702.982	-0.0024
703.236	-0.0016
703.49	-0.0017
703.743	-0.0023
703.997	-0.0024
704.251	-0.0032
704.504	-0.0026
704.758	-0.0032
705.012	-0.003
705.265	-0.0022
705.518	-0.0008
705.772	-0.0016
706.025	-0.0019
706.278	-0.0025
706.531	-0.0034
706.785	-0.003
707.038	-0.0038
707.291	-0.0034
707.543	-0.0034
707.796	-0.0035
708.049	-0.0041
708.302	-0.0038
708.555	-0.0037
708.807	-0.0025
709.06	-0.0026
709.312	-0.0026
709.565	-0.0025
709.817	-0.003
710.069	-0.0032
710.322	-0.004
710.574	-0.0052
710.826	-0.0036
711.078	-0.0039
711.33	-0.0032
711.582	-0.0046
711.834	-0.0047
712.086	-0.0056
712.338	-0.0062
712.59	-0.005
712.841	-0.0054
713.093	-0.0063
713.344	-0.0058
713.596	-0.0058
713.847	-0.0046
714.099	-0.005
714.35	-0.0055
714.601	-0.0038
714.853	-0.0041
715.104	-0.0039
715.355	-0.0032
715.606	-0.0038
715.857	-0.0029
716.108	-0.0043
716.359	-0.0043
716.609	-0.0046
716.86	-0.0039
717.111	-0.0023
717.361	-0.0012
717.612	-0.0008
717.863	0
718.113	0.0008
718.363	-0.0002
718.614	0.0004
718.864	0.0007
719.114	-0.0004
719.364	0
719.614	0.0004
719.865	0.0001
720.114	0.0014
720.364	0.0017
720.614	0.0021
720.864	0.0015
721.114	0.0013
721.364	0.0003
721.613	0.001
721.863	0.0007
722.112	-0.0002
722.362	-0.0004
722.611	-0.0014
722.86	-0.0019
723.11	-0.0012
723.359	-0.0021
723.608	-0.0019
723.857	-0.0018
724.106	-0.0013
724.355	-0.0011
724.604	-0.001
724.853	-0.0013
725.102	-0.0035
725.351	-0.0021
725.599	-0.0041
725.848	-0.0037
726.097	-0.0033
726.345	-0.0032
726.594	-0.0047
726.842	-0.0038
727.09	-0.0043
727.339	-0.0058
727.587	-0.0056
727.835	-0.0054
728.083	-0.0046
728.331	-0.0049
728.579	-0.004
728.827	-0.0034
729.075	-0.0036
729.323	-0.0034
729.571	-0.0041
729.818	-0.0035
730.066	-0.0032
730.314	-0.0026
730.561	-0.0017
730.809	-0.0017
731.056	-0.0018
731.303	-0.0013
731.551	-0.002
731.798	-0.0011
732.045	-0.0019
732.292	-0.0003
732.539	0.0005
732.786	0.0015
733.033	0.0004
733.28	0.0004
733.527	0.0007
733.774	0
734.021	-0.0019
734.267	-0.0028
734.514	-0.0032
734.76	-0.0037
735.007	-0.0041
735.253	-0.0038
735.5	-0.0034
735.746	-0.003
735.992	-0.0031
736.238	-0.003
736.485	-0.0026
736.731	-0.0028
736.977	-0.0029
737.223	-0.0034
737.469	-0.0029
737.715	-0.0028
737.96	-0.0027
738.206	-0.0034
738.452	-0.0026
738.697	-0.0029
738.943	-0.0022
739.189	-0.002
739.434	-0.0022
739.679	-0.0035
739.925	-0.0045
740.17	-0.005
740.415	-0.0058
740.66	-0.0065
740.906	-0.0065
741.151	-0.006
741.396	-0.0061
741.641	-0.007
741.886	-0.0065
742.13	-0.0046
742.375	-0.0039
742.62	-0.004
742.865	-0.0036
743.109	-0.0023
743.354	-0.0011
743.598	-0.0005
743.843	-0.0003
744.087	0.0005
744.331	0.0011
744.576	0.0015
744.82	0.0021
745.064	0.0024
745.308	0.0023
745.552	0.0011
745.796	-0.0003
746.04	0.0002
746.284	0.0001
746.528	0.0008
746.771	0.0019
747.015	0.0019
747.259	0.0009
747.502	-0.0005
747.746	-0.0008
747.989	-0.0003
748.233	-0.0008
748.476	0.0007
748.719	0.0011
748.963	0.0021
749.206	0.0021
749.449	0.0007
749.692	-0.0002
749.935	0.0008
750.178	-0.0012
750.421	-0.0013
750.664	-0.0019
750.906	-0.0008
751.149	-0.0006
751.392	-0.0009
751.635	-0.0014
751.877	-0.0015
752.12	-0.002
752.362	-0.0017
752.604	-0.002
752.847	-0.0002
753.089	0.0007
753.331	0.0002
753.573	0.0003
753.816	-0.0013
754.058	-0.0021
754.3	-0.0036
754.542	-0.0025
754.783	-0.003
755.025	-0.0019
755.267	-0.0011
755.509	-0.0018
755.75	-0.0027
755.992	-0.0023
756.234	-0.003
756.475	-0.0032
756.716	-0.0029
756.958	-0.0026
757.199	-0.0032
757.44	-0.0025
757.682	-0.0025
757.923	-0.0018
758.164	-0.0016
758.405	-0.0021
758.646	-0.0006
758.887	-0
759.128	-0.0005
759.369	-0.0001
759.609	0.0004
759.85	-0.0004
760.091	-0
760.331	0
760.572	-0.0005
760.812	-0.0011
761.053	-0.0017
761.293	-0.001
761.533	-0.0007
761.774	0.0001
762.014	-0.0005
762.254	-0.0013
762.494	-0.0022
762.734	-0.0024
762.974	-0.0029
763.214	-0.0029
763.454	-0.0028
763.694	-0.0025
763.933	-0.0034
764.173	-0.0048
764.413	-0.0056
764.652	-0.0055
764.892	-0.0051
765.131	-0.0049
765.371	-0.0047
765.61	-0.0043
765.849	-0.0039
766.089	-0.0035
766.328	-0.0037
766.567	-0.0038
766.806	-0.0035
767.045	-0.0032
767.284	-0.0033
767.523	-0.0031
767.762	-0.0037
768.001	-0.0026
768.239	-0.0028
768.478	-0.0022
768.717	-0.0016
768.955	-0.0019
769.194	-0.0013
769.432	-0.0006
769.671	0.0004
769.909	-0.0001
770.148	-0.0001
770.386	0.0001
770.624	0.0008
770.862	-0.0002
771.1	0.0004
771.338	0.0002
771.576	-0.0009
771.814	-0.0004
772.052	-0
772.29	0.0007
772.528	0.0022
772.765	0.0033
773.003	0.0032
773.24	0.0027
773.478	0.0012
773.716	0.001
773.953	0.0008
774.19	0.0007
774.428	0.0016
774.665	0.0018
774.902	0.0023
775.139	0.0022
775.376	0.0016
775.613	0.0019
775.85	0.0007
776.087	0.0005
776.324	0.0002
776.561	0.0005
776.798	-0.0005
777.034	-0.0003
777.271	0.0009
777.508	0.0008
777.744	0.0016
777.981	0.0025
778.217	0.0018
778.454	0.0009
778.69	-0.0003
778.926	-0.0018
779.162	-0.0017
779.399	-0.0012
779.635	-0.0023
779.871	-0.0024
780.107	-0.0023
780.343	-0.0026
780.579	-0.0022
780.814	-0.0024
781.05	-0.0015
781.286	-0.0029
781.522	-0.0026
781.757	-0.0026
781.993	-0.0022
782.228	-0.0032
782.464	-0.0026
782.699	-0.0032
782.934	-0.0032
783.17	-0.0032
783.405	-0.0027
783.64	-0.0034
783.875	-0.0045
784.11	-0.0045
784.345	-0.0032
784.58	-0.003
784.815	-0.0023
785.05	-0.0033
785.285	-0.004
785.52	-0.0038
785.754	-0.0049
785.989	-0.0056
786.223	-0.0069
786.458	-0.0065
786.692	-0.0061
786.927	-0.0058
787.161	-0.0036
787.396	-0.005
787.63	-0.005
787.864	-0.0056
788.098	-0.0059
788.332	-0.0048
788.566	-0.0037
788.8	-0.0042
789.034	-0.0028
789.268	-0.0033
789.502	-0.0028
789.736	-0.0038
789.969	-0.004
790.203	-0.0038
790.437	-0.0051
790.67	-0.0067
790.904	-0.0066
791.137	-0.0071
791.37	-0.0073
791.604	-0.0079
791.837	-0.008
792.07	-0.0065
792.303	-0.0072
792.537	-0.0069
792.77	-0.0063
793.003	-0.0061
793.236	-0.0055
793.469	-0.0063
793.701	-0.0048
793.934	-0.0046
794.167	-0.0031
794.4	-0.0031
794.632	-0.0027
794.865	-0.0028
795.097	-0.0013
795.33	-0.0032
795.562	-0.0027
795.795	-0.0017
796.027	-0.0009
796.259	-0.0011
796.491	-0.0006
796.724	-0.0009
796.956	-0
797.188	-0.0002
797.42	-0.0009
797.652	-0.0012
797.883	-0.0009
798.115	0
798.347	-0.0014
798.579	0.0009
798.81	0.0017
799.042	0.0015
799.274	0.0004
799.505	0.0002
799.737	-0.0002
799.968	-0.0008
800.199	-0.0013
800.431	-0.0022
800.662	-0.0022
800.893	-0.0022
801.124	-0.0032
801.355	-0.0025
801.586	-0.0027
801.817	-0.0035
802.048	-0.0046
802.279	-0.0045
802.51	-0.004
802.741	-0.0019
802.971	-0.0009
803.202	-0.0003
803.433	-0.0002
803.663	-0.0016
803.894	-0.002
804.124	-0.0029
804.354	-0.0019
804.585	-0.0023
804.815	-0.0018
805.045	-0.0024
805.275	-0.0014
805.506	-0.0513
805.736	-0.0201
805.966	0.0494
806.196	0.1043
