Data from 03 0.5 mM K2Cr2O7 0.3 mM BQDS 1 M H2SO4 5 min_Absorbance_0016.txt Node
Date: Mon Dec 13 18:59:44 EST 2021
User: kwabilab-user
Spectrometer: HDX00518
Trigger mode: 0
Integration Time (sec): 5.000000E-2
Scans to average: 50
Nonlinearity correction enabled: false
Boxcar width: 0
Storing dark spectrum: false
XAxis mode: Wavelengths
Number of Pixels in Spectrum: 2068
>>>>>Begin Spectral Data<<<<<
195.27	0.0197
195.642	0.0126
196.014	0.1724
196.386	0.4814
196.758	-0.0164
197.129	0.0026
197.501	-0.0002
197.872	0.0193
198.244	0.0591
198.615	0.0661
198.986	0.0607
199.357	0.0637
199.728	0.0401
200.099	0.0534
200.47	0.0621
200.841	0.069
201.212	0.057
201.582	0.0659
201.953	0.0628
202.323	0.0702
202.694	0.0501
203.064	0.0559
203.434	0.0644
203.804	0.0347
204.174	0.0649
204.544	0.0689
204.914	0.0393
205.284	0.065
205.653	0.0495
206.023	0.058
206.393	0.0309
206.762	0.0513
207.131	0.0857
207.501	0.0564
207.87	0.0627
208.239	0.0631
208.608	0.0536
208.977	0.0445
209.346	0.0468
209.715	0.06
210.083	0.0498
210.452	0.0702
210.82	0.0731
211.189	0.0266
211.557	0.0601
211.925	0.0447
212.294	0.0465
212.662	0.0546
213.03	0.0435
213.398	0.087
213.766	0.0712
214.133	0.0768
214.501	0.0537
214.869	0.0501
215.236	0.0589
215.604	0.0678
215.971	0.0815
216.338	0.1021
216.705	0.0931
217.072	0.1185
217.439	0.0781
217.806	0.0897
218.173	0.0816
218.54	0.0906
218.907	0.0861
219.273	0.1172
219.64	0.0959
220.006	0.1241
220.373	0.1157
220.739	0.1376
221.105	0.1586
221.471	0.1895
221.837	0.1854
222.203	0.1936
222.569	0.2136
222.935	0.2527
223.3	0.2548
223.666	0.2776
224.031	0.3118
224.397	0.3125
224.762	0.3293
225.127	0.3747
225.493	0.3861
225.858	0.4069
226.223	0.4549
226.588	0.4568
226.952	0.4767
227.317	0.5015
227.682	0.5242
228.046	0.5157
228.411	0.5395
228.775	0.573
229.14	0.5924
229.504	0.5939
229.868	0.6039
230.232	0.6306
230.596	0.6349
230.96	0.6696
231.324	0.672
231.688	0.6869
232.052	0.7015
232.415	0.7101
232.779	0.726
233.142	0.7236
233.505	0.7275
233.869	0.7374
234.232	0.7318
234.595	0.7201
234.958	0.7481
235.321	0.7539
235.684	0.7595
236.047	0.7557
236.409	0.7427
236.772	0.7628
237.134	0.7524
237.497	0.7673
237.859	0.7785
238.222	0.7643
238.584	0.7632
238.946	0.7679
239.308	0.7488
239.67	0.7631
240.032	0.7538
240.393	0.7624
240.755	0.7559
241.117	0.7691
241.478	0.7521
241.84	0.7614
242.201	0.7546
242.562	0.7415
242.924	0.7519
243.285	0.7483
243.646	0.7533
244.007	0.7493
244.368	0.7459
244.728	0.7528
245.089	0.7519
245.45	0.7484
245.81	0.7471
246.171	0.7569
246.531	0.7517
246.891	0.7399
247.252	0.7311
247.612	0.7473
247.972	0.7558
248.332	0.7534
248.692	0.7408
249.051	0.7496
249.411	0.7541
249.771	0.7426
250.13	0.7469
250.49	0.7378
250.849	0.7469
251.208	0.7459
251.568	0.7463
251.927	0.7478
252.286	0.7565
252.645	0.7438
253.004	0.744
253.363	0.7496
253.721	0.7586
254.08	0.7459
254.439	0.7338
254.797	0.7512
255.155	0.7413
255.514	0.7405
255.872	0.753
256.23	0.7416
256.588	0.7485
256.946	0.7527
257.304	0.7548
257.662	0.7523
258.02	0.7491
258.377	0.7556
258.735	0.7392
259.093	0.7384
259.45	0.7418
259.807	0.7448
260.165	0.7471
260.522	0.7504
260.879	0.7462
261.236	0.7436
261.593	0.7377
261.95	0.7417
262.306	0.7366
262.663	0.7259
263.02	0.7345
263.376	0.7354
263.733	0.7348
264.089	0.7271
264.445	0.7292
264.802	0.74
265.158	0.7275
265.514	0.7227
265.87	0.718
266.226	0.7237
266.581	0.7256
266.937	0.7167
267.293	0.7155
267.648	0.7125
268.004	0.7108
268.359	0.7104
268.714	0.7032
269.07	0.7061
269.425	0.6972
269.78	0.6935
270.135	0.6944
270.49	0.6941
270.844	0.6947
271.199	0.6909
271.554	0.6842
271.908	0.6722
272.263	0.6816
272.617	0.6747
272.972	0.6757
273.326	0.6616
273.68	0.6619
274.034	0.6591
274.388	0.6567
274.742	0.6586
275.096	0.6541
275.45	0.6433
275.803	0.6432
276.157	0.6391
276.51	0.637
276.864	0.631
277.217	0.6271
277.571	0.6248
277.924	0.6189
278.277	0.6182
278.63	0.6112
278.983	0.6005
279.336	0.6015
279.688	0.5958
280.041	0.5905
280.394	0.5863
280.746	0.5819
281.099	0.575
281.451	0.5753
281.803	0.5627
282.156	0.559
282.508	0.5554
282.86	0.5517
283.212	0.5425
283.564	0.5416
283.916	0.5368
284.267	0.528
284.619	0.5232
284.971	0.5212
285.322	0.515
285.673	0.5103
286.025	0.5036
286.376	0.4976
286.727	0.4951
287.078	0.4887
287.429	0.484
287.78	0.4794
288.131	0.4735
288.482	0.4674
288.833	0.4592
289.183	0.4551
289.534	0.4496
289.884	0.445
290.235	0.4392
290.585	0.4338
290.935	0.4272
291.285	0.4214
291.635	0.4168
291.985	0.4121
292.335	0.4063
292.685	0.4035
293.035	0.3977
293.384	0.3899
293.734	0.3856
294.083	0.3804
294.433	0.3749
294.782	0.3681
295.131	0.3645
295.48	0.358
295.829	0.3533
296.179	0.3499
296.527	0.3448
296.876	0.3398
297.225	0.3341
297.574	0.3286
297.922	0.3254
298.271	0.3198
298.619	0.3161
298.968	0.3125
299.316	0.3066
299.664	0.3022
300.012	0.299
300.36	0.2936
300.708	0.2896
301.056	0.2855
301.404	0.2817
301.752	0.2785
302.099	0.2745
302.447	0.2705
302.794	0.2682
303.142	0.2652
303.489	0.26
303.836	0.2585
304.183	0.2554
304.531	0.2522
304.878	0.2491
305.224	0.246
305.571	0.2431
305.918	0.241
306.265	0.2395
306.611	0.2359
306.958	0.2348
307.304	0.2314
307.651	0.2305
307.997	0.2289
308.343	0.2272
308.689	0.2254
309.035	0.223
309.381	0.222
309.727	0.2205
310.073	0.2195
310.419	0.2181
310.764	0.2164
311.11	0.216
311.455	0.2155
311.801	0.2147
312.146	0.2132
312.491	0.2127
312.837	0.2126
313.182	0.2114
313.527	0.2113
313.872	0.2103
314.216	0.21
314.561	0.2108
314.906	0.2103
315.251	0.2101
315.595	0.2107
315.94	0.211
316.284	0.2112
316.628	0.2113
316.972	0.2119
317.317	0.2124
317.661	0.2117
318.005	0.2127
318.348	0.2132
318.692	0.2148
319.036	0.2145
319.38	0.2155
319.723	0.2171
320.067	0.2174
320.41	0.219
320.754	0.2201
321.097	0.2216
321.44	0.2215
321.783	0.2224
322.126	0.2247
322.469	0.2256
322.812	0.2266
323.155	0.2286
323.498	0.2302
323.84	0.2312
324.183	0.2325
324.525	0.2344
324.868	0.2369
325.21	0.2372
325.552	0.2399
325.894	0.241
326.236	0.2428
326.578	0.2438
326.92	0.2458
327.262	0.2473
327.604	0.2491
327.946	0.2507
328.287	0.2527
328.629	0.2556
328.97	0.2568
329.312	0.2583
329.653	0.2592
329.994	0.2617
330.335	0.2635
330.676	0.2664
331.017	0.2679
331.358	0.2703
331.699	0.2719
332.04	0.2734
332.38	0.2753
332.721	0.2774
333.061	0.2796
333.402	0.2814
333.742	0.2839
334.083	0.2854
334.423	0.287
334.763	0.2887
335.103	0.2901
335.443	0.291
335.783	0.2935
336.123	0.2953
336.462	0.297
336.802	0.2984
337.141	0.2999
337.481	0.3015
337.82	0.3034
338.16	0.3038
338.499	0.3061
338.838	0.3071
339.177	0.3096
339.516	0.3101
339.855	0.3127
340.194	0.3135
340.533	0.3146
340.872	0.3164
341.21	0.3172
341.549	0.3177
341.887	0.3194
342.226	0.32
342.564	0.3211
342.902	0.3217
343.24	0.323
343.578	0.3227
343.916	0.3238
344.254	0.3243
344.592	0.3241
344.93	0.3258
345.268	0.3248
345.605	0.3253
345.943	0.3257
346.28	0.3264
346.618	0.3264
346.955	0.3266
347.292	0.3267
347.629	0.3269
347.966	0.3272
348.303	0.327
348.64	0.328
348.977	0.3274
349.314	0.3279
349.65	0.3273
349.987	0.3278
350.324	0.3285
350.66	0.3271
350.996	0.3262
351.333	0.3253
351.669	0.3263
352.005	0.3247
352.341	0.3238
352.677	0.3226
353.013	0.3212
353.349	0.3206
353.685	0.3187
354.02	0.3176
354.356	0.3158
354.691	0.3146
355.027	0.3135
355.362	0.3129
355.697	0.3123
356.033	0.3106
356.368	0.3093
356.703	0.3081
357.038	0.3071
357.373	0.3047
357.707	0.3046
358.042	0.3027
358.377	0.3022
358.711	0.3001
359.046	0.2995
359.38	0.2983
359.715	0.2972
360.049	0.2951
360.383	0.2937
360.717	0.2923
361.051	0.2907
361.385	0.2886
361.719	0.2859
362.053	0.2842
362.387	0.2818
362.72	0.2794
363.054	0.2769
363.387	0.276
363.721	0.2735
364.054	0.2702
364.387	0.2686
364.721	0.2663
365.054	0.264
365.387	0.2616
365.72	0.2596
366.053	0.2582
366.385	0.256
366.718	0.2532
367.051	0.2518
367.383	0.2503
367.716	0.2485
368.048	0.2467
368.381	0.2443
368.713	0.2432
369.045	0.2417
369.377	0.24
369.709	0.2378
370.041	0.2366
370.373	0.235
370.705	0.2323
371.037	0.2303
371.368	0.2283
371.7	0.2272
372.031	0.2247
372.363	0.2218
372.694	0.2191
373.025	0.216
373.356	0.2139
373.688	0.2118
374.019	0.2093
374.35	0.2067
374.68	0.2043
375.011	0.2013
375.342	0.1986
375.673	0.1972
376.003	0.1935
376.334	0.192
376.664	0.1891
376.995	0.1876
377.325	0.1847
377.655	0.1833
377.985	0.1811
378.315	0.179
378.645	0.178
378.975	0.1764
379.305	0.1745
379.635	0.1725
379.964	0.1718
380.294	0.1693
380.623	0.1683
380.953	0.1661
381.282	0.1639
381.611	0.1617
381.941	0.1603
382.27	0.1587
382.599	0.1565
382.928	0.1548
383.257	0.1536
383.585	0.151
383.914	0.1496
384.243	0.1469
384.571	0.145
384.9	0.1424
385.228	0.141
385.557	0.1382
385.885	0.136
386.213	0.1337
386.541	0.1323
386.869	0.1302
387.197	0.128
387.525	0.1262
387.853	0.1235
388.181	0.1226
388.508	0.1198
388.836	0.1184
389.164	0.1161
389.491	0.1159
389.818	0.1133
390.146	0.112
390.473	0.1108
390.8	0.1085
391.127	0.1068
391.454	0.1056
391.781	0.1043
392.108	0.1036
392.435	0.1017
392.761	0.0997
393.088	0.0993
393.415	0.0982
393.741	0.0972
394.067	0.0955
394.394	0.0947
394.72	0.0936
395.046	0.0921
395.372	0.0913
395.698	0.0907
396.024	0.0886
396.35	0.0877
396.676	0.0866
397.001	0.0853
397.327	0.0843
397.653	0.083
397.978	0.0812
398.303	0.0804
398.629	0.0784
398.954	0.077
399.279	0.0773
399.604	0.0757
399.929	0.0749
400.254	0.0742
400.579	0.0733
400.904	0.0722
401.229	0.0711
401.553	0.071
401.878	0.0701
402.202	0.0684
402.527	0.0679
402.851	0.0677
403.175	0.0671
403.5	0.0663
403.824	0.0658
404.148	0.0653
404.472	0.0642
404.796	0.0639
405.119	0.0635
405.443	0.063
405.767	0.062
406.09	0.0619
406.414	0.0618
406.737	0.0612
407.061	0.0611
407.384	0.0603
407.707	0.06
408.03	0.0594
408.353	0.0603
408.676	0.0591
408.999	0.0585
409.322	0.0589
409.645	0.0582
409.968	0.0579
410.29	0.0577
410.613	0.058
410.935	0.0581
411.258	0.0575
411.58	0.0573
411.902	0.0571
412.224	0.056
412.546	0.0567
412.868	0.056
413.19	0.0559
413.512	0.0561
413.834	0.0554
414.156	0.0555
414.477	0.0564
414.799	0.0551
415.121	0.056
415.442	0.0553
415.763	0.0551
416.085	0.055
416.406	0.0549
416.727	0.0554
417.048	0.0543
417.369	0.0547
417.69	0.0545
418.011	0.0541
418.331	0.0547
418.652	0.0549
418.973	0.0551
419.293	0.055
419.614	0.0558
419.934	0.0557
420.254	0.0544
420.574	0.0546
420.895	0.0548
421.215	0.0543
421.535	0.0546
421.855	0.0538
422.174	0.0549
422.494	0.0538
422.814	0.0543
423.134	0.054
423.453	0.0545
423.773	0.054
424.092	0.0546
424.411	0.0539
424.731	0.0539
425.05	0.0539
425.369	0.0537
425.688	0.0542
426.007	0.0537
426.326	0.054
426.644	0.0543
426.963	0.0549
427.282	0.0539
427.6	0.0543
427.919	0.0532
428.237	0.0539
428.556	0.0536
428.874	0.0544
429.192	0.0542
429.51	0.0552
429.828	0.0541
430.146	0.0547
430.464	0.0536
430.782	0.0538
431.1	0.0543
431.418	0.054
431.735	0.0539
432.053	0.0546
432.37	0.0543
432.688	0.0535
433.005	0.0535
433.322	0.0542
433.639	0.0535
433.957	0.0542
434.274	0.0532
434.591	0.0539
434.907	0.0537
435.224	0.0541
435.541	0.0544
435.858	0.0542
436.174	0.0544
436.491	0.0535
436.807	0.053
437.124	0.0533
437.44	0.0544
437.756	0.0531
438.072	0.0534
438.388	0.0538
438.704	0.0536
439.02	0.0539
439.336	0.0529
439.652	0.0525
439.968	0.0522
440.283	0.0514
440.599	0.0522
440.914	0.0527
441.23	0.0535
441.545	0.053
441.86	0.0524
442.175	0.052
442.491	0.0529
442.806	0.0521
443.121	0.0519
443.435	0.0517
443.75	0.052
444.065	0.052
444.38	0.0525
444.694	0.0527
445.009	0.0518
445.323	0.0513
445.638	0.051
445.952	0.0517
446.266	0.0514
446.58	0.0516
446.894	0.0513
447.208	0.0515
447.522	0.0508
447.836	0.0512
448.15	0.0505
448.464	0.0513
448.777	0.0506
449.091	0.0503
449.404	0.0507
449.718	0.05
450.031	0.0496
450.345	0.05
450.658	0.0494
450.971	0.0499
451.284	0.0501
451.597	0.0488
451.91	0.0491
452.223	0.0495
452.535	0.0488
452.848	0.0489
453.161	0.0478
453.473	0.0483
453.786	0.0478
454.098	0.0473
454.411	0.0486
454.723	0.0476
455.035	0.0471
455.347	0.047
455.659	0.0472
455.971	0.0472
456.283	0.0468
456.595	0.0464
456.907	0.0465
457.218	0.0459
457.53	0.0462
457.841	0.0456
458.153	0.0452
458.464	0.0449
458.776	0.0456
459.087	0.0449
459.398	0.0452
459.709	0.0443
460.02	0.0443
460.331	0.0436
460.642	0.0445
460.953	0.0434
461.263	0.043
461.574	0.0431
461.885	0.0426
462.195	0.0427
462.506	0.0426
462.816	0.0421
463.126	0.0418
463.437	0.0414
463.747	0.0412
464.057	0.0408
464.367	0.041
464.677	0.0406
464.987	0.0398
465.296	0.0408
465.606	0.0389
465.916	0.0398
466.225	0.0401
466.535	0.0393
466.844	0.0394
467.154	0.0392
467.463	0.0383
467.772	0.0382
468.081	0.0382
468.39	0.0374
468.699	0.038
469.008	0.0369
469.317	0.0367
469.626	0.0356
469.935	0.0357
470.243	0.0365
470.552	0.036
470.86	0.0356
471.169	0.0353
471.477	0.0352
471.785	0.0354
472.093	0.0348
472.402	0.0345
472.71	0.0344
473.018	0.0331
473.326	0.0334
473.633	0.034
473.941	0.0335
474.249	0.0324
474.556	0.0332
474.864	0.0328
475.171	0.0319
475.479	0.0316
475.786	0.0307
476.094	0.0316
476.401	0.0314
476.708	0.0315
477.015	0.0315
477.322	0.031
477.629	0.0303
477.936	0.0304
478.242	0.0293
478.549	0.029
478.856	0.0295
479.162	0.0282
479.469	0.0285
479.775	0.0293
480.081	0.0279
480.388	0.0275
480.694	0.0276
481	0.0276
481.306	0.0269
481.612	0.0271
481.918	0.027
482.224	0.0275
482.53	0.0266
482.835	0.0259
483.141	0.0264
483.446	0.0259
483.752	0.0259
484.057	0.0253
484.363	0.0244
484.668	0.0245
484.973	0.0238
485.278	0.024
485.583	0.0244
485.888	0.0234
486.193	0.0225
486.498	0.0226
486.803	0.0222
487.107	0.0223
487.412	0.0218
487.717	0.0219
488.021	0.0214
488.325	0.0227
488.63	0.0223
488.934	0.0219
489.238	0.0219
489.542	0.0202
489.846	0.0204
490.15	0.0209
490.454	0.0197
490.758	0.0195
491.062	0.0191
491.366	0.0194
491.669	0.02
491.973	0.0192
492.276	0.0187
492.58	0.0185
492.883	0.0176
493.186	0.0183
493.489	0.0171
493.792	0.0164
494.096	0.0172
494.399	0.0163
494.701	0.0177
495.004	0.0153
495.307	0.0164
495.61	0.0156
495.912	0.0165
496.215	0.0144
496.517	0.015
496.82	0.0155
497.122	0.0148
497.424	0.0152
497.727	0.0144
498.029	0.0134
498.331	0.0139
498.633	0.0142
498.935	0.0139
499.237	0.0127
499.538	0.0128
499.84	0.0132
500.142	0.0131
500.443	0.0118
500.745	0.0115
501.046	0.0119
501.348	0.0113
501.649	0.0114
501.95	0.0109
502.251	0.0114
502.552	0.0109
502.853	0.0104
503.154	0.0106
503.455	0.0107
503.756	0.0106
504.057	0.0106
504.357	0.0094
504.658	0.01
504.958	0.0106
505.259	0.0104
505.559	0.0093
505.859	0.0095
506.16	0.0089
506.46	0.0094
506.76	0.0102
507.06	0.0084
507.36	0.0085
507.66	0.0077
507.96	0.0096
508.259	0.0082
508.559	0.0092
508.859	0.0081
509.158	0.008
509.457	0.0076
509.757	0.0079
510.056	0.0081
510.355	0.0083
510.655	0.0063
510.954	0.0072
511.253	0.0072
511.552	0.0072
511.851	0.0064
512.149	0.0062
512.448	0.0066
512.747	0.0072
513.045	0.0059
513.344	0.0057
513.642	0.0059
513.941	0.0065
514.239	0.0056
514.537	0.0049
514.836	0.0054
515.134	0.0043
515.432	0.0064
515.73	0.0052
516.028	0.005
516.326	0.0056
516.623	0.006
516.921	0.0036
517.219	0.0041
517.516	0.0036
517.814	0.0043
518.111	0.005
518.409	0.0037
518.706	0.0034
519.003	0.0043
519.3	0.0034
519.597	0.003
519.894	0.0044
520.191	0.0034
520.488	0.0038
520.785	0.0027
521.082	0.0029
521.378	0.0016
521.675	0.0025
521.971	0.0027
522.268	0.003
522.564	0.0029
522.861	0.0037
523.157	0.004
523.453	0.0043
523.749	0.0026
524.045	0.0025
524.341	0.0024
524.637	0.0019
524.933	0.0022
525.229	0.0023
525.524	0.0006
525.82	0.0015
526.115	0.0015
526.411	0.0013
526.706	0.001
527.002	0.0033
527.297	0.0003
527.592	0.0022
527.887	0.0028
528.182	0.0022
528.477	0.0024
528.772	0.0028
529.067	0.0019
529.362	0.0017
529.657	0.0018
529.951	0.0011
530.246	0.0001
530.54	0.002
530.835	0.0014
531.129	0.0011
531.423	0.0009
531.718	0.0018
532.012	0.0016
532.306	0.0011
532.6	-0.0001
532.894	0.001
533.188	0.0013
533.482	0.0009
533.775	0.0012
534.069	-0.0004
534.363	-0.0006
534.656	-0.001
534.95	0.0006
535.243	0.0002
535.536	-0.0001
535.83	-0.0006
536.123	0.0002
536.416	-0.0004
536.709	0.0005
537.002	-0.0004
537.295	-0.0012
537.588	-0.0004
537.881	-0.0004
538.173	-0.0013
538.466	-0.0005
538.759	0.0001
539.051	0.001
539.344	0.0002
539.636	-0.0008
539.928	0.0013
540.22	0.0007
540.513	0.0001
540.805	-0
541.097	-0.0008
541.389	-0.0002
541.681	-0.0003
541.972	0.0013
542.264	0.0015
542.556	0.0013
542.847	0.0007
543.139	0.0008
543.431	-0.0003
543.722	0.0008
544.013	0.0009
544.305	-0.0003
544.596	-0.0006
544.887	0.0009
545.178	0.0011
545.469	-0.0008
545.76	0.0007
546.051	0.0003
546.342	0.0001
546.632	0.0001
546.923	-0.0001
547.214	-0.0006
547.504	-0.002
547.795	-0.0012
548.085	-0.0009
548.375	-0.0006
548.666	-0.0008
548.956	-0.0004
549.246	-0.0009
549.536	-0.0006
549.826	0.0004
550.116	-0.0009
550.406	-0.0018
550.695	-0.0029
550.985	0.0001
551.275	-0.0005
551.564	-0.001
551.854	0
552.143	-0.0023
552.433	-0.0015
552.722	-0.0019
553.011	-0.0002
553.3	-0.0004
553.589	-0.0008
553.879	-0.0001
554.167	-0.0009
554.456	0.0009
554.745	0.0001
555.034	-0.0014
555.323	0.0003
555.611	-0.0002
555.9	0.0001
556.188	-0.0013
556.477	-0.0002
556.765	-0.0011
557.053	-0.0009
557.342	-0.0005
557.63	-0.0011
557.918	-0.0001
558.206	0.0005
558.494	0.0002
558.782	-0.0006
559.069	0.0002
559.357	0.0005
559.645	-0.0005
559.932	-0.0005
560.22	-0.0004
560.507	-0.0009
560.795	-0.0013
561.082	-0.0019
561.37	-0.0007
561.657	-0.0006
561.944	-0.0004
562.231	-0.0005
562.518	-0.0005
562.805	-0.0009
563.092	-0.0006
563.379	0
563.665	0.0003
563.952	-0.0004
564.239	0.0002
564.525	-0.001
564.811	0.0012
565.098	-0.0008
565.384	-0.0002
565.67	0.0007
565.957	0.0014
566.243	0.0016
566.529	0.0001
566.815	-0.0003
567.101	0.0021
567.387	-0.0001
567.672	-0.0002
567.958	0.0011
568.244	-0.0001
568.529	0.0011
568.815	-0.0001
569.1	-0.0008
569.386	-0.0018
569.671	0.0007
569.956	-0.0001
570.242	-0.0006
570.527	-0.0002
570.812	0
571.097	0.0001
571.382	-0.0002
571.666	0.001
571.951	0.0001
572.236	0.0002
572.521	0.0005
572.805	0.0002
573.09	-0.0005
573.374	-0.0012
573.659	0.0004
573.943	0.0001
574.227	-0.0005
574.511	-0.0008
574.795	-0.0002
575.079	0.0003
575.363	-0.0003
575.647	-0.0002
575.931	0.0003
576.215	-0.001
576.499	-0.0008
576.782	-0.0014
577.066	-0.0011
577.349	-0.0001
577.633	-0.0007
577.916	-0.0011
578.2	-0.0005
578.483	-0.0006
578.766	0.0003
579.049	-0.0002
579.332	0.0004
579.615	-0.0001
579.898	-0.0001
580.181	0.0011
580.464	0.001
580.746	0.0004
581.029	-0.0005
581.312	-0.001
581.594	-0.001
581.877	-0.0005
582.159	-0.0003
582.441	-0.0013
582.724	-0.0004
583.006	0.0007
583.288	-0.0001
583.57	0.0004
583.852	0.0003
584.134	-0.0007
584.416	-0.0003
584.697	0
584.979	-0.0015
585.261	-0.0014
585.542	-0.0006
585.824	-0.0007
586.105	-0.001
586.387	-0.0006
586.668	-0.0002
586.949	-0.0006
587.231	-0.0002
587.512	-0.0002
587.793	0.0001
588.074	-0.0004
588.355	0.0003
588.636	-0.0002
588.916	-0.0007
589.197	0.0002
589.478	-0.0008
589.758	-0.0004
590.039	0.0002
590.319	0.0004
590.6	0.0006
590.88	0.0002
591.16	0.0002
591.441	0.0004
591.721	-0.0007
592.001	-0.0002
592.281	-0
592.561	0.0002
592.841	-0.0007
593.12	-0.0008
593.4	-0.0007
593.68	-0.0015
593.959	-0.0012
594.239	-0.0007
594.518	-0.0012
594.798	-0.0007
595.077	-0.0015
595.356	-0.001
595.636	-0.0009
595.915	0.0003
596.194	-0.0005
596.473	-0.0007
596.752	-0.0005
597.031	0.0002
597.31	-0.0003
597.588	-0.0006
597.867	-0.0007
598.146	-0.0006
598.424	-0.0008
598.703	-0.0001
598.981	-0.0013
599.259	-0.0015
599.538	-0.0007
599.816	-0
600.094	-0.0002
600.372	-0.0017
600.65	-0.0011
600.928	-0.0009
601.206	-0.0006
601.484	-0.0004
601.762	-0.0002
602.04	-0.0002
602.317	-0.0006
602.595	-0.0002
602.872	0.0002
603.15	0.0007
603.427	-0.0016
603.704	-0.0014
603.982	-0.0008
604.259	-0.0012
604.536	0.0001
604.813	-0.0002
605.09	-0.0012
605.367	-0.0016
605.644	-0.0018
605.921	-0.001
606.197	-0.0016
606.474	-0.0007
606.751	-0.0008
607.027	-0.0014
607.304	-0.0012
607.58	-0.0011
607.856	-0.0013
608.133	-0.0006
608.409	-0.0008
608.685	-0.0013
608.961	-0.0012
609.237	-0.0008
609.513	-0.001
609.789	-0.0009
610.065	-0.0013
610.341	-0.0007
610.616	0.0001
610.892	0.0003
611.167	0.0012
611.443	0.0001
611.718	-0.0001
611.994	-0.0003
612.269	-0.0005
612.544	-0.0005
612.819	-0.0011
613.095	-0.0009
613.37	0.0002
613.645	-0.0006
613.919	-0.0009
614.194	-0.0006
614.469	0.0002
614.744	-0.0003
615.019	-0.001
615.293	-0.0013
615.568	-0.0017
615.842	0.0003
616.116	0.0003
616.391	0.0007
616.665	0.0011
616.939	0.0004
617.213	0.0006
617.488	-0.0003
617.762	-0.0011
618.035	-0.0007
618.309	-0.0011
618.583	0.0002
618.857	0.0007
619.131	0.0006
619.404	-0.0004
619.678	0.0001
619.951	-0.0005
620.225	-0.0004
620.498	-0.0003
620.771	-0
621.045	-0.0007
621.318	-0.0016
621.591	-0.002
621.864	-0.0021
622.137	-0.0016
622.41	-0.0014
622.683	-0.0014
622.956	-0.0007
623.228	-0.0008
623.501	-0.0003
623.774	-0.0001
624.046	-0.0013
624.319	-0.0015
624.591	-0.0018
624.863	-0.0012
625.136	-0.0001
625.408	0.0002
625.68	-0.0003
625.952	0.0006
626.224	0.0008
626.496	0.0001
626.768	-0.0002
627.04	-0.0013
627.311	-0.001
627.583	-0.0002
627.855	0.0017
628.126	0.0011
628.398	0.0014
628.669	0.0009
628.941	0.0011
629.212	0.0009
629.483	0.0009
629.755	-0.0002
630.026	-0.0004
630.297	-0.0005
630.568	0
630.839	0.0001
631.11	0.0006
631.38	0.001
631.651	0.0005
631.922	0.0002
632.192	0
632.463	-0.0009
632.733	-0.0011
633.004	-0.0006
633.274	0.0002
633.545	0.001
633.815	-0.0003
634.085	-0.0012
634.355	-0.0023
634.625	-0.0024
634.895	-0.0016
635.165	-0.0013
635.435	-0.0023
635.705	-0.002
635.974	-0.0018
636.244	-0.0006
636.514	0.0003
636.783	-0.0014
637.053	-0.0013
637.322	-0.0013
637.591	-0.0006
637.861	-0.0025
638.13	-0.0016
638.399	-0.0024
638.668	-0.0017
638.937	-0.0024
639.206	-0.0026
639.475	-0.0024
639.744	-0.0031
640.013	-0.0017
640.281	-0.003
640.55	-0.002
640.819	-0.0014
641.087	-0.0019
641.356	-0.0014
641.624	-0.0014
641.892	-0.001
642.161	-0.0011
642.429	-0.0022
642.697	-0.0019
642.965	-0.0018
643.233	-0.002
643.501	-0.0021
643.769	-0.0014
644.037	-0.0013
644.305	-0.0013
644.572	-0.0009
644.84	-0.0032
645.108	-0.0024
645.375	-0.0036
645.643	-0.0026
645.91	-0.0021
646.177	-0.0011
646.445	-0.0018
646.712	0.0001
646.979	0.0009
647.246	0.0014
647.513	0.0014
647.78	0.0003
648.047	-0.0014
648.314	-0.0028
648.58	-0.0024
648.847	-0.0017
649.114	-0.0009
649.38	-0.001
649.647	-0.0018
649.913	-0.0015
650.18	-0.0012
650.446	-0.0016
650.712	-0.0024
650.978	-0.0025
651.245	-0.0034
651.511	-0.002
651.777	-0.0028
652.043	-0.0023
652.309	-0.0011
652.574	-0.0006
652.84	-0.0013
653.106	-0.0006
653.371	-0.0005
653.637	0.0004
653.903	0.0007
654.168	0.0007
654.433	0.0015
654.699	0.0002
654.964	0.0019
655.229	0.001
655.494	-0.0011
655.759	-0.0041
656.024	0.0003
656.289	-0
656.554	0.0017
656.819	-0.0007
657.084	-0.0001
657.349	0.0003
657.613	-0.0006
657.878	-0.0009
658.142	-0.0009
658.407	-0.001
658.671	-0.0006
658.936	-0.0004
659.2	-0.0008
659.464	-0.0006
659.728	-0.001
659.992	-0.0017
660.256	-0.0019
660.52	-0.0023
660.784	-0.0014
661.048	-0.0011
661.312	-0.0002
661.575	-0.0001
661.839	0.0001
662.103	-0.0007
662.366	-0.0013
662.63	-0.0017
662.893	-0.0014
663.156	-0.0021
663.42	-0.0018
663.683	-0.0034
663.946	-0.0038
664.209	-0.0026
664.472	-0.003
664.735	-0.0026
664.998	-0.0019
665.261	-0.0017
665.524	-0.0028
665.786	-0.0017
666.049	-0.0027
666.312	-0.0016
666.574	-0.002
666.837	-0.0017
667.099	-0.0018
667.361	-0.0019
667.624	-0.0014
667.886	-0.0025
668.148	-0.0023
668.41	-0.0017
668.672	-0.0029
668.934	-0.0019
669.196	-0.0015
669.458	-0.0002
669.72	0.0006
669.982	-0
670.243	0.0005
670.505	-0.001
670.766	-0.0003
671.028	-0.0015
671.289	-0.0021
671.551	-0.003
671.812	-0.0032
672.073	-0.0013
672.334	-0.0026
672.596	-0.0024
672.857	-0.0031
673.118	-0.0026
673.379	-0.0034
673.639	-0.003
673.9	-0.0029
674.161	-0.0023
674.422	-0.0034
674.682	-0.0034
674.943	-0.0033
675.203	-0.0034
675.464	-0.0035
675.724	-0.0041
675.985	-0.0046
676.245	-0.0046
676.505	-0.0039
676.765	-0.004
677.025	-0.0036
677.285	-0.0031
677.545	-0.0021
677.805	-0.0019
678.065	-0.0024
678.325	-0.0014
678.585	-0.0028
678.844	-0.0039
679.104	-0.0039
679.363	-0.0043
679.623	-0.004
679.882	-0.0033
680.142	-0.0019
680.401	-0.0028
680.66	-0.0017
680.919	-0.0009
681.178	-0.0015
681.437	-0.002
681.696	-0.0014
681.955	-0.0017
682.214	-0.0016
682.473	-0.0023
682.732	-0.0041
682.99	-0.0031
683.249	-0.0021
683.508	-0.0024
683.766	-0.0019
684.024	-0.0028
684.283	-0.0021
684.541	-0.0023
684.799	-0.0018
685.058	-0.0018
685.316	-0.0036
685.574	-0.0031
685.832	-0.0026
686.09	-0.0034
686.348	-0.0045
686.606	-0.0039
686.863	-0.0039
687.121	-0.0036
687.379	-0.0026
687.636	-0.0021
687.894	-0.0024
688.151	-0.0015
688.409	-0.0022
688.666	-0.0025
688.923	-0.0038
689.181	-0.0036
689.438	-0.0031
689.695	-0.0036
689.952	-0.0048
690.209	-0.004
690.466	-0.0039
690.723	-0.0039
690.979	-0.0026
691.236	-0.0038
691.493	-0.0023
691.75	-0.0019
692.006	-0.0029
692.263	-0.0037
692.519	-0.0035
692.775	-0.0025
693.032	-0.0029
693.288	-0.0031
693.544	-0.0021
693.8	-0.0023
694.056	-0.0019
694.313	-0.0025
694.568	-0.0024
694.824	-0.0029
695.08	-0.0033
695.336	-0.0048
695.592	-0.0045
695.847	-0.0025
696.103	-0.0037
696.359	-0.0034
696.614	-0.0042
696.869	-0.0045
697.125	-0.0049
697.38	-0.0029
697.635	-0.0024
697.891	-0.0022
698.146	-0.0018
698.401	-0.0034
698.656	-0.0034
698.911	-0.0025
699.166	-0.0023
699.42	-0.0023
699.675	-0.0016
699.93	-0.0021
700.185	-0.0029
700.439	-0.0025
700.694	-0.0028
700.948	-0.003
701.203	-0.0038
701.457	-0.0035
701.711	-0.0042
701.965	-0.0054
702.22	-0.0049
702.474	-0.005
702.728	-0.004
702.982	-0.0036
703.236	-0.0028
703.49	-0.0016
703.743	-0.0023
703.997	-0.0021
704.251	-0.0031
704.504	-0.0025
704.758	-0.0027
705.012	-0.0027
705.265	-0.0023
705.518	-0.0015
705.772	-0.0021
706.025	-0.0015
706.278	-0.0021
706.531	-0.0025
706.785	-0.0031
707.038	-0.0025
707.291	-0.0023
707.543	-0.0031
707.796	-0.0027
708.049	-0.0041
708.302	-0.0042
708.555	-0.0053
708.807	-0.0044
709.06	-0.0057
709.312	-0.0039
709.565	-0.0045
709.817	-0.0054
710.069	-0.005
710.322	-0.0055
710.574	-0.0055
710.826	-0.0052
711.078	-0.0051
711.33	-0.0042
711.582	-0.0058
711.834	-0.0057
712.086	-0.0061
712.338	-0.0069
712.59	-0.0053
712.841	-0.0068
713.093	-0.0051
713.344	-0.0054
713.596	-0.0059
713.847	-0.0049
714.099	-0.0054
714.35	-0.0047
714.601	-0.0049
714.853	-0.0038
715.104	-0.0041
715.355	-0.0039
715.606	-0.0037
715.857	-0.0031
716.108	-0.0041
716.359	-0.0041
716.609	-0.0056
716.86	-0.0048
717.111	-0.0045
717.361	-0.0039
717.612	-0.0031
717.863	-0.0023
718.113	-0.0016
718.363	-0.0024
718.614	-0.0013
718.864	-0.0014
719.114	-0.0015
719.364	-0.0015
719.614	-0.0015
719.865	-0.0008
720.114	-0.0001
720.364	-0.0005
720.614	0.0009
720.864	-0.0004
721.114	-0.0009
721.364	-0.0006
721.613	-0.0011
721.863	-0.0018
722.112	-0.0021
722.362	-0.0028
722.611	-0.0026
722.86	-0.0028
723.11	-0.0024
723.359	-0.0029
723.608	-0.0019
723.857	-0.0018
724.106	-0.0016
724.355	-0.0013
724.604	-0.0012
724.853	-0.0018
725.102	-0.0032
725.351	-0.0032
725.599	-0.0042
725.848	-0.0034
726.097	-0.0023
726.345	-0.0033
726.594	-0.0044
726.842	-0.0034
727.09	-0.0051
727.339	-0.0054
727.587	-0.0057
727.835	-0.0057
728.083	-0.0048
728.331	-0.0053
728.579	-0.0046
728.827	-0.004
729.075	-0.004
729.323	-0.0042
729.571	-0.004
729.818	-0.0036
730.066	-0.0035
730.314	-0.0033
730.561	-0.0015
730.809	-0.0016
731.056	-0.0018
731.303	-0.0003
731.551	-0.0016
731.798	-0.0016
732.045	-0.0019
732.292	-0.0002
732.539	-0.0007
732.786	-0.0003
733.033	-0.0004
733.28	0.0002
733.527	-0.0006
733.774	-0.0018
734.021	-0.0027
734.267	-0.0036
734.514	-0.0035
734.76	-0.0033
735.007	-0.0032
735.253	-0.0038
735.5	-0.0031
735.746	-0.0034
735.992	-0.0021
736.238	-0.0025
736.485	-0.002
736.731	-0.0022
736.977	-0.0029
737.223	-0.0019
737.469	-0.0017
737.715	-0.0015
737.96	-0.0025
738.206	-0.0032
738.452	-0.0028
738.697	-0.0028
738.943	-0.0025
739.189	-0.003
739.434	-0.0018
739.679	-0.0025
739.925	-0.0029
740.17	-0.0048
740.415	-0.0053
740.66	-0.0063
740.906	-0.0058
741.151	-0.005
741.396	-0.0053
741.641	-0.0052
741.886	-0.0051
742.13	-0.0029
742.375	-0.0023
742.62	-0.0031
742.865	-0.0032
743.109	-0.0013
743.354	-0.0006
743.598	-0.0001
743.843	-0.0004
744.087	-0.0006
744.331	-0
744.576	-0.0001
744.82	0.0001
745.064	0.0007
745.308	0.002
745.552	0.0014
745.796	0.0002
746.04	0.0009
746.284	-0.0003
746.528	0.0016
746.771	0.0018
747.015	0.0018
747.259	0.0008
747.502	-0.0007
747.746	-0.0013
747.989	-0.0006
748.233	-0.0016
748.476	-0.001
748.719	-0.0002
748.963	0.001
749.206	0.0002
749.449	-0.001
749.692	-0.0002
749.935	0.0005
750.178	-0.0011
750.421	-0.0009
750.664	-0.0003
750.906	0.0008
751.149	0.0009
751.392	-0.0003
751.635	-0.0003
751.877	0.0002
752.12	-0.0009
752.362	-0.0011
752.604	-0.0011
752.847	0.0005
753.089	0.0009
753.331	0.002
753.573	0.0006
753.816	-0.0008
754.058	-0.0014
754.3	-0.0038
754.542	-0.0035
754.783	-0.0047
755.025	-0.0033
755.267	-0.0025
755.509	-0.0033
755.75	-0.0042
755.992	-0.0038
756.234	-0.0041
756.475	-0.0037
756.716	-0.0035
756.958	-0.0032
757.199	-0.0021
757.44	-0.0017
757.682	-0.0016
757.923	-0.0001
758.164	-0.0001
758.405	-0.0007
758.646	0.001
758.887	0.0013
759.128	0.0011
759.369	0.0009
759.609	0.0016
759.85	0.0004
760.091	0.0009
760.331	0.0001
760.572	-0.0017
760.812	-0.0009
761.053	-0.001
761.293	-0.0005
761.533	-0
761.774	0.0016
762.014	0.0007
762.254	0.0011
762.494	0.0002
762.734	0.0004
762.974	-0.0011
763.214	-0.0004
763.454	-0.0005
763.694	-0.0015
763.933	-0.0021
764.173	-0.0039
764.413	-0.0048
764.652	-0.0049
764.892	-0.0037
765.131	-0.0039
765.371	-0.0034
765.61	-0.0035
765.849	-0.0035
766.089	-0.0031
766.328	-0.003
766.567	-0.0035
766.806	-0.0031
767.045	-0.0023
767.284	-0.0039
767.523	-0.0036
767.762	-0.0036
768.001	-0.0036
768.239	-0.0037
768.478	-0.0029
768.717	-0.0027
768.955	-0.0025
769.194	-0.0022
769.432	-0.0009
769.671	-0.0013
769.909	-0.0004
770.148	-0.0009
770.386	-0.0001
770.624	0.0001
770.862	0.0004
771.1	0.0012
771.338	0.0008
771.576	-0.0005
771.814	0.0006
772.052	0.0012
772.29	0.0019
772.528	0.0027
772.765	0.004
773.003	0.0046
773.24	0.0046
773.478	0.0025
773.716	0.0023
773.953	0.0018
774.19	0.0009
774.428	0.0021
774.665	0.0015
774.902	0.0027
775.139	0.003
775.376	0.0022
775.613	0.002
775.85	0.0018
776.087	0.001
776.324	0.0012
776.561	0.0009
776.798	-0.0002
777.034	-0.0001
777.271	0.0016
777.508	0.0018
777.744	0.0021
777.981	0.0021
778.217	0.0019
778.454	0.0019
778.69	0.0011
778.926	-0.0002
779.162	0.0004
779.399	0.0001
779.635	-0
779.871	-0
780.107	-0.0003
780.343	-0.0006
780.579	-0.0009
780.814	-0.0009
781.05	-0.0012
781.286	-0.0021
781.522	-0.0014
781.757	-0.0008
781.993	-0.001
782.228	-0.0015
782.464	-0.0009
782.699	-0.0023
782.934	-0.0031
783.17	-0.0024
783.405	-0.0027
783.64	-0.0025
783.875	-0.0032
784.11	-0.0034
784.345	-0.0022
784.58	-0.0019
784.815	-0.0014
785.05	-0.002
785.285	-0.0033
785.52	-0.0028
785.754	-0.0031
785.989	-0.0037
786.223	-0.0047
786.458	-0.0043
786.692	-0.0031
786.927	-0.0032
787.161	-0.0021
787.396	-0.0032
787.63	-0.0033
787.864	-0.0046
788.098	-0.0055
788.332	-0.0059
788.566	-0.0046
788.8	-0.0044
789.034	-0.0028
789.268	-0.0032
789.502	-0.0027
789.736	-0.002
789.969	-0.002
790.203	-0.0035
790.437	-0.0044
790.67	-0.0059
790.904	-0.0072
791.137	-0.0073
791.37	-0.0075
791.604	-0.0077
791.837	-0.0082
792.07	-0.0067
792.303	-0.0067
792.537	-0.0056
792.77	-0.0064
793.003	-0.0055
793.236	-0.0045
793.469	-0.0048
793.701	-0.0028
793.934	-0.0024
794.167	-0.0018
794.4	-0.0024
794.632	-0.0008
794.865	-0.0003
795.097	-0.0007
795.33	-0.0025
795.562	-0.0016
795.795	-0.0006
796.027	-0.0004
796.259	-0.0008
796.491	-0.0005
796.724	-0.0011
796.956	0
797.188	-0.0004
797.42	-0.0007
797.652	-0.0014
797.883	-0.0007
798.115	-0.0006
798.347	-0.0017
798.579	0.0001
798.81	0.0002
799.042	0.0006
799.274	-0.0002
799.505	-0.0015
799.737	-0.0004
799.968	-0.0018
800.199	-0.0017
800.431	-0.0025
800.662	-0.0023
800.893	-0.0028
801.124	-0.0029
801.355	-0.0032
801.586	-0.0037
801.817	-0.0034
802.048	-0.0047
802.279	-0.0048
802.51	-0.0033
802.741	-0.0018
802.971	-0.0009
803.202	-0.0012
803.433	-0.0025
803.663	-0.0037
803.894	-0.0042
804.124	-0.0045
804.354	-0.0049
804.585	-0.0046
804.815	-0.0041
805.045	-0.0044
805.275	-0.0039
805.506	-0.0784
805.736	0.0547
805.966	0.3504
806.196	0.1986
