Data from 03 0.5 mM K2Cr2O7 0.3 mM BQDS 1 M H2SO4 5 min_Absorbance_0010.txt Node
Date: Mon Dec 13 18:29:45 EST 2021
User: kwabilab-user
Spectrometer: HDX00518
Trigger mode: 0
Integration Time (sec): 5.000000E-2
Scans to average: 50
Nonlinearity correction enabled: false
Boxcar width: 0
Storing dark spectrum: false
XAxis mode: Wavelengths
Number of Pixels in Spectrum: 2068
>>>>>Begin Spectral Data<<<<<
195.27	0.0197
195.642	0.0335
196.014	0.0133
196.386	0.3095
196.758	0.0186
197.129	-0.0014
197.501	-0.0029
197.872	0.0263
198.244	0.0479
198.615	0.0616
198.986	0.0462
199.357	0.0767
199.728	0.0585
200.099	0.0675
200.47	0.0379
200.841	0.0542
201.212	0.0606
201.582	0.0696
201.953	0.0479
202.323	0.0702
202.694	0.068
203.064	0.0352
203.434	0.0661
203.804	0.0482
204.174	0.0588
204.544	0.0583
204.914	0.0472
205.284	0.0687
205.653	0.0471
206.023	0.0566
206.393	0.0474
206.762	0.0574
207.131	0.0644
207.501	0.0524
207.87	0.0586
208.239	0.0547
208.608	0.0471
208.977	0.0352
209.346	0.0682
209.715	0.0555
210.083	0.0409
210.452	0.0522
210.82	0.0683
211.189	0.036
211.557	0.0766
211.925	0.0369
212.294	0.0675
212.662	0.0459
213.03	0.0547
213.398	0.0826
213.766	0.075
214.133	0.0661
214.501	0.1017
214.869	0.0937
215.236	0.0605
215.604	0.0506
215.971	0.0638
216.338	0.0936
216.705	0.0871
217.072	0.0973
217.439	0.0771
217.806	0.0944
218.173	0.0857
218.54	0.0737
218.907	0.0951
219.273	0.0972
219.64	0.0996
220.006	0.1076
220.373	0.0979
220.739	0.1236
221.105	0.1484
221.471	0.1782
221.837	0.1912
222.203	0.2212
222.569	0.2292
222.935	0.254
223.3	0.2325
223.666	0.2854
224.031	0.2956
224.397	0.316
224.762	0.3289
225.127	0.3581
225.493	0.3955
225.858	0.4063
226.223	0.4488
226.588	0.4815
226.952	0.4745
227.317	0.5121
227.682	0.5113
228.046	0.5274
228.411	0.5751
228.775	0.5986
229.14	0.608
229.504	0.5983
229.868	0.6312
230.232	0.6234
230.596	0.6467
230.96	0.7005
231.324	0.6607
231.688	0.712
232.052	0.7279
232.415	0.7118
232.779	0.7296
233.142	0.74
233.505	0.7331
233.869	0.7403
234.232	0.7507
234.595	0.7553
234.958	0.7518
235.321	0.7627
235.684	0.7751
236.047	0.7552
236.409	0.7636
236.772	0.7842
237.134	0.7739
237.497	0.7686
237.859	0.7963
238.222	0.7898
238.584	0.7848
238.946	0.7752
239.308	0.7849
239.67	0.7735
240.032	0.7729
240.393	0.7696
240.755	0.7797
241.117	0.7782
241.478	0.7861
241.84	0.7791
242.201	0.7766
242.562	0.7575
242.924	0.774
243.285	0.7584
243.646	0.7654
244.007	0.772
244.368	0.762
244.728	0.7733
245.089	0.7681
245.45	0.7695
245.81	0.774
246.171	0.7695
246.531	0.7584
246.891	0.7599
247.252	0.7702
247.612	0.7604
247.972	0.7618
248.332	0.7656
248.692	0.7645
249.051	0.7662
249.411	0.7688
249.771	0.7566
250.13	0.7728
250.49	0.7532
250.849	0.7617
251.208	0.7577
251.568	0.7586
251.927	0.7566
252.286	0.7685
252.645	0.7641
253.004	0.7639
253.363	0.7618
253.721	0.7685
254.08	0.7652
254.439	0.7621
254.797	0.7541
255.155	0.761
255.514	0.7533
255.872	0.7619
256.23	0.7622
256.588	0.7671
256.946	0.7644
257.304	0.7556
257.662	0.7662
258.02	0.7722
258.377	0.7654
258.735	0.7591
259.093	0.7557
259.45	0.7617
259.807	0.7624
260.165	0.7626
260.522	0.7609
260.879	0.7558
261.236	0.7503
261.593	0.7503
261.95	0.7519
262.306	0.7521
262.663	0.7472
263.02	0.7507
263.376	0.7534
263.733	0.7541
264.089	0.7446
264.445	0.7366
264.802	0.7508
265.158	0.7432
265.514	0.7419
265.87	0.7337
266.226	0.7412
266.581	0.7398
266.937	0.74
267.293	0.7368
267.648	0.7225
268.004	0.7336
268.359	0.73
268.714	0.7223
269.07	0.72
269.425	0.7151
269.78	0.7152
270.135	0.7167
270.49	0.7143
270.844	0.7128
271.199	0.7098
271.554	0.707
271.908	0.6962
272.263	0.6954
272.617	0.6943
272.972	0.693
273.326	0.6863
273.68	0.6822
274.034	0.6847
274.388	0.6831
274.742	0.6823
275.096	0.6754
275.45	0.6663
275.803	0.6685
276.157	0.665
276.51	0.6597
276.864	0.6536
277.217	0.6496
277.571	0.6527
277.924	0.6449
278.277	0.644
278.63	0.641
278.983	0.6312
279.336	0.6281
279.688	0.6235
280.041	0.6208
280.394	0.6137
280.746	0.6104
281.099	0.6062
281.451	0.5976
281.803	0.5948
282.156	0.5907
282.508	0.5814
282.86	0.5801
283.212	0.5762
283.564	0.5692
283.916	0.5677
284.267	0.5585
284.619	0.5531
284.971	0.55
285.322	0.5437
285.673	0.539
286.025	0.5307
286.376	0.5307
286.727	0.5241
287.078	0.5177
287.429	0.5113
287.78	0.5069
288.131	0.5003
288.482	0.497
288.833	0.488
289.183	0.4817
289.534	0.4794
289.884	0.4725
290.235	0.4658
290.585	0.4604
290.935	0.4538
291.285	0.4488
291.635	0.4434
291.985	0.4385
292.335	0.4329
292.685	0.4294
293.035	0.4229
293.384	0.4165
293.734	0.4115
294.083	0.4068
294.433	0.3987
294.782	0.3943
295.131	0.3897
295.48	0.382
295.829	0.3788
296.179	0.3717
296.527	0.3686
296.876	0.3624
297.225	0.3564
297.574	0.3525
297.922	0.347
298.271	0.3431
298.619	0.3385
298.968	0.333
299.316	0.3282
299.664	0.3239
300.012	0.3196
300.36	0.3152
300.708	0.3105
301.056	0.3073
301.404	0.3029
301.752	0.2984
302.099	0.2946
302.447	0.2914
302.794	0.2868
303.142	0.2832
303.489	0.2799
303.836	0.2763
304.183	0.2732
304.531	0.2713
304.878	0.268
305.224	0.2659
305.571	0.2623
305.918	0.2587
306.265	0.2568
306.611	0.2539
306.958	0.2523
307.304	0.2489
307.651	0.2478
307.997	0.2462
308.343	0.244
308.689	0.2421
309.035	0.2404
309.381	0.2382
309.727	0.2382
310.073	0.237
310.419	0.2347
310.764	0.2324
311.11	0.2318
311.455	0.2322
311.801	0.2307
312.146	0.2293
312.491	0.2295
312.837	0.2281
313.182	0.228
313.527	0.2276
313.872	0.2267
314.216	0.2264
314.561	0.227
314.906	0.227
315.251	0.2258
315.595	0.2272
315.94	0.2259
316.284	0.2272
316.628	0.2274
316.972	0.227
317.317	0.2281
317.661	0.2287
318.005	0.2285
318.348	0.2297
318.692	0.2309
319.036	0.2306
319.38	0.2308
319.723	0.2321
320.067	0.2338
320.41	0.2338
320.754	0.2361
321.097	0.2366
321.44	0.2378
321.783	0.2389
322.126	0.2406
322.469	0.2412
322.812	0.2427
323.155	0.2443
323.498	0.2455
323.84	0.2478
324.183	0.2483
324.525	0.2504
324.868	0.2534
325.21	0.2526
325.552	0.2557
325.894	0.2567
326.236	0.2586
326.578	0.2605
326.92	0.2617
327.262	0.264
327.604	0.2655
327.946	0.2676
328.287	0.2695
328.629	0.2718
328.97	0.2729
329.312	0.2742
329.653	0.2763
329.994	0.2791
330.335	0.2795
330.676	0.2828
331.017	0.2844
331.358	0.2865
331.699	0.289
332.04	0.2904
332.38	0.2922
332.721	0.2949
333.061	0.2971
333.402	0.298
333.742	0.3012
334.083	0.3026
334.423	0.3043
334.763	0.3052
335.103	0.3076
335.443	0.3092
335.783	0.3101
336.123	0.312
336.462	0.3138
336.802	0.3158
337.141	0.3167
337.481	0.3185
337.82	0.3197
338.16	0.3207
338.499	0.3236
338.838	0.3253
339.177	0.3279
339.516	0.3287
339.855	0.3299
340.194	0.3313
340.533	0.3324
340.872	0.3336
341.21	0.3344
341.549	0.3359
341.887	0.3373
342.226	0.3387
342.564	0.3398
342.902	0.3397
343.24	0.3408
343.578	0.3413
343.916	0.3418
344.254	0.343
344.592	0.3436
344.93	0.3431
345.268	0.3437
345.605	0.3443
345.943	0.3455
346.28	0.3442
346.618	0.3452
346.955	0.3455
347.292	0.3443
347.629	0.3455
347.966	0.3454
348.303	0.3455
348.64	0.3462
348.977	0.3464
349.314	0.3464
349.65	0.3455
349.987	0.3467
350.324	0.3458
350.66	0.346
350.996	0.3451
351.333	0.345
351.669	0.3436
352.005	0.3437
352.341	0.3425
352.677	0.3406
353.013	0.3403
353.349	0.3388
353.685	0.337
354.02	0.3351
354.356	0.3332
354.691	0.3332
355.027	0.3315
355.362	0.3313
355.697	0.3298
356.033	0.3291
356.368	0.3275
356.703	0.3265
357.038	0.325
357.373	0.3235
357.707	0.3216
358.042	0.3204
358.377	0.3204
358.711	0.3189
359.046	0.317
359.38	0.3164
359.715	0.3146
360.049	0.3135
360.383	0.3115
360.717	0.3105
361.051	0.3081
361.385	0.3064
361.719	0.3037
362.053	0.3016
362.387	0.2995
362.72	0.2978
363.054	0.294
363.387	0.293
363.721	0.2907
364.054	0.2871
364.387	0.2856
364.721	0.2831
365.054	0.2801
365.387	0.279
365.72	0.2762
366.053	0.2744
366.385	0.2724
366.718	0.27
367.051	0.2683
367.383	0.2665
367.716	0.2645
368.048	0.2629
368.381	0.2608
368.713	0.2592
369.045	0.2574
369.377	0.2553
369.709	0.2538
370.041	0.2524
370.373	0.2501
370.705	0.2481
371.037	0.2458
371.368	0.2436
371.7	0.2427
372.031	0.2389
372.363	0.2364
372.694	0.2332
373.025	0.2305
373.356	0.2288
373.688	0.2258
374.019	0.2229
374.35	0.2215
374.68	0.2188
375.011	0.2157
375.342	0.2118
375.673	0.2108
376.003	0.2079
376.334	0.2057
376.664	0.203
376.995	0.2007
377.325	0.1981
377.655	0.1966
377.985	0.1941
378.315	0.1925
378.645	0.1911
378.975	0.1891
379.305	0.1873
379.635	0.1855
379.964	0.1844
380.294	0.1819
380.623	0.1806
380.953	0.1783
381.282	0.1759
381.611	0.1746
381.941	0.1726
382.27	0.1704
382.599	0.1682
382.928	0.1666
383.257	0.1647
383.585	0.1626
383.914	0.1614
384.243	0.1581
384.571	0.1562
384.9	0.1536
385.228	0.1521
385.557	0.1489
385.885	0.1468
386.213	0.145
386.541	0.1429
386.869	0.1401
387.197	0.1381
387.525	0.1359
387.853	0.1336
388.181	0.1328
388.508	0.1299
388.836	0.1278
389.164	0.1263
389.491	0.1243
389.818	0.1231
390.146	0.1212
390.473	0.1196
390.8	0.118
391.127	0.1162
391.454	0.1146
391.781	0.1132
392.108	0.1128
392.435	0.1105
392.761	0.1091
393.088	0.1078
393.415	0.107
393.741	0.1058
394.067	0.1044
394.394	0.1031
394.72	0.1014
395.046	0.1003
395.372	0.099
395.698	0.098
396.024	0.0967
396.35	0.0953
396.676	0.094
397.001	0.0929
397.327	0.0914
397.653	0.0903
397.978	0.0885
398.303	0.088
398.629	0.0858
398.954	0.0845
399.279	0.0837
399.604	0.0827
399.929	0.0818
400.254	0.081
400.579	0.0798
400.904	0.0786
401.229	0.078
401.553	0.0774
401.878	0.0758
402.202	0.075
402.527	0.0744
402.851	0.0735
403.175	0.0724
403.5	0.0723
403.824	0.0718
404.148	0.0706
404.472	0.0694
404.796	0.0696
405.119	0.069
405.443	0.0683
405.767	0.0666
406.09	0.0672
406.414	0.0662
406.737	0.0662
407.061	0.0654
407.384	0.0659
407.707	0.0647
408.03	0.0647
408.353	0.0649
408.676	0.0639
408.999	0.0635
409.322	0.0631
409.645	0.0633
409.968	0.0627
410.29	0.0621
410.613	0.0622
410.935	0.0616
411.258	0.0615
411.58	0.0611
411.902	0.0611
412.224	0.0608
412.546	0.061
412.868	0.0604
413.19	0.0604
413.512	0.0602
413.834	0.0591
414.156	0.0596
414.477	0.0604
414.799	0.0592
415.121	0.0601
415.442	0.0589
415.763	0.0592
416.085	0.059
416.406	0.0591
416.727	0.0594
417.048	0.0586
417.369	0.0585
417.69	0.0582
418.011	0.058
418.331	0.0588
418.652	0.0585
418.973	0.0578
419.293	0.0584
419.614	0.0589
419.934	0.0582
420.254	0.0581
420.574	0.0582
420.895	0.0584
421.215	0.0575
421.535	0.058
421.855	0.0572
422.174	0.0581
422.494	0.0576
422.814	0.0573
423.134	0.0578
423.453	0.0578
423.773	0.0578
424.092	0.0579
424.411	0.058
424.731	0.0583
425.05	0.0575
425.369	0.0572
425.688	0.0576
426.007	0.0574
426.326	0.0573
426.644	0.0578
426.963	0.0581
427.282	0.0577
427.6	0.0572
427.919	0.0575
428.237	0.0575
428.556	0.0576
428.874	0.0581
429.192	0.058
429.51	0.0578
429.828	0.0578
430.146	0.0581
430.464	0.057
430.782	0.0579
431.1	0.0574
431.418	0.0569
431.735	0.0575
432.053	0.0572
432.37	0.0569
432.688	0.0573
433.005	0.057
433.322	0.0572
433.639	0.0573
433.957	0.0575
434.274	0.0569
434.591	0.0567
434.907	0.0568
435.224	0.0566
435.541	0.057
435.858	0.0576
436.174	0.0574
436.491	0.0566
436.807	0.056
437.124	0.0558
437.44	0.0569
437.756	0.0563
438.072	0.0571
438.388	0.0568
438.704	0.0566
439.02	0.0563
439.336	0.056
439.652	0.0556
439.968	0.0557
440.283	0.0552
440.599	0.0546
440.914	0.0562
441.23	0.0567
441.545	0.0558
441.86	0.0554
442.175	0.0551
442.491	0.0556
442.806	0.055
443.121	0.0548
443.435	0.0544
443.75	0.0551
444.065	0.0548
444.38	0.0547
444.694	0.0554
445.009	0.0547
445.323	0.0549
445.638	0.054
445.952	0.0543
446.266	0.0543
446.58	0.0542
446.894	0.0538
447.208	0.0536
447.522	0.0537
447.836	0.0537
448.15	0.053
448.464	0.0529
448.777	0.0537
449.091	0.0527
449.404	0.0533
449.718	0.0521
450.031	0.0531
450.345	0.0526
450.658	0.0528
450.971	0.0523
451.284	0.0523
451.597	0.0512
451.91	0.0523
452.223	0.052
452.535	0.0507
452.848	0.0515
453.161	0.0501
453.473	0.0505
453.786	0.0502
454.098	0.0506
454.411	0.0508
454.723	0.0498
455.035	0.0496
455.347	0.0493
455.659	0.0489
455.971	0.05
456.283	0.0487
456.595	0.0494
456.907	0.0492
457.218	0.0483
457.53	0.0478
457.841	0.0476
458.153	0.0482
458.464	0.0474
458.776	0.0476
459.087	0.047
459.398	0.0479
459.709	0.047
460.02	0.0476
460.331	0.0459
460.642	0.0473
460.953	0.0463
461.263	0.0456
461.574	0.0452
461.885	0.0449
462.195	0.045
462.506	0.0448
462.816	0.0443
463.126	0.0445
463.437	0.0444
463.747	0.0435
464.057	0.0433
464.367	0.0426
464.677	0.0429
464.987	0.0419
465.296	0.0432
465.606	0.0419
465.916	0.042
466.225	0.0424
466.535	0.0414
466.844	0.041
467.154	0.0416
467.463	0.0398
467.772	0.0404
468.081	0.0399
468.39	0.0401
468.699	0.0396
469.008	0.0392
469.317	0.0384
469.626	0.0377
469.935	0.038
470.243	0.038
470.552	0.038
470.86	0.038
471.169	0.0371
471.477	0.0371
471.785	0.037
472.093	0.0377
472.402	0.0367
472.71	0.0366
473.018	0.0358
473.326	0.0347
473.633	0.036
473.941	0.0357
474.249	0.0346
474.556	0.035
474.864	0.035
475.171	0.0342
475.479	0.0345
475.786	0.0335
476.094	0.0331
476.401	0.0329
476.708	0.0338
477.015	0.0331
477.322	0.0326
477.629	0.0321
477.936	0.0318
478.242	0.031
478.549	0.0303
478.856	0.0318
479.162	0.0302
479.469	0.0313
479.775	0.031
480.081	0.0299
480.388	0.0299
480.694	0.0297
481	0.0288
481.306	0.0291
481.612	0.0286
481.918	0.0287
482.224	0.0279
482.53	0.0275
482.835	0.0277
483.141	0.0274
483.446	0.0271
483.752	0.027
484.057	0.0264
484.363	0.0269
484.668	0.0268
484.973	0.0254
485.278	0.0254
485.583	0.0255
485.888	0.0254
486.193	0.0242
486.498	0.0234
486.803	0.0236
487.107	0.0244
487.412	0.0242
487.717	0.0234
488.021	0.0226
488.325	0.0239
488.63	0.0233
488.934	0.023
489.238	0.0227
489.542	0.0207
489.846	0.0223
490.15	0.0221
490.454	0.0206
490.758	0.0213
491.062	0.0209
491.366	0.0203
491.669	0.021
491.973	0.0206
492.276	0.0204
492.58	0.0196
492.883	0.0192
493.186	0.0192
493.489	0.0194
493.792	0.0186
494.096	0.0177
494.399	0.0185
494.701	0.0181
495.004	0.0168
495.307	0.0175
495.61	0.0171
495.912	0.0177
496.215	0.0166
496.517	0.016
496.82	0.0167
497.122	0.0148
497.424	0.0161
497.727	0.0159
498.029	0.0144
498.331	0.0154
498.633	0.0164
498.935	0.0154
499.237	0.0146
499.538	0.0141
499.84	0.0136
500.142	0.0129
500.443	0.0142
500.745	0.013
501.046	0.0127
501.348	0.013
501.649	0.0127
501.95	0.0127
502.251	0.0134
502.552	0.0123
502.853	0.0113
503.154	0.0121
503.455	0.0125
503.756	0.0116
504.057	0.0117
504.357	0.0101
504.658	0.0113
504.958	0.0118
505.259	0.0117
505.559	0.0101
505.859	0.0105
506.16	0.0098
506.46	0.0109
506.76	0.0106
507.06	0.0095
507.36	0.0093
507.66	0.0091
507.96	0.0098
508.259	0.0086
508.559	0.0099
508.859	0.0095
509.158	0.0091
509.457	0.0078
509.757	0.0092
510.056	0.0086
510.355	0.0088
510.655	0.0083
510.954	0.0087
511.253	0.0079
511.552	0.0084
511.851	0.0073
512.149	0.0061
512.448	0.0077
512.747	0.0079
513.045	0.0068
513.344	0.0065
513.642	0.0062
513.941	0.0066
514.239	0.0067
514.537	0.0049
514.836	0.0061
515.134	0.0046
515.432	0.0072
515.73	0.0052
516.028	0.0059
516.326	0.0058
516.623	0.0063
516.921	0.0047
517.219	0.0056
517.516	0.0051
517.814	0.005
518.111	0.0049
518.409	0.0033
518.706	0.0035
519.003	0.0047
519.3	0.0039
519.597	0.0041
519.894	0.0051
520.191	0.0038
520.488	0.0035
520.785	0.0035
521.082	0.0039
521.378	0.0036
521.675	0.0036
521.971	0.0027
522.268	0.0028
522.564	0.0035
522.861	0.0036
523.157	0.0034
523.453	0.005
523.749	0.0034
524.045	0.0034
524.341	0.003
524.637	0.0022
524.933	0.0025
525.229	0.0021
525.524	0.0016
525.82	0.0012
526.115	0.0008
526.411	0.0022
526.706	0.0026
527.002	0.0026
527.297	0.0012
527.592	0.002
527.887	0.0025
528.182	0.0016
528.477	0.0026
528.772	0.0027
529.067	0.0031
529.362	0.0017
529.657	0.0016
529.951	0.002
530.246	0.0011
530.54	0.0023
530.835	0.0007
531.129	0.0015
531.423	0.0011
531.718	0.001
532.012	0.002
532.306	0.0003
532.6	0.0007
532.894	0.0006
533.188	0.0016
533.482	0.0015
533.775	0.0009
534.069	0.0011
534.363	-0.0014
534.656	-0.0015
534.95	0.0012
535.243	0.0009
535.536	0.0012
535.83	0.0004
536.123	0.0006
536.416	0.0009
536.709	-0.0007
537.002	-0.0006
537.295	0.0001
537.588	0.0001
537.881	0.001
538.173	0.0003
538.466	0.0004
538.759	-0
539.051	0.0011
539.344	0.0003
539.636	0.0002
539.928	0.0008
540.22	-0
540.513	0.0004
540.805	0.0008
541.097	-0.0004
541.389	-0.0015
541.681	0.0002
541.972	0.0006
542.264	0.0005
542.556	-0
542.847	0.0018
543.139	-0.0002
543.431	-0.0005
543.722	-0.0008
544.013	0.0001
544.305	-0
544.596	-0.0004
544.887	0.0008
545.178	-0.0002
545.469	-0.001
545.76	-0.0005
546.051	-0.0004
546.342	-0
546.632	-0.0003
546.923	-0.0005
547.214	-0.0003
547.504	-0.0006
547.795	-0.0003
548.085	-0.0009
548.375	-0.001
548.666	-0.0006
548.956	-0.0009
549.246	-0.0008
549.536	-0.001
549.826	-0.0003
550.116	-0
550.406	-0.0005
550.695	-0.0014
550.985	-0.0002
551.275	-0.0008
551.564	-0.0005
551.854	-0.0003
552.143	-0.0011
552.433	-0.0023
552.722	-0.0022
553.011	0.0004
553.3	0.0005
553.589	0.0001
553.879	-0.0008
554.167	-0.0001
554.456	0.0008
554.745	0.0001
555.034	-0.0006
555.323	0.0009
555.611	-0.0001
555.9	-0.0002
556.188	-0.0012
556.477	-0.0006
556.765	-0.001
557.053	-0.0024
557.342	-0.0006
557.63	-0.0004
557.918	-0.0004
558.206	0.0011
558.494	-0.0007
558.782	-0.0006
559.069	0.0004
559.357	-0.0005
559.645	-0.0002
559.932	0.0002
560.22	-0.0006
560.507	-0.0011
560.795	-0.0011
561.082	-0.0011
561.37	-0.0002
561.657	-0.0005
561.944	-0.0009
562.231	-0.0002
562.518	-0.0002
562.805	-0.0007
563.092	0.001
563.379	0.0004
563.665	0.0002
563.952	-0.0007
564.239	-0.0001
564.525	0.0002
564.811	0.0004
565.098	-0.0002
565.384	-0.0012
565.67	-0.0001
565.957	0.0001
566.243	0.0013
566.529	0.0002
566.815	-0.0004
567.101	0.0015
567.387	0.0007
567.672	0.0004
567.958	0.0006
568.244	0.0004
568.529	0.0006
568.815	-0.0002
569.1	-0.0001
569.386	-0.0003
569.671	0.0006
569.956	0.0006
570.242	-0
570.527	-0.0004
570.812	-0.0006
571.097	0.0008
571.382	-0.0004
571.666	0.0002
571.951	0.0007
572.236	-0.0001
572.521	-0.0002
572.805	-0.0002
573.09	-0.0005
573.374	-0.0005
573.659	-0.0001
573.943	-0.0012
574.227	-0.0009
574.511	-0.0007
574.795	-0.0004
575.079	-0.0004
575.363	-0.0007
575.647	-0.0012
575.931	-0.0006
576.215	-0.0015
576.499	-0.0008
576.782	-0.0012
577.066	-0.0005
577.349	-0
577.633	0
577.916	0
578.2	0.0001
578.483	-0.0011
578.766	-0.0004
579.049	-0.0011
579.332	-0.0002
579.615	0.0005
579.898	-0
580.181	0.0001
580.464	0.0008
580.746	-0
581.029	-0.0001
581.312	0.0002
581.594	-0.0003
581.877	-0.0008
582.159	-0.0013
582.441	-0.0009
582.724	-0.0007
583.006	0.0002
583.288	0.0002
583.57	0.0003
583.852	0.0001
584.134	0.0007
584.416	-0.0002
584.697	0
584.979	-0.0008
585.261	-0.0009
585.542	-0.0012
585.824	-0.0007
586.105	-0.001
586.387	-0.0014
586.668	-0.0011
586.949	0.0003
587.231	0.0003
587.512	0.0006
587.793	0.0003
588.074	-0.0011
588.355	0
588.636	-0.0005
588.916	-0.0017
589.197	-0.0011
589.478	0.0001
589.758	-0.0004
590.039	-0.0001
590.319	-0.0006
590.6	0.0002
590.88	-0.0001
591.16	0.0004
591.441	0.0008
591.721	0.0003
592.001	-0
592.281	-0.0005
592.561	0.0011
592.841	-0.0001
593.12	-0.0008
593.4	-0.0013
593.68	-0.0019
593.959	-0.0019
594.239	-0.0022
594.518	-0.0015
594.798	-0
595.077	-0.0008
595.356	-0.0004
595.636	-0.0013
595.915	-0.0011
596.194	-0.0007
596.473	-0.0007
596.752	0
597.031	0.0001
597.31	0.0001
597.588	-0.0012
597.867	-0.0003
598.146	-0.001
598.424	-0.0009
598.703	0.0006
598.981	-0.001
599.259	-0.0014
599.538	-0.0011
599.816	-0.0004
600.094	-0.0002
600.372	-0.0017
600.65	-0.0028
600.928	-0.0016
601.206	-0.0004
601.484	-0.0009
601.762	-0.0015
602.04	-0.001
602.317	-0.001
602.595	-0.0012
602.872	-0.0002
603.15	0.001
603.427	-0.0012
603.704	-0.0006
603.982	-0.0007
604.259	-0.0007
604.536	-0.0004
604.813	-0.0011
605.09	-0.0014
605.367	-0.0006
605.644	-0.0018
605.921	-0.0014
606.197	-0.0004
606.474	-0.0003
606.751	-0.0009
607.027	-0.0003
607.304	-0.0004
607.58	-0.0004
607.856	-0.0018
608.133	-0.0019
608.409	-0.0006
608.685	-0.0007
608.961	-0.0013
609.237	-0.0009
609.513	-0.0018
609.789	-0.0013
610.065	-0.0009
610.341	-0.0013
610.616	-0.0017
610.892	-0.0004
611.167	-0.0001
611.443	-0.0018
611.718	-0.0012
611.994	-0.001
612.269	-0.0005
612.544	-0.0016
612.819	-0.0007
613.095	-0.0016
613.37	-0.0006
613.645	-0.0012
613.919	-0.0019
614.194	-0.0008
614.469	-0.0003
614.744	-0.0002
615.019	-0.0014
615.293	-0.0022
615.568	-0.0015
615.842	-0.0009
616.116	-0.0011
616.391	-0
616.665	0.0006
616.939	-0.0004
617.213	0.0002
617.488	0.0006
617.762	-0.0009
618.035	-0.0008
618.309	-0.0009
618.583	-0.0003
618.857	-0.0001
619.131	0.0006
619.404	0.0001
619.678	-0.0003
619.951	-0.0002
620.225	-0.0008
620.498	-0.0016
620.771	-0.001
621.045	-0.0008
621.318	-0.0024
621.591	-0.0018
621.864	-0.002
622.137	-0.0017
622.41	-0.0025
622.683	-0.0017
622.956	-0.0015
623.228	-0.0002
623.501	-0.0007
623.774	-0.001
624.046	-0.001
624.319	-0.0016
624.591	-0.0018
624.863	-0.0014
625.136	-0.0008
625.408	-0.0008
625.68	-0.0008
625.952	-0.0009
626.224	-0.0007
626.496	-0.0008
626.768	-0.0019
627.04	-0.0016
627.311	-0.001
627.583	-0.0017
627.855	-0.0006
628.126	0.0003
628.398	0.0005
628.669	0.0005
628.941	0.0021
629.212	0.0004
629.483	0.0007
629.755	-0.0011
630.026	-0.0006
630.297	-0.0003
630.568	-0.0006
630.839	-0.0007
631.11	-0.0014
631.38	-0.0009
631.651	0
631.922	-0.0004
632.192	-0.0013
632.463	-0.0018
632.733	-0.001
633.004	-0.0012
633.274	-0.0013
633.545	-0.0004
633.815	-0.001
634.085	-0.0022
634.355	-0.0028
634.625	-0.0027
634.895	-0.0033
635.165	-0.0025
635.435	-0.0026
635.705	-0.0023
635.974	-0.0033
636.244	-0.0015
636.514	-0.001
636.783	-0.0018
637.053	-0.0027
637.322	-0.002
637.591	-0.001
637.861	-0.0027
638.13	-0.0024
638.399	-0.0029
638.668	-0.0028
638.937	-0.0042
639.206	-0.0043
639.475	-0.0037
639.744	-0.0036
640.013	-0.0027
640.281	-0.0024
640.55	-0.0021
640.819	-0.0026
641.087	-0.0028
641.356	-0.0033
641.624	-0.0022
641.892	-0.0017
642.161	-0.0016
642.429	-0.0023
642.697	-0.0016
642.965	-0.0016
643.233	-0.003
643.501	-0.0028
643.769	-0.0019
644.037	-0.0022
644.305	-0.0023
644.572	-0.0021
644.84	-0.002
645.108	-0.0039
645.375	-0.0028
645.643	-0.0025
645.91	-0.0007
646.177	-0.0002
646.445	-0.0006
646.712	0.0014
646.979	0.0014
647.246	0.0021
647.513	0.0015
647.78	0.0018
648.047	0.0008
648.314	-0.0018
648.58	-0.0022
648.847	-0.0022
649.114	-0.0005
649.38	-0.0007
649.647	-0.0019
649.913	-0.0018
650.18	-0.0018
650.446	-0.0012
650.712	-0.0033
650.978	-0.0033
651.245	-0.0025
651.511	-0.0016
651.777	-0.0021
652.043	-0.0028
652.309	-0.0015
652.574	-0.0004
652.84	-0.0003
653.106	-0.0009
653.371	-0.0002
653.637	0.0012
653.903	0.0001
654.168	0.0003
654.433	0.0013
654.699	0.0002
654.964	0.001
655.229	0.0009
655.494	0.0016
655.759	0.0011
656.024	0.0002
656.289	-0
656.554	-0.004
656.819	-0.0026
657.084	-0.0015
657.349	-0.0006
657.613	-0.0002
657.878	-0.0008
658.142	-0.0015
658.407	-0.0009
658.671	-0.0004
658.936	-0.0002
659.2	-0.0006
659.464	-0.0009
659.728	-0.0013
659.992	-0.0019
660.256	-0.0011
660.52	-0.0013
660.784	-0.0013
661.048	-0.0009
661.312	-0.0002
661.575	-0.0006
661.839	0.0001
662.103	-0.0012
662.366	-0.0008
662.63	-0.0019
662.893	-0.0017
663.156	-0.0017
663.42	-0.0023
663.683	-0.0036
663.946	-0.0039
664.209	-0.0022
664.472	-0.0029
664.735	-0.0023
664.998	-0.0019
665.261	-0.0019
665.524	-0.0021
665.786	-0.0019
666.049	-0.002
666.312	-0.0023
666.574	-0.0018
666.837	-0.0009
667.099	-0.0008
667.361	-0.0022
667.624	-0.002
667.886	-0.0036
668.148	-0.002
668.41	-0.0023
668.672	-0.0028
668.934	-0.0012
669.196	-0.0015
669.458	0.0003
669.72	0.001
669.982	0.0004
670.243	0.0004
670.505	-0.0001
670.766	0.0001
671.028	-0.0008
671.289	-0.0025
671.551	-0.0016
671.812	-0.0022
672.073	-0.0017
672.334	-0.0027
672.596	-0.0028
672.857	-0.0034
673.118	-0.0024
673.379	-0.0035
673.639	-0.0034
673.9	-0.0031
674.161	-0.003
674.422	-0.0037
674.682	-0.0033
674.943	-0.0034
675.203	-0.0026
675.464	-0.0032
675.724	-0.0038
675.985	-0.0033
676.245	-0.0039
676.505	-0.0034
676.765	-0.0034
677.025	-0.0033
677.285	-0.0036
677.545	-0.0022
677.805	-0.0016
678.065	-0.0008
678.325	-0.002
678.585	-0.0022
678.844	-0.0031
679.104	-0.0038
679.363	-0.0039
679.623	-0.0037
679.882	-0.0029
680.142	-0.0036
680.401	-0.0037
680.66	-0.0024
680.919	-0.0012
681.178	-0.0017
681.437	-0.0012
681.696	-0.0018
681.955	-0.0018
682.214	-0.0008
682.473	-0.0027
682.732	-0.0031
682.99	-0.002
683.249	-0.0012
683.508	-0.0018
683.766	-0.0014
684.024	-0.0028
684.283	-0.0011
684.541	-0.0012
684.799	-0.0014
685.058	-0.0005
685.316	-0.0023
685.574	-0.0023
685.832	-0.0026
686.09	-0.0043
686.348	-0.0048
686.606	-0.0046
686.863	-0.0048
687.121	-0.0041
687.379	-0.0018
687.636	-0.0022
687.894	-0.0028
688.151	-0.0012
688.409	-0.0012
688.666	-0.0024
688.923	-0.0036
689.181	-0.0025
689.438	-0.0032
689.695	-0.0024
689.952	-0.0044
690.209	-0.0037
690.466	-0.0049
690.723	-0.0034
690.979	-0.0024
691.236	-0.0026
691.493	-0.0015
691.75	-0.0022
692.006	-0.0027
692.263	-0.0029
692.519	-0.003
692.775	-0.0029
693.032	-0.0033
693.288	-0.0014
693.544	-0.0016
693.8	-0.0015
694.056	-0.0024
694.313	-0.0022
694.568	-0.0017
694.824	-0.0017
695.08	-0.0029
695.336	-0.0034
695.592	-0.0031
695.847	-0.0028
696.103	-0.003
696.359	-0.002
696.614	-0.0036
696.869	-0.0025
697.125	-0.0028
697.38	-0.0037
697.635	-0.0025
697.891	-0.0022
698.146	-0.0025
698.401	-0.0028
698.656	-0.0031
698.911	-0.0035
699.166	-0.0025
699.42	-0.0014
699.675	-0.0027
699.93	-0.0014
700.185	-0.0024
700.439	-0.0029
700.694	-0.0034
700.948	-0.0029
701.203	-0.0044
701.457	-0.0045
701.711	-0.0058
701.965	-0.0049
702.22	-0.0051
702.474	-0.0041
702.728	-0.003
702.982	-0.0034
703.236	-0.003
703.49	-0.0023
703.743	-0.0029
703.997	-0.0029
704.251	-0.0027
704.504	-0.003
704.758	-0.0036
705.012	-0.0036
705.265	-0.0033
705.518	-0.0023
705.772	-0.0023
706.025	-0.0031
706.278	-0.0034
706.531	-0.0034
706.785	-0.0029
707.038	-0.0035
707.291	-0.0038
707.543	-0.0037
707.796	-0.0044
708.049	-0.0042
708.302	-0.0046
708.555	-0.0051
708.807	-0.0036
709.06	-0.0042
709.312	-0.0028
709.565	-0.0042
709.817	-0.0043
710.069	-0.0049
710.322	-0.0052
710.574	-0.0059
710.826	-0.005
711.078	-0.0052
711.33	-0.0037
711.582	-0.0058
711.834	-0.0063
712.086	-0.0068
712.338	-0.0072
712.59	-0.0064
712.841	-0.006
713.093	-0.0065
713.344	-0.0062
713.596	-0.0046
713.847	-0.004
714.099	-0.004
714.35	-0.0047
714.601	-0.0036
714.853	-0.004
715.104	-0.0037
715.355	-0.0025
715.606	-0.0042
715.857	-0.0033
716.108	-0.0037
716.359	-0.0037
716.609	-0.0041
716.86	-0.0041
717.111	-0.0025
717.361	-0.0033
717.612	-0.0017
717.863	-0.0016
718.113	-0.0003
718.363	-0.001
718.614	-0.0009
718.864	-0.0006
719.114	-0.0012
719.364	0.0002
719.614	-0.0001
719.865	-0.0007
720.114	0.0001
720.364	0.0004
720.614	0.0007
720.864	0.0008
721.114	0.0005
721.364	-0.0006
721.613	0.0006
721.863	-0
722.112	-0.0004
722.362	-0.0012
722.611	-0.0024
722.86	-0.0022
723.11	-0.0012
723.359	-0.0013
723.608	-0.0016
723.857	-0.002
724.106	-0.0009
724.355	-0.0009
724.604	-0.0009
724.853	-0.0012
725.102	-0.0029
725.351	-0.0019
725.599	-0.003
725.848	-0.0034
726.097	-0.0026
726.345	-0.0031
726.594	-0.0038
726.842	-0.0031
727.09	-0.0042
727.339	-0.0049
727.587	-0.0053
727.835	-0.0051
728.083	-0.0045
728.331	-0.005
728.579	-0.004
728.827	-0.0032
729.075	-0.0034
729.323	-0.0031
729.571	-0.0037
729.818	-0.0026
730.066	-0.0035
730.314	-0.0028
730.561	-0.0015
730.809	-0.0004
731.056	-0.0007
731.303	-0.0007
731.551	-0.0008
731.798	-0.0008
732.045	-0.0015
732.292	-0.0007
732.539	0.0002
732.786	0.0016
733.033	0.0004
733.28	-0.0002
733.527	-0.0001
733.774	0.0004
734.021	-0.0022
734.267	-0.0027
734.514	-0.003
734.76	-0.0039
735.007	-0.0036
735.253	-0.0035
735.5	-0.0034
735.746	-0.0031
735.992	-0.0027
736.238	-0.003
736.485	-0.0023
736.731	-0.0033
736.977	-0.0034
737.223	-0.0032
737.469	-0.0026
737.715	-0.0027
737.96	-0.0036
738.206	-0.0043
738.452	-0.0052
738.697	-0.0047
738.943	-0.004
739.189	-0.0034
739.434	-0.0029
739.679	-0.0043
739.925	-0.0052
740.17	-0.006
740.415	-0.0064
740.66	-0.0074
740.906	-0.0073
741.151	-0.0066
741.396	-0.007
741.641	-0.007
741.886	-0.0067
742.13	-0.0047
742.375	-0.0045
742.62	-0.004
742.865	-0.004
743.109	-0.0023
743.354	-0.0024
743.598	-0.001
743.843	-0.0007
744.087	-0.0005
744.331	-0.0003
744.576	0.0004
744.82	0.0007
745.064	0
745.308	0.0003
745.552	0.0007
745.796	-0.001
746.04	-0.0005
746.284	-0.0013
746.528	-0.0004
746.771	0.0008
747.015	0.0007
747.259	0.0007
747.502	-0.0012
747.746	-0.0022
747.989	-0.0017
748.233	-0.0016
748.476	-0.0013
748.719	-0.0006
748.963	-0.0006
749.206	0.0001
749.449	-0.0019
749.692	-0.001
749.935	-0.0006
750.178	-0.0024
750.421	-0.0023
750.664	-0.0019
750.906	-0.0007
751.149	-0.0007
751.392	-0.0014
751.635	-0.0016
751.877	-0.0018
752.12	-0.0014
752.362	-0.0023
752.604	-0.0022
752.847	-0.0003
753.089	-0.0001
753.331	0.0003
753.573	0.0002
753.816	-0.0018
754.058	-0.0028
754.3	-0.0044
754.542	-0.0035
754.783	-0.0045
755.025	-0.0038
755.267	-0.0022
755.509	-0.0029
755.75	-0.0035
755.992	-0.003
756.234	-0.0042
756.475	-0.0036
756.716	-0.0036
756.958	-0.003
757.199	-0.0035
757.44	-0.0026
757.682	-0.0013
757.923	-0.002
758.164	-0.0012
758.405	-0.0019
758.646	-0.0007
758.887	-0.0009
759.128	-0.0004
759.369	0.0005
759.609	0.0003
759.85	-0.0001
760.091	-0.0007
760.331	-0.0005
760.572	-0.0017
760.812	-0.0018
761.053	-0.0018
761.293	-0.0012
761.533	-0.0008
761.774	-0.0002
762.014	-0.0002
762.254	0.0001
762.494	-0.001
762.734	-0.0012
762.974	-0.0015
763.214	-0.0019
763.454	-0.0014
763.694	-0.0013
763.933	-0.0022
764.173	-0.0038
764.413	-0.0041
764.652	-0.0046
764.892	-0.0042
765.131	-0.0034
765.371	-0.004
765.61	-0.0049
765.849	-0.0037
766.089	-0.0033
766.328	-0.0034
766.567	-0.0034
766.806	-0.0031
767.045	-0.0023
767.284	-0.0023
767.523	-0.0026
767.762	-0.0026
768.001	-0.0021
768.239	-0.0018
768.478	-0.0016
768.717	-0.0012
768.955	-0.0009
769.194	-0.0016
769.432	0
769.671	0.0001
769.909	0.0005
770.148	0.0005
770.386	0.0008
770.624	0.0012
770.862	0.001
771.1	0.0009
771.338	0
771.576	-0.001
771.814	-0.0004
772.052	-0.0004
772.29	0.0013
772.528	0.0022
772.765	0.0026
773.003	0.0033
773.24	0.0033
773.478	0.0007
773.716	0.0015
773.953	0.0008
774.19	0.0007
774.428	0.002
774.665	0.0023
774.902	0.0022
775.139	0.0031
775.376	0.0016
775.613	0.0017
775.85	0.0016
776.087	0.0011
776.324	0.0015
776.561	0.0011
776.798	-0.0003
777.034	-0.0001
777.271	0.001
777.508	0.001
777.744	0.0007
777.981	0.002
778.217	0.0015
778.454	0.0005
778.69	-0.0003
778.926	-0.0018
779.162	-0.0016
779.399	-0.001
779.635	-0.0017
779.871	-0.0021
780.107	-0.0018
780.343	-0.0026
780.579	-0.0018
780.814	-0.0024
781.05	-0.0016
781.286	-0.0021
781.522	-0.002
781.757	-0.002
781.993	-0.0021
782.228	-0.0033
782.464	-0.0025
782.699	-0.0028
782.934	-0.0032
783.17	-0.0035
783.405	-0.0035
783.64	-0.0034
783.875	-0.0042
784.11	-0.0054
784.345	-0.004
784.58	-0.0042
784.815	-0.0033
785.05	-0.0042
785.285	-0.0044
785.52	-0.0044
785.754	-0.0061
785.989	-0.0054
786.223	-0.0068
786.458	-0.0063
786.692	-0.0058
786.927	-0.0047
787.161	-0.004
787.396	-0.0044
787.63	-0.0043
787.864	-0.0056
788.098	-0.0063
788.332	-0.0045
788.566	-0.004
788.8	-0.0041
789.034	-0.0037
789.268	-0.0036
789.502	-0.0026
789.736	-0.0035
789.969	-0.0027
790.203	-0.004
790.437	-0.0051
790.67	-0.0058
790.904	-0.0073
791.137	-0.0079
791.37	-0.008
791.604	-0.009
791.837	-0.0087
792.07	-0.0079
792.303	-0.0082
792.537	-0.0076
792.77	-0.0074
793.003	-0.007
793.236	-0.006
793.469	-0.0063
793.701	-0.005
793.934	-0.0028
794.167	-0.0022
794.4	-0.0028
794.632	-0.0028
794.865	-0.0023
795.097	-0.0022
795.33	-0.0031
795.562	-0.0021
795.795	-0.002
796.027	-0.0006
796.259	-0.0007
796.491	-0.0005
796.724	-0.0009
796.956	-0.0002
797.188	-0.0007
797.42	-0.0006
797.652	-0.0005
797.883	-0.0007
798.115	-0.0005
798.347	-0.0015
798.579	0
798.81	-0
799.042	0.0006
799.274	-0.0003
799.505	-0.0008
799.737	0.0001
799.968	-0.0008
800.199	-0.0015
800.431	-0.0017
800.662	-0.0012
800.893	-0.0022
801.124	-0.0027
801.355	-0.0029
801.586	-0.0039
801.817	-0.0036
802.048	-0.0048
802.279	-0.0052
802.51	-0.0034
802.741	-0.0023
802.971	-0.0013
803.202	-0.0013
803.433	-0.0008
803.663	-0.0029
803.894	-0.0037
804.124	-0.0041
804.354	-0.0029
804.585	-0.0033
804.815	-0.0034
805.045	-0.0033
805.275	-0.0031
805.506	-0.0463
805.736	0.0856
805.966	0.0167
806.196	0.0445
