Data from 03 0.5 mM K2Cr2O7 0.3 mM BQDS 1 M H2SO4 5 min_Absorbance_0067.txt Node
Date: Mon Dec 13 23:14:45 EST 2021
User: kwabilab-user
Spectrometer: HDX00518
Trigger mode: 0
Integration Time (sec): 5.000000E-2
Scans to average: 50
Nonlinearity correction enabled: false
Boxcar width: 0
Storing dark spectrum: false
XAxis mode: Wavelengths
Number of Pixels in Spectrum: 2068
>>>>>Begin Spectral Data<<<<<
195.27	0.1024
195.642	0.1496
196.014	0.0601
196.386	0.2646
196.758	0.0117
197.129	-0.011
197.501	-0.0186
197.872	0.0285
198.244	0.0391
198.615	0.0479
198.986	0.0455
199.357	0.0513
199.728	0.0264
200.099	0.0619
200.47	0.0346
200.841	0.0375
201.212	0.0603
201.582	0.0351
201.953	0.0329
202.323	0.067
202.694	0.0299
203.064	0.0327
203.434	0.0539
203.804	0.0216
204.174	0.0585
204.544	0.0235
204.914	0.0441
205.284	0.0583
205.653	0.0245
206.023	0.0299
206.393	0.0175
206.762	0.0499
207.131	0.0501
207.501	0.0271
207.87	0.0604
208.239	0.0453
208.608	0.0337
208.977	0.0429
209.346	0.0581
209.715	0.0425
210.083	0.031
210.452	0.0265
210.82	0.0307
211.189	0.0379
211.557	0.0387
211.925	0.0198
212.294	0.0265
212.662	0.037
213.03	0.0389
213.398	0.0571
213.766	0.0744
214.133	0.039
214.501	0.0548
214.869	0.0435
215.236	0.0418
215.604	0.0436
215.971	0.051
216.338	0.0673
216.705	0.0805
217.072	0.0858
217.439	0.0502
217.806	0.0687
218.173	0.0702
218.54	0.0742
218.907	0.0862
219.273	0.1032
219.64	0.0742
220.006	0.1069
220.373	0.1279
220.739	0.1265
221.105	0.1401
221.471	0.1552
221.837	0.1681
222.203	0.1801
222.569	0.1883
222.935	0.2326
223.3	0.2194
223.666	0.2648
224.031	0.2896
224.397	0.2962
224.762	0.3117
225.127	0.3448
225.493	0.3792
225.858	0.3888
226.223	0.4262
226.588	0.4437
226.952	0.451
227.317	0.4699
227.682	0.4869
228.046	0.4906
228.411	0.5382
228.775	0.5406
229.14	0.5497
229.504	0.5733
229.868	0.5858
230.232	0.5855
230.596	0.6052
230.96	0.6261
231.324	0.6254
231.688	0.6437
232.052	0.6764
232.415	0.6678
232.779	0.6616
233.142	0.67
233.505	0.6816
233.869	0.6866
234.232	0.6953
234.595	0.6776
234.958	0.6974
235.321	0.6949
235.684	0.6891
236.047	0.6938
236.409	0.6869
236.772	0.6919
237.134	0.6962
237.497	0.706
237.859	0.702
238.222	0.6951
238.584	0.7017
238.946	0.7039
239.308	0.6946
239.67	0.6919
240.032	0.6903
240.393	0.6964
240.755	0.682
241.117	0.6892
241.478	0.6866
241.84	0.6831
242.201	0.6781
242.562	0.6776
242.924	0.6754
243.285	0.6709
243.646	0.6696
244.007	0.6732
244.368	0.6762
244.728	0.6669
245.089	0.6658
245.45	0.6623
245.81	0.6712
246.171	0.6651
246.531	0.665
246.891	0.6619
247.252	0.6656
247.612	0.6648
247.972	0.663
248.332	0.6668
248.692	0.6639
249.051	0.6691
249.411	0.6684
249.771	0.659
250.13	0.6612
250.49	0.6668
250.849	0.6619
251.208	0.6662
251.568	0.6531
251.927	0.6666
252.286	0.6579
252.645	0.6697
253.004	0.6679
253.363	0.6609
253.721	0.6689
254.08	0.6598
254.439	0.6519
254.797	0.6581
255.155	0.6558
255.514	0.655
255.872	0.6621
256.23	0.6549
256.588	0.6593
256.946	0.6562
257.304	0.6513
257.662	0.6642
258.02	0.6604
258.377	0.6557
258.735	0.6527
259.093	0.6498
259.45	0.651
259.807	0.6513
260.165	0.6473
260.522	0.6519
260.879	0.6392
261.236	0.6437
261.593	0.6379
261.95	0.6419
262.306	0.6323
262.663	0.6316
263.02	0.6327
263.376	0.627
263.733	0.628
264.089	0.6261
264.445	0.6204
264.802	0.6245
265.158	0.6198
265.514	0.6112
265.87	0.6111
266.226	0.6139
266.581	0.6097
266.937	0.6069
267.293	0.609
267.648	0.5962
268.004	0.5989
268.359	0.5903
268.714	0.5966
269.07	0.5867
269.425	0.5848
269.78	0.581
270.135	0.5778
270.49	0.5796
270.844	0.5746
271.199	0.5683
271.554	0.5674
271.908	0.5569
272.263	0.5617
272.617	0.5599
272.972	0.5553
273.326	0.5516
273.68	0.5472
274.034	0.5483
274.388	0.5418
274.742	0.5401
275.096	0.537
275.45	0.5358
275.803	0.5232
276.157	0.5237
276.51	0.5181
276.864	0.5134
277.217	0.5117
277.571	0.5133
277.924	0.5041
278.277	0.5015
278.63	0.4923
278.983	0.4883
279.336	0.4808
279.688	0.4775
280.041	0.4744
280.394	0.4732
280.746	0.4698
281.099	0.4583
281.451	0.4587
281.803	0.4521
282.156	0.4471
282.508	0.4429
282.86	0.4372
283.212	0.431
283.564	0.4286
283.916	0.4246
284.267	0.4227
284.619	0.4175
284.971	0.4121
285.322	0.4072
285.673	0.4036
286.025	0.3971
286.376	0.3942
286.727	0.3879
287.078	0.3866
287.429	0.3811
287.78	0.377
288.131	0.3714
288.482	0.3686
288.833	0.3598
289.183	0.3582
289.534	0.3513
289.884	0.3489
290.235	0.3435
290.585	0.34
290.935	0.3355
291.285	0.3299
291.635	0.3284
291.985	0.3227
292.335	0.3184
292.685	0.3141
293.035	0.3115
293.384	0.3045
293.734	0.3019
294.083	0.2979
294.433	0.2919
294.782	0.2896
295.131	0.2856
295.48	0.2799
295.829	0.277
296.179	0.2726
296.527	0.2683
296.876	0.2645
297.225	0.2618
297.574	0.256
297.922	0.2538
298.271	0.2498
298.619	0.246
298.968	0.2418
299.316	0.2388
299.664	0.2353
300.012	0.2332
300.36	0.2287
300.708	0.2258
301.056	0.2221
301.404	0.2189
301.752	0.2167
302.099	0.2127
302.447	0.2108
302.794	0.208
303.142	0.2057
303.489	0.2028
303.836	0.201
304.183	0.1981
304.531	0.1969
304.878	0.1937
305.224	0.1928
305.571	0.1893
305.918	0.1875
306.265	0.1863
306.611	0.1835
306.958	0.1834
307.304	0.1816
307.651	0.18
307.997	0.1781
308.343	0.1773
308.689	0.175
309.035	0.1745
309.381	0.174
309.727	0.1719
310.073	0.1718
310.419	0.1706
310.764	0.1691
311.11	0.1688
311.455	0.1691
311.801	0.1679
312.146	0.1673
312.491	0.1678
312.837	0.1661
313.182	0.1661
313.527	0.1658
313.872	0.1664
314.216	0.1667
314.561	0.1661
314.906	0.1661
315.251	0.1669
315.595	0.1673
315.94	0.1678
316.284	0.1676
316.628	0.1684
316.972	0.1695
317.317	0.1697
317.661	0.1693
318.005	0.1702
318.348	0.1713
318.692	0.1728
319.036	0.1726
319.38	0.1733
319.723	0.1744
320.067	0.1754
320.41	0.1769
320.754	0.1782
321.097	0.179
321.44	0.1804
321.783	0.1814
322.126	0.1827
322.469	0.1835
322.812	0.1852
323.155	0.1869
323.498	0.1878
323.84	0.1898
324.183	0.1915
324.525	0.1929
324.868	0.1947
325.21	0.1957
325.552	0.1977
325.894	0.1991
326.236	0.2005
326.578	0.2029
326.92	0.2037
327.262	0.2058
327.604	0.2077
327.946	0.2096
328.287	0.2107
328.629	0.2131
328.97	0.2143
329.312	0.2159
329.653	0.2178
329.994	0.2194
330.335	0.2208
330.676	0.2239
331.017	0.225
331.358	0.2276
331.699	0.2301
332.04	0.2312
332.38	0.2325
332.721	0.2349
333.061	0.2372
333.402	0.2384
333.742	0.2407
334.083	0.2422
334.423	0.2428
334.763	0.2455
335.103	0.2459
335.443	0.2481
335.783	0.25
336.123	0.2507
336.462	0.2525
336.802	0.2546
337.141	0.2555
337.481	0.2566
337.82	0.2579
338.16	0.2586
338.499	0.2615
338.838	0.263
339.177	0.2651
339.516	0.2659
339.855	0.2675
340.194	0.269
340.533	0.2706
340.872	0.2704
341.21	0.2723
341.549	0.2733
341.887	0.2746
342.226	0.2751
342.564	0.2762
342.902	0.2769
343.24	0.2771
343.578	0.2773
343.916	0.2789
344.254	0.2786
344.592	0.2792
344.93	0.2801
345.268	0.2791
345.605	0.2794
345.943	0.2807
346.28	0.281
346.618	0.2814
346.955	0.2816
347.292	0.282
347.629	0.282
347.966	0.2821
348.303	0.2826
348.64	0.2828
348.977	0.2827
349.314	0.283
349.65	0.2827
349.987	0.284
350.324	0.2831
350.66	0.2829
350.996	0.2809
351.333	0.2822
351.669	0.2811
352.005	0.2809
352.341	0.28
352.677	0.2782
353.013	0.2776
353.349	0.2769
353.685	0.2754
354.02	0.2751
354.356	0.2723
354.691	0.2715
355.027	0.2715
355.362	0.2704
355.697	0.2694
356.033	0.2684
356.368	0.2672
356.703	0.2654
357.038	0.2651
357.373	0.2635
357.707	0.2634
358.042	0.2621
358.377	0.2611
358.711	0.2594
359.046	0.2584
359.38	0.2578
359.715	0.2565
360.049	0.2553
360.383	0.2538
360.717	0.252
361.051	0.2504
361.385	0.2492
361.719	0.2468
362.053	0.2452
362.387	0.243
362.72	0.2414
363.054	0.239
363.387	0.2376
363.721	0.2356
364.054	0.2327
364.387	0.2314
364.721	0.2293
365.054	0.2274
365.387	0.2257
365.72	0.2237
366.053	0.2224
366.385	0.22
366.718	0.2177
367.051	0.2162
367.383	0.2156
367.716	0.213
368.048	0.2125
368.381	0.21
368.713	0.2088
369.045	0.2079
369.377	0.2054
369.709	0.2047
370.041	0.2034
370.373	0.2008
370.705	0.1989
371.037	0.1973
371.368	0.1956
371.7	0.1948
372.031	0.1924
372.363	0.1898
372.694	0.1871
373.025	0.1846
373.356	0.1826
373.688	0.1805
374.019	0.1792
374.35	0.1765
374.68	0.1737
375.011	0.1721
375.342	0.169
375.673	0.1679
376.003	0.1654
376.334	0.1638
376.664	0.1607
376.995	0.1597
377.325	0.1563
377.655	0.1559
377.985	0.1536
378.315	0.152
378.645	0.1511
378.975	0.1493
379.305	0.1477
379.635	0.1468
379.964	0.1463
380.294	0.143
380.623	0.143
380.953	0.1406
381.282	0.1389
381.611	0.1372
381.941	0.1359
382.27	0.1345
382.599	0.1318
382.928	0.1308
383.257	0.1293
383.585	0.1277
383.914	0.1259
384.243	0.1237
384.571	0.1224
384.9	0.1204
385.228	0.1186
385.557	0.1164
385.885	0.1146
386.213	0.1127
386.541	0.1109
386.869	0.1091
387.197	0.1075
387.525	0.1058
387.853	0.104
388.181	0.1027
388.508	0.1006
388.836	0.0988
389.164	0.0973
389.491	0.096
389.818	0.0948
390.146	0.093
390.473	0.0926
390.8	0.0909
391.127	0.0898
391.454	0.0879
391.781	0.0871
392.108	0.0864
392.435	0.0843
392.761	0.0829
393.088	0.0827
393.415	0.0815
393.741	0.0808
394.067	0.0794
394.394	0.0791
394.72	0.0774
395.046	0.0763
395.372	0.0758
395.698	0.0753
396.024	0.0737
396.35	0.0728
396.676	0.0712
397.001	0.0704
397.327	0.069
397.653	0.0684
397.978	0.067
398.303	0.0667
398.629	0.0642
398.954	0.064
399.279	0.0635
399.604	0.0628
399.929	0.0619
400.254	0.0613
400.579	0.0609
400.904	0.0592
401.229	0.0584
401.553	0.0577
401.878	0.0572
402.202	0.0562
402.527	0.0562
402.851	0.0559
403.175	0.0547
403.5	0.0545
403.824	0.054
404.148	0.0536
404.472	0.0525
404.796	0.0523
405.119	0.0522
405.443	0.0517
405.767	0.0505
406.09	0.0506
406.414	0.0503
406.737	0.0498
407.061	0.0502
407.384	0.0499
407.707	0.0498
408.03	0.0482
408.353	0.0496
408.676	0.0488
408.999	0.0482
409.322	0.0487
409.645	0.0482
409.968	0.0476
410.29	0.0476
410.613	0.048
410.935	0.0478
411.258	0.0473
411.58	0.0465
411.902	0.0477
412.224	0.0465
412.546	0.0467
412.868	0.0462
413.19	0.0459
413.512	0.0465
413.834	0.0452
414.156	0.0458
414.477	0.0462
414.799	0.0458
415.121	0.0461
415.442	0.046
415.763	0.0454
416.085	0.0461
416.406	0.0458
416.727	0.046
417.048	0.0455
417.369	0.0456
417.69	0.0454
418.011	0.0448
418.331	0.0457
418.652	0.0457
418.973	0.0454
419.293	0.0455
419.614	0.0457
419.934	0.0463
420.254	0.0454
420.574	0.0456
420.895	0.0458
421.215	0.0455
421.535	0.046
421.855	0.0452
422.174	0.0458
422.494	0.0445
422.814	0.0452
423.134	0.046
423.453	0.0454
423.773	0.0457
424.092	0.0454
424.411	0.0453
424.731	0.0457
425.05	0.045
425.369	0.0451
425.688	0.0455
426.007	0.0454
426.326	0.046
426.644	0.0458
426.963	0.0457
427.282	0.0456
427.6	0.046
427.919	0.0446
428.237	0.0458
428.556	0.046
428.874	0.0452
429.192	0.046
429.51	0.0465
429.828	0.0462
430.146	0.0459
430.464	0.0452
430.782	0.0456
431.1	0.0457
431.418	0.0454
431.735	0.0456
432.053	0.046
432.37	0.0456
432.688	0.0463
433.005	0.0461
433.322	0.0461
433.639	0.0466
433.957	0.0466
434.274	0.0459
434.591	0.0458
434.907	0.0457
435.224	0.0454
435.541	0.0455
435.858	0.0456
436.174	0.0461
436.491	0.0455
436.807	0.0446
437.124	0.0452
437.44	0.0454
437.756	0.0453
438.072	0.0458
438.388	0.0461
438.704	0.0454
439.02	0.0454
439.336	0.0449
439.652	0.0453
439.968	0.0449
440.283	0.0443
440.599	0.0443
440.914	0.0447
441.23	0.0457
441.545	0.0447
441.86	0.0444
442.175	0.0449
442.491	0.0447
442.806	0.045
443.121	0.044
443.435	0.0445
443.75	0.0445
444.065	0.0443
444.38	0.0442
444.694	0.0445
445.009	0.0446
445.323	0.0444
445.638	0.0438
445.952	0.0441
446.266	0.0442
446.58	0.0443
446.894	0.0441
447.208	0.0435
447.522	0.0433
447.836	0.0436
448.15	0.043
448.464	0.0426
448.777	0.043
449.091	0.0428
449.404	0.0426
449.718	0.0423
450.031	0.0426
450.345	0.0421
450.658	0.042
450.971	0.0423
451.284	0.0427
451.597	0.0422
451.91	0.0416
452.223	0.0419
452.535	0.0406
452.848	0.0418
453.161	0.0405
453.473	0.0416
453.786	0.0407
454.098	0.041
454.411	0.0412
454.723	0.04
455.035	0.0399
455.347	0.0397
455.659	0.0391
455.971	0.0403
456.283	0.0391
456.595	0.0396
456.907	0.0395
457.218	0.0394
457.53	0.0388
457.841	0.0389
458.153	0.039
458.464	0.0391
458.776	0.0383
459.087	0.0388
459.398	0.0384
459.709	0.0384
460.02	0.0382
460.331	0.0368
460.642	0.0376
460.953	0.0375
461.263	0.0366
461.574	0.0363
461.885	0.0356
462.195	0.0361
462.506	0.0362
462.816	0.036
463.126	0.0363
463.437	0.0355
463.747	0.0352
464.057	0.0345
464.367	0.035
464.677	0.0344
464.987	0.0341
465.296	0.0343
465.606	0.0337
465.916	0.0339
466.225	0.0337
466.535	0.0336
466.844	0.0334
467.154	0.0329
467.463	0.0317
467.772	0.033
468.081	0.0322
468.39	0.0319
468.699	0.0321
469.008	0.0306
469.317	0.0307
469.626	0.0296
469.935	0.0296
470.243	0.0301
470.552	0.0302
470.86	0.0302
471.169	0.0293
471.477	0.0294
471.785	0.0299
472.093	0.0295
472.402	0.0291
472.71	0.0299
473.018	0.0283
473.326	0.0277
473.633	0.0287
473.941	0.0284
474.249	0.0269
474.556	0.028
474.864	0.0282
475.171	0.0273
475.479	0.0266
475.786	0.0263
476.094	0.026
476.401	0.0263
476.708	0.026
477.015	0.026
477.322	0.026
477.629	0.0258
477.936	0.0257
478.242	0.0241
478.549	0.0243
478.856	0.0252
479.162	0.0241
479.469	0.0246
479.775	0.0246
480.081	0.0238
480.388	0.0234
480.694	0.0233
481	0.0229
481.306	0.0229
481.612	0.022
481.918	0.0227
482.224	0.0215
482.53	0.0216
482.835	0.0215
483.141	0.022
483.446	0.021
483.752	0.021
484.057	0.021
484.363	0.0205
484.668	0.0205
484.973	0.0196
485.278	0.0198
485.583	0.0192
485.888	0.0195
486.193	0.0179
486.498	0.0179
486.803	0.0185
487.107	0.0187
487.412	0.0176
487.717	0.0175
488.021	0.0179
488.325	0.0182
488.63	0.0183
488.934	0.0178
489.238	0.0178
489.542	0.0164
489.846	0.0168
490.15	0.0169
490.454	0.016
490.758	0.0162
491.062	0.0154
491.366	0.0154
491.669	0.0149
491.973	0.0157
492.276	0.0151
492.58	0.0147
492.883	0.0142
493.186	0.0143
493.489	0.0142
493.792	0.0134
494.096	0.0131
494.399	0.0138
494.701	0.0139
495.004	0.0124
495.307	0.0132
495.61	0.0118
495.912	0.0132
496.215	0.0112
496.517	0.0116
496.82	0.0125
497.122	0.011
497.424	0.0122
497.727	0.0108
498.029	0.0107
498.331	0.0113
498.633	0.0119
498.935	0.0112
499.237	0.011
499.538	0.01
499.84	0.0105
500.142	0.0096
500.443	0.0096
500.745	0.0102
501.046	0.0084
501.348	0.0093
501.649	0.0089
501.95	0.0082
502.251	0.0088
502.552	0.0085
502.853	0.0077
503.154	0.0087
503.455	0.0085
503.756	0.0076
504.057	0.0086
504.357	0.0068
504.658	0.0082
504.958	0.0079
505.259	0.0074
505.559	0.0062
505.859	0.0073
506.16	0.0067
506.46	0.0067
506.76	0.0075
507.06	0.0069
507.36	0.0067
507.66	0.0062
507.96	0.0078
508.259	0.0063
508.559	0.0065
508.859	0.006
509.158	0.006
509.457	0.0051
509.757	0.0059
510.056	0.0059
510.355	0.0066
510.655	0.0051
510.954	0.0063
511.253	0.0055
511.552	0.0054
511.851	0.0053
512.149	0.0039
512.448	0.0048
512.747	0.0052
513.045	0.0048
513.344	0.0044
513.642	0.0035
513.941	0.0036
514.239	0.0044
514.537	0.0029
514.836	0.0035
515.134	0.0027
515.432	0.0041
515.73	0.0028
516.028	0.004
516.326	0.0045
516.623	0.0028
516.921	0.0026
517.219	0.0029
517.516	0.0025
517.814	0.003
518.111	0.0035
518.409	0.0013
518.706	0.0024
519.003	0.0033
519.3	0.0023
519.597	0.0021
519.894	0.003
520.191	0.0021
520.488	0.003
520.785	0.0019
521.082	0.0018
521.378	0.0019
521.675	0.0014
521.971	0.001
522.268	0.0022
522.564	0.0019
522.861	0.0024
523.157	0.0018
523.453	0.0035
523.749	0.0008
524.045	0.0018
524.341	0.0016
524.637	0.001
524.933	0.0003
525.229	0.0015
525.524	-0.0003
525.82	0.0012
526.115	0.0009
526.411	0.0007
526.706	0.0015
527.002	0.001
527.297	-0.0005
527.592	0.0004
527.887	0.0022
528.182	0.001
528.477	0.0023
528.772	0.0012
529.067	0.0016
529.362	0.0011
529.657	0.0011
529.951	0.0003
530.246	-0.0001
530.54	0
530.835	0.0002
531.129	0.0009
531.423	0.0008
531.718	-0.0001
532.012	0.0001
532.306	-0.0001
532.6	-0.0006
532.894	-0.0003
533.188	0.0012
533.482	0.0002
533.775	0.0002
534.069	0.0002
534.363	-0.0018
534.656	-0.0011
534.95	0.0005
535.243	-0.0011
535.536	0.0004
535.83	-0.0011
536.123	-0.0006
536.416	-0.0001
536.709	0.0001
537.002	-0.0007
537.295	-0.0008
537.588	0.0001
537.881	-0.0004
538.173	-0.0002
538.466	0.0004
538.759	-0.0003
539.051	0.0007
539.344	-0.0006
539.636	-0.0007
539.928	-0
540.22	-0.0001
540.513	-0.0007
540.805	0.0004
541.097	-0.0013
541.389	0.0001
541.681	-0.0005
541.972	0.0003
542.264	0.0001
542.556	-0.0004
542.847	-0.0001
543.139	-0.0009
543.431	-0.0011
543.722	-0.0004
544.013	-0.0004
544.305	-0.0013
544.596	-0.0008
544.887	0.0001
545.178	0.0003
545.469	-0.0018
545.76	-0.0009
546.051	-0
546.342	-0.0003
546.632	-0.0018
546.923	-0.0004
547.214	-0.0009
547.504	-0.001
547.795	-0.0011
548.085	-0.0016
548.375	-0.0008
548.666	-0.0018
548.956	-0.001
549.246	0.0003
549.536	-0.0003
549.826	-0.0008
550.116	-0.0012
550.406	-0.002
550.695	-0.0019
550.985	-0.0013
551.275	-0.0014
551.564	-0.0001
551.854	-0.0012
552.143	-0.0016
552.433	-0.002
552.722	-0.0024
553.011	-0.0009
553.3	-0.0003
553.589	-0.0008
553.879	-0.0008
554.167	-0.0002
554.456	0.0004
554.745	0.0003
555.034	-0.0003
555.323	0.0001
555.611	-0
555.9	-0.0007
556.188	-0.0017
556.477	-0.0002
556.765	-0.0029
557.053	-0.0021
557.342	-0.001
557.63	-0.0011
557.918	-0.0001
558.206	0.0006
558.494	-0.0009
558.782	0.0005
559.069	0.0005
559.357	0.0003
559.645	-0.0009
559.932	-0.0002
560.22	-0.0003
560.507	-0.0007
560.795	-0.0012
561.082	-0.0019
561.37	0.0004
561.657	-0.0007
561.944	-0.0013
562.231	0.0002
562.518	0.0007
562.805	-0.0009
563.092	0.0002
563.379	0.0004
563.665	0.0005
563.952	-0.0003
564.239	0.0009
564.525	0.0006
564.811	0.0012
565.098	-0.0002
565.384	0.0002
565.67	-0.0003
565.957	0.0009
566.243	0.0011
566.529	0.0007
566.815	-0.0003
567.101	0.0008
567.387	0.0006
567.672	0.0005
567.958	0.0011
568.244	0
568.529	0.0009
568.815	-0
569.1	-0.0012
569.386	-0.0013
569.671	0.0006
569.956	-0.0002
570.242	-0.0002
570.527	-0.0009
570.812	0.0003
571.097	0.0003
571.382	-0.0006
571.666	0.0001
571.951	0.0002
572.236	0
572.521	0.0006
572.805	-0.0004
573.09	-0.0006
573.374	-0.0008
573.659	-0.0002
573.943	-0.0011
574.227	-0.0006
574.511	-0.0007
574.795	-0.0006
575.079	0.0001
575.363	-0.0005
575.647	-0.0007
575.931	0
576.215	-0.0008
576.499	-0.0007
576.782	-0.001
577.066	-0.0003
577.349	0.0001
577.633	-0.0002
577.916	-0
578.2	-0.0005
578.483	-0.0001
578.766	-0.0008
579.049	-0.0007
579.332	0.001
579.615	0.0008
579.898	0
580.181	-0
580.464	0.0008
580.746	0.0003
581.029	-0.0004
581.312	-0
581.594	-0.0005
581.877	-0.0013
582.159	-0.0015
582.441	-0.0012
582.724	-0.0005
583.006	0
583.288	-0
583.57	0
583.852	0
584.134	0.0008
584.416	0.0001
584.697	0.0003
584.979	-0.0002
585.261	-0.0006
585.542	-0.001
585.824	-0.0006
586.105	-0.0009
586.387	-0.0011
586.668	-0.0006
586.949	-0.0003
587.231	-0.0001
587.512	0
587.793	0.0004
588.074	-0.0011
588.355	-0.0003
588.636	0.0001
588.916	-0.0013
589.197	-0.0008
589.478	-0.0004
589.758	-0.0002
590.039	0.0002
590.319	-0.0002
590.6	0.0009
590.88	0.0011
591.16	0.0006
591.441	0.0011
591.721	0.0001
592.001	0
592.281	-0.0005
592.561	0.0004
592.841	-0.0001
593.12	-0.0021
593.4	-0.0009
593.68	-0.0015
593.959	-0.001
594.239	-0.0013
594.518	-0.0015
594.798	-0.0003
595.077	-0.0006
595.356	-0.0002
595.636	-0.001
595.915	-0.0009
596.194	-0.0003
596.473	-0
596.752	0.0005
597.031	0.001
597.31	0.0007
597.588	-0.0008
597.867	0
598.146	-0.0008
598.424	-0
598.703	-0.0005
598.981	-0.0008
599.259	-0.0012
599.538	-0.0013
599.816	0.0002
600.094	-0.0006
600.372	-0.0019
600.65	-0.0024
600.928	-0.0006
601.206	-0.0001
601.484	-0.0005
601.762	-0.0006
602.04	-0.0001
602.317	-0.0007
602.595	-0.0005
602.872	-0.0003
603.15	0.0013
603.427	-0.0005
603.704	-0.0014
603.982	-0.0003
604.259	-0.0005
604.536	-0.0006
604.813	-0.0006
605.09	-0.0008
605.367	-0.0006
605.644	-0.001
605.921	-0.0013
606.197	-0.0007
606.474	-0.0007
606.751	-0.0006
607.027	-0.0005
607.304	-0
607.58	-0.0007
607.856	-0.0013
608.133	-0.0015
608.409	-0.0003
608.685	-0.0003
608.961	-0.0009
609.237	-0.0012
609.513	-0.0008
609.789	-0.0011
610.065	-0.0008
610.341	-0.0007
610.616	-0.0015
610.892	-0.0007
611.167	0.0002
611.443	-0.0013
611.718	-0.0011
611.994	-0.0008
612.269	-0.0007
612.544	-0.0011
612.819	-0.0014
613.095	-0.0014
613.37	-0.0001
613.645	-0.0013
613.919	-0.0009
614.194	-0.0003
614.469	0.0003
614.744	-0.0004
615.019	-0.0013
615.293	-0.0007
615.568	-0.0006
615.842	-0.0004
616.116	0.0003
616.391	-0
616.665	0.0005
616.939	0.0001
617.213	0.0003
617.488	0.0003
617.762	-0.0003
618.035	-0.0006
618.309	-0.0009
618.583	-0.0008
618.857	0.0006
619.131	0.0009
619.404	-0.0001
619.678	0.0004
619.951	-0
620.225	-0.0016
620.498	-0.0008
620.771	-0.0006
621.045	-0.0005
621.318	-0.0015
621.591	-0.0021
621.864	-0.0012
622.137	-0.0014
622.41	-0.0018
622.683	-0.0011
622.956	-0.0005
623.228	-0.0007
623.501	-0.0009
623.774	-0.0004
624.046	-0.0011
624.319	-0.0012
624.591	-0.0019
624.863	-0.001
625.136	-0.0011
625.408	-0.0005
625.68	-0.0001
625.952	-0.0003
626.224	-0.0003
626.496	0.0002
626.768	-0.0008
627.04	-0.0003
627.311	-0.0007
627.583	-0.001
627.855	-0.0001
628.126	0.0004
628.398	0.0016
628.669	0.0011
628.941	0.0023
629.212	0.002
629.483	0.0006
629.755	-0.0002
630.026	0.0001
630.297	0.0006
630.568	-0.0008
630.839	0.0002
631.11	-0.0008
631.38	0.0002
631.651	0.0009
631.922	0.0007
632.192	-0.0005
632.463	-0.0011
632.733	-0.0007
633.004	0.0001
633.274	-0.0005
633.545	0
633.815	0.0008
634.085	-0.0019
634.355	-0.0022
634.625	-0.002
634.895	-0.0018
635.165	-0.0006
635.435	-0.002
635.705	-0.0017
635.974	-0.0021
636.244	-0.0019
636.514	-0.0005
636.783	-0.0014
637.053	-0.0022
637.322	0.0005
637.591	-0.0001
637.861	-0.0018
638.13	-0.0018
638.399	-0.0027
638.668	-0.0026
638.937	-0.003
639.206	-0.0032
639.475	-0.0031
639.744	-0.0034
640.013	-0.0025
640.281	-0.002
640.55	-0.0009
640.819	-0.0013
641.087	-0.001
641.356	-0.002
641.624	-0.0001
641.892	0.0008
642.161	-0.0001
642.429	-0.0009
642.697	-0.0009
642.965	-0.0013
643.233	-0.0016
643.501	-0.0013
643.769	-0.0004
644.037	-0.0003
644.305	-0.0012
644.572	-0.0016
644.84	-0.0011
645.108	-0.0017
645.375	-0.0024
645.643	-0.0008
645.91	0.0004
646.177	0.001
646.445	0.0008
646.712	0.0028
646.979	0.0033
647.246	0.0044
647.513	0.0034
647.78	0.0015
648.047	0.0005
648.314	-0.0008
648.58	-0.0014
648.847	-0.0003
649.114	0.001
649.38	-0.0001
649.647	-0.0003
649.913	-0.0001
650.18	-0.0002
650.446	-0.0007
650.712	-0.0011
650.978	-0.0011
651.245	-0.0012
651.511	-0.0004
651.777	-0.001
652.043	-0.0001
652.309	0.0003
652.574	0.002
652.84	0.0014
653.106	0.0019
653.371	0.0013
653.637	0.0009
653.903	0.0016
654.168	0.0017
654.433	0.0037
654.699	0.0025
654.964	0.0024
655.229	0.0019
655.494	0.001
655.759	-0.0005
656.024	0.0003
656.289	-0
656.554	-0.0024
656.819	-0.0016
657.084	0.0008
657.349	0.0004
657.613	0.0006
657.878	-0.0003
658.142	-0.0001
658.407	0.0004
658.671	0.001
658.936	0.0006
659.2	0.0015
659.464	0.0007
659.728	0.0016
659.992	0.0007
660.256	0.0006
660.52	0.0005
660.784	0.0001
661.048	-0.0002
661.312	0.0004
661.575	0.0005
661.839	0.0016
662.103	-0.0008
662.366	-0.0004
662.63	-0.0009
662.893	-0.0006
663.156	-0.0006
663.42	-0.0013
663.683	-0.0024
663.946	-0.0026
664.209	-0.002
664.472	-0.003
664.735	-0.0014
664.998	-0.0005
665.261	-0.0007
665.524	-0.001
665.786	-0.0002
666.049	-0.0004
666.312	0.0001
666.574	-0.0013
666.837	0.0005
667.099	0.0002
667.361	-0.0016
667.624	-0.001
667.886	-0.0026
668.148	-0.0017
668.41	-0.0012
668.672	-0.0014
668.934	0.0015
669.196	0.0012
669.458	0.0021
669.72	0.002
669.982	0.0008
670.243	0.0012
670.505	-0
670.766	0.0006
671.028	-0.0003
671.289	-0.0009
671.551	-0
671.812	-0.0021
672.073	-0.0007
672.334	-0.0009
672.596	-0.002
672.857	-0.0021
673.118	-0.0019
673.379	-0.0029
673.639	-0.0027
673.9	-0.0017
674.161	-0.0017
674.422	-0.0033
674.682	-0.002
674.943	-0.0025
675.203	-0.0016
675.464	-0.002
675.724	-0.0033
675.985	-0.0033
676.245	-0.0029
676.505	-0.0032
676.765	-0.0034
677.025	-0.0022
677.285	-0.0024
677.545	-0.0002
677.805	-0.0012
678.065	-0.0012
678.325	-0.0009
678.585	-0.0008
678.844	-0.0027
679.104	-0.003
679.363	-0.0033
679.623	-0.0031
679.882	-0.0028
680.142	-0.0025
680.401	-0.0026
680.66	-0.0008
680.919	-0.0004
681.178	-0.0014
681.437	-0.0003
681.696	-0.0009
681.955	-0.0012
682.214	-0.0003
682.473	-0.0013
682.732	-0.0018
682.99	-0.0018
683.249	-0.0014
683.508	-0.0014
683.766	-0.0014
684.024	-0.0018
684.283	-0.0003
684.541	-0.0006
684.799	-0.0011
685.058	-0.0004
685.316	-0.0016
685.574	-0.0012
685.832	-0.0019
686.09	-0.0021
686.348	-0.0027
686.606	-0.0029
686.863	-0.0033
687.121	-0.0018
687.379	-0.0014
687.636	-0.0019
687.894	-0.0007
688.151	-0.0012
688.409	-0.0008
688.666	-0.0016
688.923	-0.0031
689.181	-0.0027
689.438	-0.003
689.695	-0.0027
689.952	-0.0047
690.209	-0.0032
690.466	-0.0041
690.723	-0.0024
690.979	-0.0025
691.236	-0.0024
691.493	-0.0018
691.75	-0.0018
692.006	-0.0025
692.263	-0.0018
692.519	-0.0022
692.775	-0.0012
693.032	-0.0018
693.288	-0.001
693.544	-0.001
693.8	-0.0002
694.056	-0.0015
694.313	-0.0008
694.568	-0.001
694.824	-0.002
695.08	-0.0017
695.336	-0.0031
695.592	-0.0028
695.847	-0.0015
696.103	-0.0021
696.359	-0.0032
696.614	-0.0026
696.869	-0.002
697.125	-0.0031
697.38	-0.0027
697.635	-0.0016
697.891	-0.001
698.146	-0.0009
698.401	-0.0013
698.656	-0.0017
698.911	-0.0021
699.166	-0.001
699.42	0
699.675	-0.0007
699.93	-0.0006
700.185	-0.0012
700.439	-0.0005
700.694	-0.0003
700.948	-0.0009
701.203	-0.0018
701.457	-0.0019
701.711	-0.0022
701.965	-0.002
702.22	-0.0021
702.474	-0.0025
702.728	-0.002
702.982	-0.0024
703.236	-0.0014
703.49	-0.0008
703.743	-0.0022
703.997	-0.0016
704.251	-0.0027
704.504	-0.0022
704.758	-0.0024
705.012	-0.0028
705.265	-0.002
705.518	-0.0012
705.772	-0.0015
706.025	-0.0015
706.278	-0.0022
706.531	-0.0031
706.785	-0.0026
707.038	-0.004
707.291	-0.0033
707.543	-0.0025
707.796	-0.0031
708.049	-0.0028
708.302	-0.0033
708.555	-0.0032
708.807	-0.002
709.06	-0.0019
709.312	-0.0016
709.565	-0.002
709.817	-0.0031
710.069	-0.0028
710.322	-0.0034
710.574	-0.0036
710.826	-0.0037
711.078	-0.004
711.33	-0.0031
711.582	-0.0042
711.834	-0.0041
712.086	-0.0053
712.338	-0.0059
712.59	-0.0046
712.841	-0.006
713.093	-0.0053
713.344	-0.006
713.596	-0.0043
713.847	-0.0038
714.099	-0.0044
714.35	-0.0045
714.601	-0.0038
714.853	-0.0031
715.104	-0.0039
715.355	-0.003
715.606	-0.0031
715.857	-0.0028
716.108	-0.0038
716.359	-0.0026
716.609	-0.0038
716.86	-0.0027
717.111	-0.0025
717.361	-0.002
717.612	0.0005
717.863	0.0007
718.113	0.0012
718.363	0.0003
718.614	0.0008
718.864	0.0014
719.114	0.0008
719.364	0.0004
719.614	-0
719.865	0.0013
720.114	0.0017
720.364	0.0012
720.614	0.0025
720.864	0.0025
721.114	0.0021
721.364	0.0012
721.613	0.0013
721.863	0.0012
722.112	0.0014
722.362	0.0002
722.611	-0.0012
722.86	-0.0011
723.11	-0.0004
723.359	-0.0009
723.608	-0.0004
723.857	-0.0016
724.106	-0.0004
724.355	-0.0001
724.604	-0.0003
724.853	-0.0008
725.102	-0.0022
725.351	-0.002
725.599	-0.0031
725.848	-0.0039
726.097	-0.0024
726.345	-0.0023
726.594	-0.0038
726.842	-0.0026
727.09	-0.0039
727.339	-0.0042
727.587	-0.0052
727.835	-0.005
728.083	-0.0045
728.331	-0.0046
728.579	-0.0041
728.827	-0.0026
729.075	-0.0024
729.323	-0.0029
729.571	-0.0035
729.818	-0.0027
730.066	-0.0028
730.314	-0.0024
730.561	-0.0009
730.809	-0.0004
731.056	-0.0008
731.303	-0.0009
731.551	-0.0012
731.798	-0.0002
732.045	-0.0008
732.292	0.0002
732.539	0.0008
732.786	0.0019
733.033	0.0008
733.28	0.0011
733.527	0.0013
733.774	0.0004
734.021	-0.0011
734.267	-0.0028
734.514	-0.0025
734.76	-0.0038
735.007	-0.0028
735.253	-0.0031
735.5	-0.0028
735.746	-0.0035
735.992	-0.0026
736.238	-0.0029
736.485	-0.0021
736.731	-0.0018
736.977	-0.0019
737.223	-0.0024
737.469	-0.0016
737.715	-0.002
737.96	-0.0022
738.206	-0.003
738.452	-0.0024
738.697	-0.0023
738.943	-0.0024
739.189	-0.0021
739.434	-0.002
739.679	-0.0036
739.925	-0.0044
740.17	-0.0049
740.415	-0.0049
740.66	-0.0069
740.906	-0.0063
741.151	-0.0056
741.396	-0.0057
741.641	-0.006
741.886	-0.0065
742.13	-0.0041
742.375	-0.0039
742.62	-0.0037
742.865	-0.0037
743.109	-0.0023
743.354	-0.0017
743.598	-0.0004
743.843	0.0001
744.087	0.0008
744.331	0.001
744.576	0.0018
744.82	0.0023
745.064	0.0022
745.308	0.0028
745.552	0.0018
745.796	0.0009
746.04	0.0002
746.284	0.0008
746.528	0.0004
746.771	0.0028
747.015	0.002
747.259	0.0011
747.502	-0.0002
747.746	-0.0003
747.989	0.0008
748.233	-0.0002
748.476	0.0007
748.719	0.0022
748.963	0.0024
749.206	0.0025
749.449	0.0009
749.692	0.0008
749.935	0.0008
750.178	-0.0006
750.421	-0.0013
750.664	-0.0012
750.906	0.0004
751.149	0.0004
751.392	-0.0005
751.635	-0.001
751.877	-0.001
752.12	-0.0008
752.362	-0.0019
752.604	-0.0009
752.847	0.0003
753.089	0.0008
753.331	0.0017
753.573	0.0001
753.816	-0.0011
754.058	-0.0018
754.3	-0.0033
754.542	-0.0021
754.783	-0.0033
755.025	-0.0018
755.267	-0.0009
755.509	-0.0021
755.75	-0.0017
755.992	-0.0014
756.234	-0.0029
756.475	-0.0019
756.716	-0.0029
756.958	-0.0024
757.199	-0.0025
757.44	-0.0023
757.682	-0.0022
757.923	-0.0017
758.164	-0.001
758.405	-0.0015
758.646	0.0003
758.887	0
759.128	0.0002
759.369	-0.0002
759.609	0.0008
759.85	0.0007
760.091	0.0009
760.331	0.0005
760.572	-0.0003
760.812	-0.0004
761.053	-0.0015
761.293	-0.001
761.533	-0.0007
761.774	0.0003
762.014	0.0003
762.254	-0.0007
762.494	-0.0013
762.734	-0.0016
762.974	-0.0028
763.214	-0.0024
763.454	-0.0018
763.694	-0.0015
763.933	-0.0029
764.173	-0.0046
764.413	-0.0046
764.652	-0.0049
764.892	-0.0044
765.131	-0.0046
765.371	-0.0039
765.61	-0.0037
765.849	-0.0039
766.089	-0.0031
766.328	-0.0026
766.567	-0.0024
766.806	-0.0025
767.045	-0.0016
767.284	-0.0019
767.523	-0.0022
767.762	-0.0028
768.001	-0.0016
768.239	-0.0017
768.478	-0.001
768.717	-0.0008
768.955	-0.0002
769.194	-0.0012
769.432	0.0006
769.671	0.0008
769.909	0.0012
770.148	0.0006
770.386	0.0012
770.624	0.0018
770.862	0.0008
771.1	0.001
771.338	0.0018
771.576	-0
771.814	-0.0001
772.052	0.0007
772.29	0.0015
772.528	0.0031
772.765	0.0028
773.003	0.003
773.24	0.003
773.478	0.0009
773.716	0.0011
773.953	0.0008
774.19	0.0009
774.428	0.0023
774.665	0.0022
774.902	0.0033
775.139	0.0033
775.376	0.0018
775.613	0.0029
775.85	0.0016
776.087	0.0013
776.324	0.0013
776.561	-0.0001
776.798	0.0002
777.034	-0.0002
777.271	0.0003
777.508	0.0008
777.744	0.0018
777.981	0.0021
778.217	0.0029
778.454	0.0017
778.69	0.0002
778.926	-0.0012
779.162	-0.0018
779.399	-0.0012
779.635	-0.0015
779.871	-0.0018
780.107	-0.0017
780.343	-0.0015
780.579	-0.0019
780.814	-0.0019
781.05	-0.0015
781.286	-0.0024
781.522	-0.002
781.757	-0.0018
781.993	-0.0016
782.228	-0.0028
782.464	-0.0025
782.699	-0.0029
782.934	-0.0035
783.17	-0.0027
783.405	-0.0023
783.64	-0.0034
783.875	-0.0044
784.11	-0.0039
784.345	-0.003
784.58	-0.0027
784.815	-0.0022
785.05	-0.0035
785.285	-0.0036
785.52	-0.0041
785.754	-0.0048
785.989	-0.0055
786.223	-0.007
786.458	-0.0059
786.692	-0.0057
786.927	-0.0055
787.161	-0.0039
787.396	-0.0047
787.63	-0.005
787.864	-0.0052
788.098	-0.0057
788.332	-0.0043
788.566	-0.0039
788.8	-0.0031
789.034	-0.0025
789.268	-0.0031
789.502	-0.0027
789.736	-0.0028
789.969	-0.0027
790.203	-0.0033
790.437	-0.0046
790.67	-0.0059
790.904	-0.0063
791.137	-0.0072
791.37	-0.0063
791.604	-0.0083
791.837	-0.0071
792.07	-0.0071
792.303	-0.007
792.537	-0.0069
792.77	-0.0059
793.003	-0.0064
793.236	-0.0053
793.469	-0.0056
793.701	-0.0039
793.934	-0.0036
794.167	-0.0023
794.4	-0.003
794.632	-0.0022
794.865	-0.0019
795.097	-0.0019
795.33	-0.0032
795.562	-0.0025
795.795	-0.0022
796.027	-0.0009
796.259	0
796.491	-0.0001
796.724	-0.0005
796.956	0.0001
797.188	0.0002
797.42	0.0004
797.652	-0.0005
797.883	-0.0001
798.115	0.0008
798.347	-0.0004
798.579	0.0015
798.81	0.0015
799.042	0.0023
799.274	0.0013
799.505	0.0005
799.737	0.0008
799.968	0.0002
800.199	-0.001
800.431	-0.0012
800.662	-0.001
800.893	-0.002
801.124	-0.0018
801.355	-0.0024
801.586	-0.0019
801.817	-0.0023
802.048	-0.0042
802.279	-0.0032
802.51	-0.0023
802.741	-0.0014
802.971	-0.0003
803.202	-0.0002
803.433	0.0001
803.663	-0.0014
803.894	-0.0018
804.124	-0.0017
804.354	-0.001
804.585	-0.0011
804.815	-0.001
805.045	-0.0013
805.275	-0.0002
805.506	-0.0328
805.736	0.0034
805.966	0.0215
806.196	0.0573
