Data from 03 0.5 mM K2Cr2O7 0.3 mM BQDS 1 M H2SO4 5 min_Absorbance_0221.txt Node
Date: Tue Dec 14 12:04:46 EST 2021
User: kwabilab-user
Spectrometer: HDX00518
Trigger mode: 0
Integration Time (sec): 5.000000E-2
Scans to average: 50
Nonlinearity correction enabled: false
Boxcar width: 0
Storing dark spectrum: false
XAxis mode: Wavelengths
Number of Pixels in Spectrum: 2068
>>>>>Begin Spectral Data<<<<<
195.27	-0.1185
195.642	-0.1963
196.014	-0.0528
196.386	-0.0771
196.758	-0.0679
197.129	-0.0326
197.501	-0.0464
197.872	-0.0125
198.244	0.0008
198.615	0.0295
198.986	0.0036
199.357	0.0186
199.728	0.0171
200.099	0.0242
200.47	-0.0049
200.841	0.0137
201.212	0.018
201.582	0.0086
201.953	0.007
202.323	0.0143
202.694	0.0016
203.064	-0.0052
203.434	0.0118
203.804	-0.0135
204.174	0.0199
204.544	0.002
204.914	-0.0047
205.284	0.0133
205.653	-0.016
206.023	0.0073
206.393	0.0023
206.762	0.0099
207.131	0.0205
207.501	-0.0118
207.87	0.0144
208.239	0.0218
208.608	-0.0105
208.977	-0.0258
209.346	0.0012
209.715	-0.0002
210.083	-0.0026
210.452	-0.004
210.82	0.0124
211.189	-0.0209
211.557	0.0104
211.925	-0.0206
212.294	-0.0023
212.662	0.0052
213.03	-0.0072
213.398	0.0172
213.766	0.0302
214.133	-0.0073
214.501	0.009
214.869	0.0259
215.236	0.0049
215.604	0.0046
215.971	0.0079
216.338	0.0436
216.705	0.038
217.072	0.0459
217.439	0.0232
217.806	0.0292
218.173	0.0234
218.54	0.0188
218.907	0.0475
219.273	0.0504
219.64	0.0372
220.006	0.0877
220.373	0.063
220.739	0.069
221.105	0.0942
221.471	0.108
221.837	0.1209
222.203	0.1315
222.569	0.1586
222.935	0.177
223.3	0.1808
223.666	0.222
224.031	0.2482
224.397	0.2415
224.762	0.2726
225.127	0.3022
225.493	0.3299
225.858	0.3475
226.223	0.3715
226.588	0.3818
226.952	0.4255
227.317	0.4333
227.682	0.4321
228.046	0.4563
228.411	0.4851
228.775	0.5053
229.14	0.4971
229.504	0.5299
229.868	0.5368
230.232	0.5419
230.596	0.5626
230.96	0.5763
231.324	0.5731
231.688	0.5982
232.052	0.5927
232.415	0.6053
232.779	0.6039
233.142	0.6107
233.505	0.6259
233.869	0.6441
234.232	0.6195
234.595	0.6333
234.958	0.632
235.321	0.6253
235.684	0.6486
236.047	0.6341
236.409	0.6357
236.772	0.6303
237.134	0.634
237.497	0.6263
237.859	0.6353
238.222	0.6264
238.584	0.632
238.946	0.6328
239.308	0.6184
239.67	0.6187
240.032	0.6189
240.393	0.6207
240.755	0.6229
241.117	0.6097
241.478	0.6139
241.84	0.609
242.201	0.6056
242.562	0.599
242.924	0.5924
243.285	0.5968
243.646	0.6053
244.007	0.594
244.368	0.5917
244.728	0.5931
245.089	0.5945
245.45	0.5923
245.81	0.5785
246.171	0.5896
246.531	0.5809
246.891	0.5775
247.252	0.58
247.612	0.5698
247.972	0.575
248.332	0.5755
248.692	0.5718
249.051	0.5786
249.411	0.5708
249.771	0.5659
250.13	0.5636
250.49	0.5627
250.849	0.5631
251.208	0.5695
251.568	0.5635
251.927	0.5676
252.286	0.5637
252.645	0.568
253.004	0.5616
253.363	0.5566
253.721	0.5585
254.08	0.5602
254.439	0.5511
254.797	0.5547
255.155	0.5526
255.514	0.5504
255.872	0.5553
256.23	0.5501
256.588	0.5502
256.946	0.5497
257.304	0.5463
257.662	0.5531
258.02	0.545
258.377	0.5426
258.735	0.5435
259.093	0.5354
259.45	0.5383
259.807	0.5384
260.165	0.5294
260.522	0.5335
260.879	0.5291
261.236	0.5303
261.593	0.5334
261.95	0.5293
262.306	0.5227
262.663	0.5213
263.02	0.5178
263.376	0.5188
263.733	0.5168
264.089	0.5107
264.445	0.5069
264.802	0.5082
265.158	0.5097
265.514	0.5009
265.87	0.5028
266.226	0.5052
266.581	0.4989
266.937	0.4925
267.293	0.4937
267.648	0.4873
268.004	0.4841
268.359	0.4851
268.714	0.4803
269.07	0.4782
269.425	0.4753
269.78	0.4661
270.135	0.4724
270.49	0.4713
270.844	0.465
271.199	0.463
271.554	0.4588
271.908	0.4567
272.263	0.4584
272.617	0.4518
272.972	0.4474
273.326	0.4448
273.68	0.4431
274.034	0.437
274.388	0.4407
274.742	0.4331
275.096	0.4266
275.45	0.4252
275.803	0.4241
276.157	0.4227
276.51	0.4165
276.864	0.4127
277.217	0.4115
277.571	0.4068
277.924	0.4036
278.277	0.4021
278.63	0.3989
278.983	0.3939
279.336	0.3869
279.688	0.3849
280.041	0.3822
280.394	0.378
280.746	0.3752
281.099	0.3715
281.451	0.3656
281.803	0.3632
282.156	0.3595
282.508	0.3576
282.86	0.3519
283.212	0.3467
283.564	0.3448
283.916	0.3419
284.267	0.3364
284.619	0.3336
284.971	0.3284
285.322	0.3266
285.673	0.3214
286.025	0.3185
286.376	0.3147
286.727	0.3102
287.078	0.3084
287.429	0.3031
287.78	0.3002
288.131	0.2954
288.482	0.2918
288.833	0.2883
289.183	0.2827
289.534	0.2793
289.884	0.2757
290.235	0.2743
290.585	0.2706
290.935	0.2654
291.285	0.2585
291.635	0.2587
291.985	0.2545
292.335	0.2511
292.685	0.2488
293.035	0.2457
293.384	0.2411
293.734	0.2384
294.083	0.2351
294.433	0.2298
294.782	0.228
295.131	0.2239
295.48	0.2196
295.829	0.2168
296.179	0.2142
296.527	0.212
296.876	0.2076
297.225	0.2039
297.574	0.2005
297.922	0.1985
298.271	0.1955
298.619	0.1924
298.968	0.1885
299.316	0.1868
299.664	0.1832
300.012	0.1809
300.36	0.1784
300.708	0.1755
301.056	0.1738
301.404	0.1708
301.752	0.1689
302.099	0.1661
302.447	0.1642
302.794	0.1622
303.142	0.1601
303.489	0.1567
303.836	0.1564
304.183	0.1539
304.531	0.1531
304.878	0.1508
305.224	0.1491
305.571	0.1471
305.918	0.146
306.265	0.1443
306.611	0.1431
306.958	0.1421
307.304	0.1402
307.651	0.14
307.997	0.1392
308.343	0.1386
308.689	0.1365
309.035	0.1359
309.381	0.1357
309.727	0.1356
310.073	0.1342
310.419	0.1338
310.764	0.1333
311.11	0.1324
311.455	0.1318
311.801	0.1324
312.146	0.1321
312.491	0.1312
312.837	0.1306
313.182	0.1309
313.527	0.1313
313.872	0.131
314.216	0.1321
314.561	0.1317
314.906	0.1308
315.251	0.1311
315.595	0.1322
315.94	0.1324
316.284	0.1334
316.628	0.1341
316.972	0.1343
317.317	0.1352
317.661	0.1349
318.005	0.1359
318.348	0.1373
318.692	0.138
319.036	0.1378
319.38	0.1385
319.723	0.1403
320.067	0.1416
320.41	0.1424
320.754	0.1427
321.097	0.1444
321.44	0.1451
321.783	0.146
322.126	0.1486
322.469	0.1486
322.812	0.1499
323.155	0.1515
323.498	0.1522
323.84	0.1537
324.183	0.1555
324.525	0.1577
324.868	0.1587
325.21	0.1586
325.552	0.1618
325.894	0.1626
326.236	0.1636
326.578	0.1655
326.92	0.1668
327.262	0.1691
327.604	0.1699
327.946	0.1716
328.287	0.1727
328.629	0.1754
328.97	0.1767
329.312	0.1783
329.653	0.179
329.994	0.1816
330.335	0.1826
330.676	0.1854
331.017	0.1869
331.358	0.1882
331.699	0.1896
332.04	0.1921
332.38	0.1931
332.721	0.1943
333.061	0.1968
333.402	0.1978
333.742	0.2003
334.083	0.2009
334.423	0.2022
334.763	0.2039
335.103	0.205
335.443	0.2065
335.783	0.2086
336.123	0.2094
336.462	0.2106
336.802	0.2128
337.141	0.214
337.481	0.2154
337.82	0.2167
338.16	0.2172
338.499	0.219
338.838	0.2203
339.177	0.2225
339.516	0.2233
339.855	0.225
340.194	0.2252
340.533	0.2266
340.872	0.2279
341.21	0.2284
341.549	0.2306
341.887	0.2312
342.226	0.2318
342.564	0.2326
342.902	0.2329
343.24	0.2349
343.578	0.2336
343.916	0.2353
344.254	0.2349
344.592	0.236
344.93	0.2366
345.268	0.2363
345.605	0.236
345.943	0.2374
346.28	0.2377
346.618	0.2372
346.955	0.2379
347.292	0.2382
347.629	0.2392
347.966	0.2392
348.303	0.2388
348.64	0.2395
348.977	0.2395
349.314	0.2401
349.65	0.2394
349.987	0.2399
350.324	0.2406
350.66	0.2405
350.996	0.2396
351.333	0.2391
351.669	0.2388
352.005	0.2386
352.341	0.2374
352.677	0.236
353.013	0.2359
353.349	0.234
353.685	0.234
354.02	0.2325
354.356	0.2309
354.691	0.2306
355.027	0.2299
355.362	0.2292
355.697	0.229
356.033	0.2276
356.368	0.2268
356.703	0.2255
357.038	0.2244
357.373	0.2236
357.707	0.2232
358.042	0.2218
358.377	0.2217
358.711	0.22
359.046	0.2192
359.38	0.2182
359.715	0.2181
360.049	0.2169
360.383	0.2158
360.717	0.2143
361.051	0.2132
361.385	0.2118
361.719	0.2091
362.053	0.2086
362.387	0.2065
362.72	0.2043
363.054	0.203
363.387	0.2014
363.721	0.1996
364.054	0.1976
364.387	0.1965
364.721	0.1943
365.054	0.1931
365.387	0.1906
365.72	0.1888
366.053	0.188
366.385	0.1852
366.718	0.1846
367.051	0.1836
367.383	0.1824
367.716	0.1813
368.048	0.1795
368.381	0.1776
368.713	0.177
369.045	0.1761
369.377	0.1736
369.709	0.1736
370.041	0.1711
370.373	0.1693
370.705	0.1681
371.037	0.1673
371.368	0.1653
371.7	0.1645
372.031	0.162
372.363	0.1601
372.694	0.1579
373.025	0.156
373.356	0.1533
373.688	0.1521
374.019	0.1503
374.35	0.1484
374.68	0.1464
375.011	0.1447
375.342	0.1424
375.673	0.1408
376.003	0.1383
376.334	0.1376
376.664	0.1351
376.995	0.134
377.325	0.1314
377.655	0.1302
377.985	0.1293
378.315	0.1273
378.645	0.1266
378.975	0.1256
379.305	0.1238
379.635	0.123
379.964	0.1218
380.294	0.12
380.623	0.119
380.953	0.1176
381.282	0.1159
381.611	0.1147
381.941	0.1137
382.27	0.1118
382.599	0.1106
382.928	0.1088
383.257	0.1075
383.585	0.1066
383.914	0.1056
384.243	0.1031
384.571	0.1016
384.9	0.0992
385.228	0.0979
385.557	0.096
385.885	0.0946
386.213	0.0931
386.541	0.0918
386.869	0.0907
387.197	0.0885
387.525	0.0867
387.853	0.0854
388.181	0.0844
388.508	0.0829
388.836	0.0809
389.164	0.0795
389.491	0.079
389.818	0.0776
390.146	0.0761
390.473	0.0754
390.8	0.0742
391.127	0.073
391.454	0.0719
391.781	0.0712
392.108	0.0701
392.435	0.0687
392.761	0.0681
393.088	0.0666
393.415	0.0663
393.741	0.0657
394.067	0.0643
394.394	0.0639
394.72	0.0627
395.046	0.0622
395.372	0.0611
395.698	0.061
396.024	0.0601
396.35	0.0591
396.676	0.0573
397.001	0.0574
397.327	0.0563
397.653	0.0546
397.978	0.0534
398.303	0.0532
398.629	0.0514
398.954	0.0513
399.279	0.0504
399.604	0.0504
399.929	0.0497
400.254	0.0483
400.579	0.0482
400.904	0.0475
401.229	0.047
401.553	0.0469
401.878	0.0458
402.202	0.0449
402.527	0.0448
402.851	0.0441
403.175	0.0437
403.5	0.0434
403.824	0.0427
404.148	0.0427
404.472	0.0418
404.796	0.0411
405.119	0.0416
405.443	0.0409
405.767	0.0402
406.09	0.0407
406.414	0.0397
406.737	0.0399
407.061	0.0399
407.384	0.0396
407.707	0.0393
408.03	0.039
408.353	0.0396
408.676	0.0385
408.999	0.0385
409.322	0.0384
409.645	0.0384
409.968	0.038
410.29	0.0379
410.613	0.0385
410.935	0.038
411.258	0.0382
411.58	0.0376
411.902	0.0381
412.224	0.0368
412.546	0.0377
412.868	0.0362
413.19	0.0373
413.512	0.0377
413.834	0.0365
414.156	0.0373
414.477	0.0371
414.799	0.0367
415.121	0.0377
415.442	0.0368
415.763	0.0368
416.085	0.0368
416.406	0.037
416.727	0.037
417.048	0.0366
417.369	0.0361
417.69	0.0363
418.011	0.0363
418.331	0.0366
418.652	0.0369
418.973	0.0364
419.293	0.0368
419.614	0.037
419.934	0.0373
420.254	0.0374
420.574	0.0373
420.895	0.0367
421.215	0.0366
421.535	0.0365
421.855	0.0364
422.174	0.0365
422.494	0.0368
422.814	0.0365
423.134	0.0362
423.453	0.0376
423.773	0.0369
424.092	0.0371
424.411	0.0367
424.731	0.0373
425.05	0.0366
425.369	0.037
425.688	0.0369
426.007	0.0373
426.326	0.0367
426.644	0.0372
426.963	0.038
427.282	0.0366
427.6	0.0375
427.919	0.0366
428.237	0.037
428.556	0.0374
428.874	0.0368
429.192	0.0379
429.51	0.0379
429.828	0.0375
430.146	0.0375
430.464	0.0366
430.782	0.0373
431.1	0.038
431.418	0.0375
431.735	0.037
432.053	0.0376
432.37	0.0375
432.688	0.0373
433.005	0.0377
433.322	0.038
433.639	0.0378
433.957	0.0385
434.274	0.0374
434.591	0.0377
434.907	0.0374
435.224	0.0372
435.541	0.0368
435.858	0.0379
436.174	0.0374
436.491	0.0368
436.807	0.0358
437.124	0.037
437.44	0.0372
437.756	0.0374
438.072	0.0376
438.388	0.0377
438.704	0.037
439.02	0.0369
439.336	0.0367
439.652	0.0368
439.968	0.0364
440.283	0.0357
440.599	0.0366
440.914	0.0371
441.23	0.0371
441.545	0.0365
441.86	0.0361
442.175	0.0368
442.491	0.0364
442.806	0.0364
443.121	0.0363
443.435	0.0364
443.75	0.0361
444.065	0.0363
444.38	0.0367
444.694	0.0367
445.009	0.0363
445.323	0.036
445.638	0.0349
445.952	0.0357
446.266	0.0359
446.58	0.036
446.894	0.0355
447.208	0.036
447.522	0.0356
447.836	0.0363
448.15	0.0347
448.464	0.0349
448.777	0.0358
449.091	0.0348
449.404	0.0352
449.718	0.0343
450.031	0.0344
450.345	0.0338
450.658	0.0345
450.971	0.0341
451.284	0.0344
451.597	0.0339
451.91	0.0335
452.223	0.0332
452.535	0.0334
452.848	0.0336
453.161	0.0329
453.473	0.0333
453.786	0.0326
454.098	0.0329
454.411	0.0337
454.723	0.0318
455.035	0.0324
455.347	0.0321
455.659	0.0317
455.971	0.0328
456.283	0.0327
456.595	0.0323
456.907	0.0325
457.218	0.0316
457.53	0.0305
457.841	0.0308
458.153	0.0311
458.464	0.031
458.776	0.0315
459.087	0.0303
459.398	0.0317
459.709	0.031
460.02	0.0309
460.331	0.0292
460.642	0.03
460.953	0.0296
461.263	0.0294
461.574	0.029
461.885	0.0286
462.195	0.0289
462.506	0.0296
462.816	0.0294
463.126	0.0294
463.437	0.0295
463.747	0.0276
464.057	0.0279
464.367	0.027
464.677	0.0278
464.987	0.0269
465.296	0.0274
465.606	0.0266
465.916	0.027
466.225	0.0266
466.535	0.0268
466.844	0.0263
467.154	0.0272
467.463	0.0261
467.772	0.0261
468.081	0.0264
468.39	0.025
468.699	0.0251
469.008	0.0248
469.317	0.0246
469.626	0.0235
469.935	0.0242
470.243	0.0237
470.552	0.0244
470.86	0.0238
471.169	0.0233
471.477	0.0233
471.785	0.0238
472.093	0.0235
472.402	0.023
472.71	0.0235
473.018	0.0226
473.326	0.0218
473.633	0.0232
473.941	0.0224
474.249	0.0208
474.556	0.022
474.864	0.0214
475.171	0.0214
475.479	0.0214
475.786	0.0209
476.094	0.0204
476.401	0.0199
476.708	0.0203
477.015	0.0202
477.322	0.02
477.629	0.0193
477.936	0.0198
478.242	0.0189
478.549	0.0189
478.856	0.0183
479.162	0.019
479.469	0.0185
479.775	0.0188
480.081	0.0185
480.388	0.0178
480.694	0.0179
481	0.0179
481.306	0.0174
481.612	0.0177
481.918	0.0166
482.224	0.0162
482.53	0.0163
482.835	0.0171
483.141	0.0158
483.446	0.0162
483.752	0.0156
484.057	0.0162
484.363	0.0151
484.668	0.0153
484.973	0.0139
485.278	0.0142
485.583	0.0144
485.888	0.0144
486.193	0.0136
486.498	0.0135
486.803	0.0133
487.107	0.0138
487.412	0.0132
487.717	0.0133
488.021	0.0129
488.325	0.0132
488.63	0.0127
488.934	0.0132
489.238	0.0124
489.542	0.0122
489.846	0.0121
490.15	0.0129
490.454	0.0116
490.758	0.0115
491.062	0.0111
491.366	0.0116
491.669	0.0115
491.973	0.0115
492.276	0.011
492.58	0.0109
492.883	0.0102
493.186	0.0101
493.489	0.0106
493.792	0.0095
494.096	0.0096
494.399	0.01
494.701	0.0097
495.004	0.0085
495.307	0.0095
495.61	0.0087
495.912	0.0092
496.215	0.0077
496.517	0.008
496.82	0.0082
497.122	0.0079
497.424	0.0078
497.727	0.0081
498.029	0.0069
498.331	0.0079
498.633	0.0084
498.935	0.007
499.237	0.0073
499.538	0.0065
499.84	0.0069
500.142	0.0063
500.443	0.0058
500.745	0.0059
501.046	0.0055
501.348	0.0064
501.649	0.0052
501.95	0.005
502.251	0.0052
502.552	0.0045
502.853	0.0053
503.154	0.0055
503.455	0.0044
503.756	0.0047
504.057	0.0064
504.357	0.0039
504.658	0.0046
504.958	0.0051
505.259	0.0048
505.559	0.0044
505.859	0.0041
506.16	0.0046
506.46	0.0036
506.76	0.0043
507.06	0.0042
507.36	0.0036
507.66	0.0044
507.96	0.0042
508.259	0.0041
508.559	0.0041
508.859	0.0037
509.158	0.0032
509.457	0.0028
509.757	0.0033
510.056	0.0032
510.355	0.0033
510.655	0.0021
510.954	0.0032
511.253	0.0024
511.552	0.0026
511.851	0.0024
512.149	0.0012
512.448	0.0027
512.747	0.0027
513.045	0.002
513.344	0.0015
513.642	0.0012
513.941	0.0014
514.239	0.0023
514.537	0.001
514.836	0.0018
515.134	-0.0001
515.432	0.0027
515.73	0.0012
516.028	0.0011
516.326	0.002
516.623	0.0012
516.921	-0.0007
517.219	0.0008
517.516	0.0005
517.814	0.0012
518.111	-0
518.409	0.0002
518.706	0.0004
519.003	0.001
519.3	0
519.597	0.0004
519.894	0.0016
520.191	0.0003
520.488	0.0008
520.785	0
521.082	-0.0006
521.378	0.0005
521.675	-0.0004
521.971	-0.0002
522.268	0.0007
522.564	0.0005
522.861	0.0004
523.157	0.0009
523.453	0.0002
523.749	-0.0003
524.045	0.0006
524.341	0.0003
524.637	-0.0004
524.933	-0.0003
525.229	-0.0003
525.524	-0.0018
525.82	-0.0011
526.115	-0.0015
526.411	0.0005
526.706	-0.0007
527.002	0.0002
527.297	-0.0009
527.592	-0.0002
527.887	0.0008
528.182	0.0006
528.477	-0.0003
528.772	0.0002
529.067	-0.0001
529.362	-0.0002
529.657	-0.0001
529.951	-0.0003
530.246	-0.0004
530.54	-0.0006
530.835	-0.0015
531.129	-0.0003
531.423	-0.001
531.718	-0.0005
532.012	-0.0005
532.306	-0.0007
532.6	-0.0011
532.894	-0.0008
533.188	-0.0006
533.482	-0.0007
533.775	0
534.069	-0.0014
534.363	-0.0021
534.656	-0.0017
534.95	-0.0005
535.243	-0.0007
535.536	-0.0005
535.83	-0.0019
536.123	-0.0005
536.416	-0.0008
536.709	-0.0011
537.002	-0.0013
537.295	-0.0017
537.588	-0.0021
537.881	-0.0018
538.173	-0.0011
538.466	-0.0008
538.759	-0.0008
539.051	-0.0006
539.344	-0.0009
539.636	-0.0013
539.928	-0.0009
540.22	-0.0007
540.513	-0.0009
540.805	-0.0004
541.097	-0.0019
541.389	-0.0016
541.681	-0.0011
541.972	-0.0004
542.264	-0.0008
542.556	-0.0011
542.847	-0.0006
543.139	-0.0013
543.431	-0.0015
543.722	-0.0016
544.013	-0.0008
544.305	-0.0009
544.596	-0.003
544.887	-0.001
545.178	-0.0009
545.469	-0.002
545.76	-0.0016
546.051	-0.0002
546.342	-0.0015
546.632	-0.0014
546.923	-0.0016
547.214	-0.0009
547.504	-0.0024
547.795	-0.0021
548.085	-0.0025
548.375	-0.0011
548.666	-0.002
548.956	-0.0011
549.246	-0.0007
549.536	-0.0008
549.826	-0
550.116	-0.0008
550.406	-0.001
550.695	-0.0025
550.985	-0.0015
551.275	-0.001
551.564	-0.0006
551.854	-0.0001
552.143	-0.002
552.433	-0.0027
552.722	-0.0023
553.011	-0
553.3	-0.0007
553.589	0
553.879	-0.0009
554.167	-0.0006
554.456	0.0008
554.745	0.0008
555.034	-0.0011
555.323	-0.0001
555.611	-0.0003
555.9	-0.0004
556.188	-0.0017
556.477	-0
556.765	-0.0039
557.053	-0.0011
557.342	-0.0014
557.63	-0.0005
557.918	-0.0007
558.206	0.0008
558.494	-0.0004
558.782	0.0006
559.069	0.0014
559.357	0.0006
559.645	0.0007
559.932	-0.0005
560.22	-0.0009
560.507	-0.0014
560.795	0.0001
561.082	-0.0017
561.37	-0.0003
561.657	-0.0004
561.944	-0.0004
562.231	-0.001
562.518	-0.0004
562.805	0.0003
563.092	0.0003
563.379	-0.0002
563.665	0.0004
563.952	-0.0004
564.239	0.0002
564.525	-0.0001
564.811	0.0013
565.098	0.0008
565.384	-0.0008
565.67	0.0014
565.957	0.0013
566.243	0.0023
566.529	0.0008
566.815	0.0004
567.101	0.0021
567.387	0.0004
567.672	-0.0003
567.958	0.001
568.244	0.0001
568.529	0.0004
568.815	-0.0006
569.1	-0.0018
569.386	-0.0014
569.671	-0.0001
569.956	-0.0004
570.242	-0.0007
570.527	-0.0015
570.812	-0.0001
571.097	-0.0004
571.382	-0.0012
571.666	0.0001
571.951	-0.0015
572.236	-0.0012
572.521	-0.0002
572.805	-0.0004
573.09	-0.0006
573.374	-0.0014
573.659	-0.0008
573.943	-0.0014
574.227	-0.001
574.511	-0.0012
574.795	-0.0012
575.079	-0.0013
575.363	-0.0021
575.647	-0.0012
575.931	-0.0007
576.215	-0.0015
576.499	-0.0008
576.782	-0.0018
577.066	-0.0011
577.349	-0.0002
577.633	-0.0008
577.916	-0.0012
578.2	-0.001
578.483	-0.0018
578.766	-0.0011
579.049	-0.0013
579.332	0.0008
579.615	-0.0004
579.898	-0.0008
580.181	-0.0003
580.464	0.0013
580.746	0.0003
581.029	-0.0006
581.312	-0.0013
581.594	-0.0018
581.877	-0.0024
582.159	-0.0019
582.441	-0.0022
582.724	-0.0009
583.006	0.0001
583.288	-0.0002
583.57	0.0002
583.852	0.0003
584.134	0.0002
584.416	-0.0004
584.697	-0.0001
584.979	-0.0019
585.261	-0.0023
585.542	-0.0019
585.824	-0.0015
586.105	-0.0018
586.387	-0.0019
586.668	-0.0007
586.949	0.0003
587.231	-0.0004
587.512	-0.0005
587.793	0.0001
588.074	-0.0006
588.355	0.0001
588.636	-0.0006
588.916	-0.0006
589.197	0.0001
589.478	0.0009
589.758	-0.0002
590.039	-0.0001
590.319	0.0006
590.6	0.0007
590.88	0.0005
591.16	0.0014
591.441	0.0014
591.721	0.0001
592.001	-0.0002
592.281	-0.0008
592.561	0.0002
592.841	-0.001
593.12	-0.0029
593.4	-0.0014
593.68	-0.0028
593.959	-0.002
594.239	-0.0009
594.518	-0.0006
594.798	0.0001
595.077	-0.0013
595.356	-0.0009
595.636	-0.0008
595.915	-0
596.194	0.0004
596.473	0.0012
596.752	0.0005
597.031	0.0006
597.31	-0.0002
597.588	-0.0005
597.867	-0.0006
598.146	-0.0011
598.424	0.0001
598.703	-0.0006
598.981	-0.0019
599.259	-0.0018
599.538	-0.0006
599.816	-0.0004
600.094	-0.0012
600.372	-0.002
600.65	-0.0014
600.928	-0.0009
601.206	-0.0007
601.484	-0.0004
601.762	-0.0004
602.04	0.0004
602.317	-0.0003
602.595	-0.0007
602.872	0.0001
603.15	0.0007
603.427	-0.0012
603.704	-0.0021
603.982	-0.0006
604.259	-0.0009
604.536	0.0001
604.813	-0.0002
605.09	0.0003
605.367	-0.0008
605.644	-0.0015
605.921	-0.0005
606.197	-0.0006
606.474	-0.0007
606.751	-0.0003
607.027	-0.0009
607.304	-0.0004
607.58	-0.0012
607.856	-0.0018
608.133	-0.0014
608.409	-0.0008
608.685	-0.001
608.961	-0.0011
609.237	-0.0009
609.513	-0.0002
609.789	-0.0008
610.065	-0.0006
610.341	-0.0011
610.616	-0.0004
610.892	0.0003
611.167	0.0003
611.443	-0.0012
611.718	-0.0006
611.994	-0.0009
612.269	-0.0003
612.544	-0.0002
612.819	-0.001
613.095	-0.0012
613.37	0.0006
613.645	-0.001
613.919	-0.0004
614.194	-0.0001
614.469	-0.0001
614.744	-0.0006
615.019	-0.0016
615.293	-0.0013
615.568	-0.0005
615.842	-0.0004
616.116	0.001
616.391	0.0017
616.665	0.0011
616.939	0
617.213	0.0009
617.488	0.0021
617.762	0.0005
618.035	0.0011
618.309	-0.0006
618.583	0.0013
618.857	0.0028
619.131	0.0018
619.404	0.0022
619.678	0.0015
619.951	0.0002
620.225	-0.0003
620.498	0.0006
620.771	0.0008
621.045	-0.0002
621.318	0.0009
621.591	-0.0002
621.864	-0.0007
622.137	-0.0015
622.41	-0.0006
622.683	-0.0001
622.956	0.0005
623.228	-0.0003
623.501	0.0011
623.774	0.0007
624.046	0.0007
624.319	-0.0002
624.591	-0.0012
624.863	-0.0006
625.136	0.0003
625.408	0.0021
625.68	0.0011
625.952	0.0018
626.224	0.0018
626.496	0.0019
626.768	0.0014
627.04	0.0008
627.311	0.0009
627.583	0.0018
627.855	0.0018
628.126	0.0025
628.398	0.0027
628.669	0.0042
628.941	0.0031
629.212	0.0025
629.483	0.0025
629.755	0.0011
630.026	0.0015
630.297	0.0028
630.568	0.0015
630.839	0.0018
631.11	0.0018
631.38	0.0032
631.651	0.0033
631.922	0.003
632.192	0.0021
632.463	0.0019
632.733	0.0021
633.004	0.0014
633.274	0.0039
633.545	0.0036
633.815	0.0036
634.085	0.0005
634.355	0.0007
634.625	0.001
634.895	0.0017
635.165	0.0012
635.435	0.0005
635.705	0.0016
635.974	0.0007
636.244	0.0013
636.514	0.0029
636.783	0.0012
637.053	0.0011
637.322	0.0025
637.591	0.0024
637.861	0.0013
638.13	0.0016
638.399	0.0017
638.668	0.001
638.937	0.0011
639.206	0.0009
639.475	0.0009
639.744	0.0003
640.013	0.0022
640.281	0.0026
640.55	0.0019
640.819	0.0022
641.087	0.0035
641.356	0.0034
641.624	0.0046
641.892	0.0059
642.161	0.0044
642.429	0.0036
642.697	0.0031
642.965	0.0026
643.233	0.0017
643.501	0.0005
643.769	0.0018
644.037	0.0032
644.305	0.0019
644.572	0.0023
644.84	0.0022
645.108	0.0011
645.375	0.0015
645.643	0.0019
645.91	0.0042
646.177	0.0052
646.445	0.0045
646.712	0.0064
646.979	0.0058
647.246	0.0065
647.513	0.0067
647.78	0.0052
648.047	0.0041
648.314	0.0022
648.58	0.0025
648.847	0.0026
649.114	0.0035
649.38	0.0034
649.647	0.0017
649.913	0.0019
650.18	0.0025
650.446	0.004
650.712	0.0022
650.978	0.0015
651.245	0.0012
651.511	0.0024
651.777	0.0013
652.043	0.0019
652.309	0.0031
652.574	0.0035
652.84	0.0037
653.106	0.0044
653.371	0.0042
653.637	0.0048
653.903	0.0051
654.168	0.006
654.433	0.0072
654.699	0.0071
654.964	0.0067
655.229	0.0058
655.494	0.0036
655.759	-0.0022
656.024	0.0002
656.289	-0
656.554	-0.0007
656.819	0.0008
657.084	0.003
657.349	0.0025
657.613	0.0033
657.878	0.0033
658.142	0.0012
658.407	0.002
658.671	0.0031
658.936	0.0035
659.2	0.0042
659.464	0.0042
659.728	0.0044
659.992	0.0037
660.256	0.0037
660.52	0.0037
660.784	0.0024
661.048	0.0026
661.312	0.0017
661.575	0.0025
661.839	0.0029
662.103	0.0017
662.366	0.0021
662.63	0.002
662.893	0.0016
663.156	0.0021
663.42	0.0005
663.683	-0.0004
663.946	-0.001
664.209	0.0003
664.472	-0.0003
664.735	0.001
664.998	0.0021
665.261	0.0016
665.524	0.0008
665.786	0.0014
666.049	0.0016
666.312	0.0025
666.574	0.0012
666.837	0.0034
667.099	0.0024
667.361	0.0027
667.624	0.0024
667.886	0.0009
668.148	0.0016
668.41	0.0024
668.672	0.0009
668.934	0.0022
669.196	0.0029
669.458	0.0039
669.72	0.0039
669.982	0.0039
670.243	0.0042
670.505	0.0023
670.766	0.0044
671.028	0.0042
671.289	0.0021
671.551	0.0022
671.812	0.0001
672.073	0.002
672.334	0.0021
672.596	0.0009
672.857	0.0005
673.118	0.0012
673.379	0.0015
673.639	0.0007
673.9	0.001
674.161	0.001
674.422	0.0009
674.682	0.001
674.943	0.002
675.203	0.002
675.464	0.0027
675.724	0.0004
675.985	0.0012
676.245	0.0003
676.505	0.001
676.765	-0.0003
677.025	0.0017
677.285	0.0023
677.545	0.0033
677.805	0.0026
678.065	0.0019
678.325	0.0029
678.585	0.0019
678.844	0.0005
679.104	0.0009
679.363	-0.0007
679.623	-0.0005
679.882	-0.0002
680.142	0.001
680.401	0.001
680.66	0.0034
680.919	0.0044
681.178	0.0048
681.437	0.0036
681.696	0.002
681.955	0.0029
682.214	0.0038
682.473	0.0028
682.732	0.0026
682.99	0.0026
683.249	0.0041
683.508	0.0025
683.766	0.0017
684.024	0.0005
684.283	0.0026
684.541	0.0021
684.799	0.0022
685.058	0.0023
685.316	0.0015
685.574	0.0003
685.832	0.0008
686.09	0.0008
686.348	0
686.606	-0.0003
686.863	0.0005
687.121	0.0019
687.379	0.0025
687.636	0.0007
687.894	0.003
688.151	0.0035
688.409	0.0031
688.666	0.0017
688.923	0.0007
689.181	0.0019
689.438	0.0013
689.695	0.0007
689.952	-0.0006
690.209	0.0001
690.466	-0.0001
690.723	0.0011
690.979	0.0017
691.236	0.0006
691.493	0.0008
691.75	0.0019
692.006	0.002
692.263	0.0013
692.519	0.0021
692.775	0.0017
693.032	0.0011
693.288	0.0013
693.544	0.001
693.8	0.002
694.056	0.0016
694.313	0.0009
694.568	0.0018
694.824	0.0017
695.08	0.0004
695.336	-0.0007
695.592	-0.0018
695.847	0.0005
696.103	0.0004
696.359	0.0016
696.614	0.0007
696.869	0.0003
697.125	-0.0031
697.38	-0.001
697.635	0.0003
697.891	0.0012
698.146	0.0016
698.401	0.0024
698.656	0.0008
698.911	0.0016
699.166	0.0023
699.42	0.0036
699.675	0.002
699.93	0.0023
700.185	0.0018
700.439	0.0016
700.694	0.0021
700.948	0.0011
701.203	0.0009
701.457	0.0011
701.711	0.0005
701.965	0.0001
702.22	-0.0004
702.474	-0.0005
702.728	-0.0001
702.982	-0.0012
703.236	0.0002
703.49	0.0005
703.743	0.0009
703.997	0.0006
704.251	0.0002
704.504	0.0005
704.758	-0.0004
705.012	0.0014
705.265	0.0024
705.518	0.003
705.772	0.003
706.025	0.0022
706.278	0.0015
706.531	0.0002
706.785	-0.0001
707.038	-0.0021
707.291	-0.0007
707.543	-0.0004
707.796	-0.0002
708.049	-0.0002
708.302	-0.0007
708.555	-0.0005
708.807	0.0013
709.06	-0.0002
709.312	-0.0002
709.565	0.0004
709.817	-0.0004
710.069	-0.0008
710.322	-0.0011
710.574	-0.0022
710.826	-0.0019
711.078	-0.0014
711.33	-0.001
711.582	-0.002
711.834	-0.0011
712.086	-0.0017
712.338	-0.0022
712.59	-0.0011
712.841	-0.0036
713.093	-0.0031
713.344	-0.0022
713.596	-0.0021
713.847	-0.0011
714.099	-0.001
714.35	-0.0009
714.601	-0.0005
714.853	-0
715.104	-0.0005
715.355	-0
715.606	0
715.857	0.0012
716.108	0.0009
716.359	0.0014
716.609	0.0006
716.86	0.0005
717.111	0.0009
717.361	0.0009
717.612	0.0025
717.863	0.0032
718.113	0.0048
718.363	0.0022
718.614	0.0035
718.864	0.0048
719.114	0.0037
719.364	0.0041
719.614	0.0026
719.865	0.0039
720.114	0.0056
720.364	0.0046
720.614	0.0052
720.864	0.0037
721.114	0.0039
721.364	0.0034
721.613	0.0037
721.863	0.0032
722.112	0.0034
722.362	0.002
722.611	0.0019
722.86	0.0016
723.11	0.0022
723.359	0.0014
723.608	0.0013
723.857	0.0025
724.106	0.0023
724.355	0.0025
724.604	0.003
724.853	0.0028
725.102	0.0002
725.351	0.0013
725.599	-0.0001
725.848	-0.0002
726.097	0.0016
726.345	0.0013
726.594	0.0003
726.842	0.0015
727.09	-0.0005
727.339	-0.0014
727.587	-0.0026
727.835	-0.0022
728.083	-0.0015
728.331	-0.0021
728.579	-0.0004
728.827	-0.0003
729.075	0.0008
729.323	0.0001
729.571	-0.0003
729.818	0.001
730.066	0
730.314	0.0005
730.561	0.0022
730.809	0.0022
731.056	0.0006
731.303	0.0017
731.551	0.0026
731.798	0.0012
732.045	0.0012
732.292	0.003
732.539	0.0035
732.786	0.0036
733.033	0.0029
733.28	0.0025
733.527	0.0023
733.774	0.0012
734.021	-0.0005
734.267	-0.0006
734.514	-0.0017
734.76	-0.0018
735.007	-0.0007
735.253	-0.0015
735.5	-0.0017
735.746	-0.0013
735.992	-0.001
736.238	0.0001
736.485	0.0012
736.731	0.002
736.977	0.0011
737.223	0.0007
737.469	0.0006
737.715	0.0013
737.96	0.0012
738.206	0.0004
738.452	0
738.697	-0.0001
738.943	-0.0002
739.189	-0.0008
739.434	-0.0013
739.679	-0.0013
739.925	-0.0009
740.17	-0.0009
740.415	-0.0011
740.66	-0.0024
740.906	-0.0018
741.151	-0.0017
741.396	-0.0018
741.641	-0.0026
741.886	-0.0017
742.13	0.0005
742.375	-0.0003
742.62	-0.0004
742.865	-0.001
743.109	0.001
743.354	0.0028
743.598	0.0027
743.843	0.0036
744.087	0.0038
744.331	0.0037
744.576	0.0043
744.82	0.005
745.064	0.0061
745.308	0.0064
745.552	0.0058
745.796	0.0041
746.04	0.0038
746.284	0.003
746.528	0.0037
746.771	0.0054
747.015	0.0056
747.259	0.0046
747.502	0.0037
747.746	0.003
747.989	0.0034
748.233	0.0026
748.476	0.004
748.719	0.0049
748.963	0.0059
749.206	0.0058
749.449	0.0037
749.692	0.0039
749.935	0.0042
750.178	0.0031
750.421	0.0016
750.664	0.0027
750.906	0.0033
751.149	0.0032
751.392	0.0035
751.635	0.0018
751.877	0.0022
752.12	0.0022
752.362	0.0013
752.604	0.0019
752.847	0.0039
753.089	0.0042
753.331	0.0051
753.573	0.0038
753.816	0.0023
754.058	0.0019
754.3	0.001
754.542	0.0017
754.783	0.001
755.025	0.0013
755.267	0.0013
755.509	0.0008
755.75	0.0004
755.992	0.0005
756.234	0.0006
756.475	0.0008
756.716	-0.0007
756.958	-0.0006
757.199	-0.0008
757.44	-0.0002
757.682	-0.0007
757.923	0.0005
758.164	0.0011
758.405	0.0016
758.646	0.0034
758.887	0.0033
759.128	0.0025
759.369	0.0016
759.609	0.0024
759.85	0.0022
760.091	0.0026
760.331	0.0025
760.572	0.001
760.812	-0.0003
761.053	-0.0004
761.293	-0.0001
761.533	0.0004
761.774	0.0024
762.014	0.0031
762.254	0.0022
762.494	0.0009
762.734	0.001
762.974	0
763.214	-0.0002
763.454	0.0007
763.694	-0.0004
763.933	-0.0002
764.173	-0.002
764.413	-0.0034
764.652	-0.0035
764.892	-0.0033
765.131	-0.0028
765.371	-0.002
765.61	-0.0017
765.849	-0.0019
766.089	-0.0001
766.328	0.0007
766.567	-0
766.806	0.0011
767.045	0.0023
767.284	0.0011
767.523	0.0007
767.762	-0
768.001	0.0009
768.239	-0.0001
768.478	0.0011
768.717	0.0018
768.955	0.0015
769.194	0.0009
769.432	0.0024
769.671	0.0033
769.909	0.0037
770.148	0.0034
770.386	0.004
770.624	0.0037
770.862	0.0036
771.1	0.0046
771.338	0.0039
771.576	0.0026
771.814	0.0037
772.052	0.0045
772.29	0.0051
772.528	0.0062
772.765	0.0065
773.003	0.0068
773.24	0.0065
773.478	0.0054
773.716	0.006
773.953	0.0051
774.19	0.0059
774.428	0.0068
774.665	0.0072
774.902	0.0076
775.139	0.0074
775.376	0.0065
775.613	0.0056
775.85	0.0044
776.087	0.0038
776.324	0.0037
776.561	0.003
776.798	0.0019
777.034	0.0027
777.271	0.0033
777.508	0.0033
777.744	0.005
777.981	0.0048
778.217	0.0048
778.454	0.0036
778.69	0.0034
778.926	0.0025
779.162	0.0026
779.399	0.0028
779.635	0.0022
779.871	0.0025
780.107	0.0027
780.343	0.0013
780.579	0.0021
780.814	0.002
781.05	0.0028
781.286	0.0008
781.522	0.0022
781.757	0.0022
781.993	0.0026
782.228	0.0019
782.464	0.0031
782.699	0.0021
782.934	0.0009
783.17	0.0014
783.405	0.0014
783.64	0.0005
783.875	-0.0002
784.11	-0.0004
784.345	0.0014
784.58	0.0021
784.815	0.0029
785.05	0.002
785.285	-0
785.52	-0.0004
785.754	-0.0013
785.989	-0.0005
786.223	-0.003
786.458	-0.0028
786.692	-0.0011
786.927	-0.0002
787.161	0.0011
787.396	0.0004
787.63	0.0002
787.864	-0.0003
788.098	-0.001
788.332	-0.0012
788.566	-0.0007
788.8	-0.0011
789.034	0
789.268	0.0001
789.502	0.0015
789.736	0.0015
789.969	0.001
790.203	0.0017
790.437	-0.0005
790.67	-0.0005
790.904	-0.0014
791.137	-0.001
791.37	-0.0013
791.604	-0.0033
791.837	-0.0036
792.07	-0.0033
792.303	-0.0034
792.537	-0.0028
792.77	-0.0033
793.003	-0.0028
793.236	-0.0027
793.469	-0.0028
793.701	-0.0015
793.934	-0.0008
794.167	-0.0007
794.4	-0.0016
794.632	-0.0006
794.865	0.0006
795.097	0.001
795.33	-0.0006
795.562	0.0003
795.795	0.0008
796.027	0.0018
796.259	0.0014
796.491	0.0012
796.724	0.0015
796.956	0.0025
797.188	0.0022
797.42	0.0024
797.652	0.002
797.883	0.002
798.115	0.0031
798.347	0.0029
798.579	0.0054
798.81	0.0057
799.042	0.0055
799.274	0.0048
799.505	0.0044
799.737	0.0038
799.968	0.0034
800.199	0.0022
800.431	0.0027
800.662	0.0027
800.893	0.0028
801.124	0.0029
801.355	0.0028
801.586	0.0029
801.817	0.0019
802.048	0.0008
802.279	0.0001
802.51	0.0017
802.741	0.0025
802.971	0.0028
803.202	0.0031
803.433	0.0035
803.663	0.0023
803.894	0.0023
804.124	0.0023
804.354	0.0031
804.585	0.0029
804.815	0.0035
805.045	0.0027
805.275	0.0022
805.506	0.0251
805.736	-0.096
805.966	-0.2232
806.196	-0.1646
