Data from 03 0.5 mM K2Cr2O7 0.3 mM BQDS 1 M H2SO4 5 min_Absorbance_0106.txt Node
Date: Tue Dec 14 02:29:45 EST 2021
User: kwabilab-user
Spectrometer: HDX00518
Trigger mode: 0
Integration Time (sec): 5.000000E-2
Scans to average: 50
Nonlinearity correction enabled: false
Boxcar width: 0
Storing dark spectrum: false
XAxis mode: Wavelengths
Number of Pixels in Spectrum: 2068
>>>>>Begin Spectral Data<<<<<
195.27	-0.0775
195.642	-0.0049
196.014	-0.0512
196.386	0.099
196.758	-0.0269
197.129	-0.0329
197.501	-0.0254
197.872	-0.0034
198.244	0.0167
198.615	0.0232
198.986	0.0219
199.357	0.0373
199.728	0.0299
200.099	0.0379
200.47	0.0097
200.841	0.0245
201.212	0.0144
201.582	0.0337
201.953	0.0372
202.323	0.0401
202.694	0.0115
203.064	0.0212
203.434	0.0317
203.804	0.0211
204.174	0.036
204.544	0.0254
204.914	0.0187
205.284	0.0379
205.653	0.0146
206.023	0.0306
206.393	0.0194
206.762	0.033
207.131	0.031
207.501	0.025
207.87	0.0406
208.239	0.0184
208.608	0.0382
208.977	0.0279
209.346	0.0096
209.715	0.0203
210.083	0.0172
210.452	0.0131
210.82	0.0281
211.189	0.0098
211.557	0.0386
211.925	0.0045
212.294	0.0175
212.662	0.0254
213.03	0.0213
213.398	0.0513
213.766	0.0489
214.133	0.0413
214.501	0.0408
214.869	0.054
215.236	0.0264
215.604	0.0432
215.971	0.0488
216.338	0.062
216.705	0.0708
217.072	0.0593
217.439	0.0443
217.806	0.0635
218.173	0.071
218.54	0.0587
218.907	0.0536
219.273	0.0867
219.64	0.0814
220.006	0.0822
220.373	0.0944
220.739	0.1153
221.105	0.1318
221.471	0.139
221.837	0.1465
222.203	0.1678
222.569	0.2016
222.935	0.2366
223.3	0.2192
223.666	0.2553
224.031	0.2841
224.397	0.2886
224.762	0.3051
225.127	0.3202
225.493	0.3548
225.858	0.3687
226.223	0.393
226.588	0.4312
226.952	0.4478
227.317	0.4689
227.682	0.4733
228.046	0.4763
228.411	0.512
228.775	0.53
229.14	0.5482
229.504	0.5614
229.868	0.587
230.232	0.5734
230.596	0.6006
230.96	0.6208
231.324	0.6139
231.688	0.6241
232.052	0.6491
232.415	0.6442
232.779	0.6393
233.142	0.6448
233.505	0.6659
233.869	0.6797
234.232	0.6617
234.595	0.6532
234.958	0.6594
235.321	0.6629
235.684	0.6739
236.047	0.6797
236.409	0.6632
236.772	0.6832
237.134	0.6811
237.497	0.667
237.859	0.6788
238.222	0.6791
238.584	0.6717
238.946	0.666
239.308	0.6678
239.67	0.6642
240.032	0.6584
240.393	0.666
240.755	0.6671
241.117	0.662
241.478	0.658
241.84	0.6557
242.201	0.6447
242.562	0.6449
242.924	0.648
243.285	0.6451
243.646	0.6466
244.007	0.6405
244.368	0.6449
244.728	0.6353
245.089	0.6397
245.45	0.6389
245.81	0.6385
246.171	0.6334
246.531	0.6284
246.891	0.6252
247.252	0.6263
247.612	0.6282
247.972	0.638
248.332	0.6254
248.692	0.6333
249.051	0.6287
249.411	0.6329
249.771	0.6155
250.13	0.6302
250.49	0.6251
250.849	0.6195
251.208	0.6239
251.568	0.62
251.927	0.6175
252.286	0.6265
252.645	0.6224
253.004	0.6244
253.363	0.6211
253.721	0.6272
254.08	0.6206
254.439	0.6176
254.797	0.6192
255.155	0.6146
255.514	0.6159
255.872	0.6206
256.23	0.616
256.588	0.6205
256.946	0.6171
257.304	0.6125
257.662	0.6203
258.02	0.6196
258.377	0.6092
258.735	0.6142
259.093	0.608
259.45	0.6095
259.807	0.6082
260.165	0.6041
260.522	0.6081
260.879	0.6009
261.236	0.6065
261.593	0.5992
261.95	0.5906
262.306	0.5959
262.663	0.5887
263.02	0.5878
263.376	0.5896
263.733	0.5896
264.089	0.5845
264.445	0.5807
264.802	0.5833
265.158	0.5815
265.514	0.5729
265.87	0.5679
266.226	0.5715
266.581	0.5677
266.937	0.5642
267.293	0.5676
267.648	0.5569
268.004	0.5558
268.359	0.5523
268.714	0.5496
269.07	0.5467
269.425	0.5457
269.78	0.5348
270.135	0.5413
270.49	0.5369
270.844	0.5328
271.199	0.5292
271.554	0.5254
271.908	0.5239
272.263	0.5247
272.617	0.5205
272.972	0.5137
273.326	0.5135
273.68	0.5074
274.034	0.5053
274.388	0.4994
274.742	0.4979
275.096	0.4935
275.45	0.4904
275.803	0.4885
276.157	0.4841
276.51	0.4756
276.864	0.4734
277.217	0.4682
277.571	0.4691
277.924	0.4636
278.277	0.4611
278.63	0.4561
278.983	0.4509
279.336	0.4459
279.688	0.4404
280.041	0.4366
280.394	0.4351
280.746	0.4314
281.099	0.4251
281.451	0.4224
281.803	0.4134
282.156	0.4108
282.508	0.4078
282.86	0.4038
283.212	0.3966
283.564	0.395
283.916	0.3932
284.267	0.3853
284.619	0.3826
284.971	0.3809
285.322	0.375
285.673	0.3697
286.025	0.365
286.376	0.3614
286.727	0.3573
287.078	0.3529
287.429	0.3473
287.78	0.3473
288.131	0.342
288.482	0.3353
288.833	0.3302
289.183	0.3255
289.534	0.3247
289.884	0.3194
290.235	0.3165
290.585	0.313
290.935	0.307
291.285	0.3028
291.635	0.299
291.985	0.2951
292.335	0.2915
292.685	0.2877
293.035	0.2836
293.384	0.2797
293.734	0.2741
294.083	0.272
294.433	0.267
294.782	0.2641
295.131	0.2587
295.48	0.2554
295.829	0.2529
296.179	0.2485
296.527	0.2449
296.876	0.2404
297.225	0.2379
297.574	0.2324
297.922	0.2304
298.271	0.2275
298.619	0.2239
298.968	0.221
299.316	0.2169
299.664	0.2151
300.012	0.2117
300.36	0.2076
300.708	0.2058
301.056	0.2032
301.404	0.1993
301.752	0.1976
302.099	0.1936
302.447	0.191
302.794	0.1888
303.142	0.1871
303.489	0.1835
303.836	0.1824
304.183	0.1803
304.531	0.1782
304.878	0.1756
305.224	0.1756
305.571	0.1728
305.918	0.1702
306.265	0.1694
306.611	0.1671
306.958	0.1664
307.304	0.1647
307.651	0.1633
307.997	0.1621
308.343	0.161
308.689	0.1594
309.035	0.1586
309.381	0.1579
309.727	0.1572
310.073	0.1561
310.419	0.1559
310.764	0.1542
311.11	0.154
311.455	0.1548
311.801	0.1538
312.146	0.1535
312.491	0.1533
312.837	0.152
313.182	0.1525
313.527	0.1524
313.872	0.1514
314.216	0.1526
314.561	0.1523
314.906	0.1524
315.251	0.1524
315.595	0.1526
315.94	0.1536
316.284	0.1541
316.628	0.1549
316.972	0.1553
317.317	0.1562
317.661	0.1561
318.005	0.1568
318.348	0.1575
318.692	0.1597
319.036	0.1585
319.38	0.1599
319.723	0.1605
320.067	0.1623
320.41	0.1631
320.754	0.164
321.097	0.165
321.44	0.1666
321.783	0.168
322.126	0.1694
322.469	0.1695
322.812	0.1716
323.155	0.1733
323.498	0.1741
323.84	0.1759
324.183	0.178
324.525	0.1797
324.868	0.1815
325.21	0.1815
325.552	0.1842
325.894	0.1847
326.236	0.1864
326.578	0.1881
326.92	0.1901
327.262	0.1913
327.604	0.1929
327.946	0.1941
328.287	0.1965
328.629	0.1993
328.97	0.2006
329.312	0.2013
329.653	0.2027
329.994	0.2056
330.335	0.2068
330.676	0.2097
331.017	0.2108
331.358	0.2124
331.699	0.215
332.04	0.2157
332.38	0.2169
332.721	0.2196
333.061	0.2218
333.402	0.2232
333.742	0.2253
334.083	0.2267
334.423	0.2284
334.763	0.2296
335.103	0.2314
335.443	0.2331
335.783	0.2349
336.123	0.235
336.462	0.2367
336.802	0.2388
337.141	0.2403
337.481	0.2412
337.82	0.2429
338.16	0.2437
338.499	0.2464
338.838	0.247
339.177	0.2492
339.516	0.2506
339.855	0.2514
340.194	0.2522
340.533	0.2538
340.872	0.2555
341.21	0.2563
341.549	0.2567
341.887	0.2586
342.226	0.2592
342.564	0.2599
342.902	0.2601
343.24	0.2612
343.578	0.2622
343.916	0.2632
344.254	0.2624
344.592	0.2633
344.93	0.2635
345.268	0.2643
345.605	0.2644
345.943	0.2642
346.28	0.2648
346.618	0.265
346.955	0.2654
347.292	0.2655
347.629	0.2665
347.966	0.2667
348.303	0.2671
348.64	0.2672
348.977	0.2675
349.314	0.268
349.65	0.2677
349.987	0.2675
350.324	0.2683
350.66	0.267
350.996	0.2666
351.333	0.266
351.669	0.2657
352.005	0.2652
352.341	0.2642
352.677	0.2634
353.013	0.2627
353.349	0.2621
353.685	0.2601
354.02	0.2593
354.356	0.2573
354.691	0.2564
355.027	0.2564
355.362	0.2557
355.697	0.2542
356.033	0.2537
356.368	0.2523
356.703	0.2515
357.038	0.2511
357.373	0.2493
357.707	0.2485
358.042	0.2468
358.377	0.2472
358.711	0.2453
359.046	0.2433
359.38	0.2438
359.715	0.2424
360.049	0.241
360.383	0.2396
360.717	0.2386
361.051	0.2369
361.385	0.2357
361.719	0.2331
362.053	0.2319
362.387	0.2298
362.72	0.2277
363.054	0.2262
363.387	0.2249
363.721	0.2223
364.054	0.2207
364.387	0.2187
364.721	0.2173
365.054	0.2153
365.387	0.2128
365.72	0.2109
366.053	0.2102
366.385	0.2073
366.718	0.2051
367.051	0.2043
367.383	0.2029
367.716	0.2015
368.048	0.2013
368.381	0.1985
368.713	0.1977
369.045	0.1966
369.377	0.1944
369.709	0.1935
370.041	0.1922
370.373	0.1895
370.705	0.1876
371.037	0.1865
371.368	0.1846
371.7	0.1841
372.031	0.1812
372.363	0.1788
372.694	0.1762
373.025	0.1745
373.356	0.1722
373.688	0.1703
374.019	0.1676
374.35	0.1675
374.68	0.1641
375.011	0.1623
375.342	0.1592
375.673	0.1579
376.003	0.1558
376.334	0.1539
376.664	0.1518
376.995	0.1499
377.325	0.1479
377.655	0.1469
377.985	0.145
378.315	0.1436
378.645	0.1428
378.975	0.1405
379.305	0.1392
379.635	0.1387
379.964	0.137
380.294	0.1346
380.623	0.135
380.953	0.1326
381.282	0.1312
381.611	0.1292
381.941	0.1278
382.27	0.126
382.599	0.1247
382.928	0.1229
383.257	0.122
383.585	0.1201
383.914	0.1189
384.243	0.1165
384.571	0.1144
384.9	0.113
385.228	0.1111
385.557	0.1091
385.885	0.1072
386.213	0.106
386.541	0.1046
386.869	0.1025
387.197	0.0998
387.525	0.0991
387.853	0.097
388.181	0.0957
388.508	0.0941
388.836	0.0924
389.164	0.0904
389.491	0.0902
389.818	0.0886
390.146	0.0878
390.473	0.0862
390.8	0.085
391.127	0.0834
391.454	0.082
391.781	0.081
392.108	0.0798
392.435	0.0787
392.761	0.0773
393.088	0.0765
393.415	0.0756
393.741	0.0754
394.067	0.0739
394.394	0.0736
394.72	0.0722
395.046	0.0716
395.372	0.0705
395.698	0.0695
396.024	0.0685
396.35	0.0677
396.676	0.0667
397.001	0.0654
397.327	0.0648
397.653	0.0641
397.978	0.0623
398.303	0.0618
398.629	0.06
398.954	0.0588
399.279	0.0579
399.604	0.0582
399.929	0.0575
400.254	0.0568
400.579	0.0558
400.904	0.0551
401.229	0.0542
401.553	0.0541
401.878	0.0532
402.202	0.0519
402.527	0.0519
402.851	0.0516
403.175	0.0506
403.5	0.0505
403.824	0.0501
404.148	0.0493
404.472	0.0487
404.796	0.0479
405.119	0.0486
405.443	0.0482
405.767	0.0465
406.09	0.047
406.414	0.0464
406.737	0.0465
407.061	0.0457
407.384	0.0456
407.707	0.0458
408.03	0.0449
408.353	0.0457
408.676	0.0449
408.999	0.0447
409.322	0.0446
409.645	0.0437
409.968	0.0441
410.29	0.0443
410.613	0.0441
410.935	0.0439
411.258	0.0434
411.58	0.0434
411.902	0.0438
412.224	0.0429
412.546	0.0432
412.868	0.0434
413.19	0.0436
413.512	0.0432
413.834	0.0422
414.156	0.0425
414.477	0.0436
414.799	0.0418
415.121	0.0423
415.442	0.0427
415.763	0.0423
416.085	0.0418
416.406	0.0427
416.727	0.0431
417.048	0.0425
417.369	0.0423
417.69	0.0421
418.011	0.0419
418.331	0.0425
418.652	0.0423
418.973	0.0428
419.293	0.0429
419.614	0.0426
419.934	0.043
420.254	0.0426
420.574	0.0426
420.895	0.0428
421.215	0.0418
421.535	0.042
421.855	0.0422
422.174	0.0422
422.494	0.0419
422.814	0.042
423.134	0.0419
423.453	0.0423
423.773	0.0424
424.092	0.0423
424.411	0.0417
424.731	0.0425
425.05	0.0419
425.369	0.0424
425.688	0.0426
426.007	0.0419
426.326	0.0425
426.644	0.0425
426.963	0.0429
427.282	0.0424
427.6	0.0419
427.919	0.0423
428.237	0.0425
428.556	0.0426
428.874	0.0429
429.192	0.0428
429.51	0.0436
429.828	0.0428
430.146	0.0434
430.464	0.0415
430.782	0.0426
431.1	0.0431
431.418	0.0425
431.735	0.0418
432.053	0.0427
432.37	0.0424
432.688	0.0431
433.005	0.0429
433.322	0.0428
433.639	0.0428
433.957	0.0435
434.274	0.0433
434.591	0.042
434.907	0.0426
435.224	0.0425
435.541	0.0425
435.858	0.0436
436.174	0.0437
436.491	0.043
436.807	0.0414
437.124	0.0419
437.44	0.0427
437.756	0.0425
438.072	0.0427
438.388	0.043
438.704	0.0425
439.02	0.0427
439.336	0.0424
439.652	0.0423
439.968	0.0414
440.283	0.0412
440.599	0.0413
440.914	0.042
441.23	0.0429
441.545	0.042
441.86	0.0411
442.175	0.0419
442.491	0.0416
442.806	0.0414
443.121	0.0416
443.435	0.0413
443.75	0.0409
444.065	0.0414
444.38	0.0411
444.694	0.0417
445.009	0.0413
445.323	0.0411
445.638	0.0405
445.952	0.0409
446.266	0.0409
446.58	0.0409
446.894	0.0406
447.208	0.0406
447.522	0.0402
447.836	0.0403
448.15	0.0396
448.464	0.0402
448.777	0.0402
449.091	0.0394
449.404	0.0398
449.718	0.0385
450.031	0.0399
450.345	0.0395
450.658	0.0401
450.971	0.0393
451.284	0.0393
451.597	0.0385
451.91	0.0383
452.223	0.0389
452.535	0.0376
452.848	0.0387
453.161	0.0382
453.473	0.038
453.786	0.0374
454.098	0.0378
454.411	0.0388
454.723	0.037
455.035	0.037
455.347	0.0369
455.659	0.0369
455.971	0.0372
456.283	0.0364
456.595	0.0367
456.907	0.0372
457.218	0.0368
457.53	0.0356
457.841	0.0358
458.153	0.0357
458.464	0.036
458.776	0.036
459.087	0.0352
459.398	0.0357
459.709	0.0355
460.02	0.0352
460.331	0.034
460.642	0.035
460.953	0.0338
461.263	0.0339
461.574	0.0336
461.885	0.0341
462.195	0.0333
462.506	0.0337
462.816	0.0327
463.126	0.0332
463.437	0.0327
463.747	0.0324
464.057	0.0327
464.367	0.0321
464.677	0.0314
464.987	0.0312
465.296	0.0317
465.606	0.0306
465.916	0.0306
466.225	0.031
466.535	0.0314
466.844	0.0307
467.154	0.0306
467.463	0.0303
467.772	0.0303
468.081	0.03
468.39	0.0294
468.699	0.0294
469.008	0.0294
469.317	0.0287
469.626	0.0283
469.935	0.0271
470.243	0.0278
470.552	0.0277
470.86	0.0278
471.169	0.0279
471.477	0.0273
471.785	0.0274
472.093	0.0267
472.402	0.0268
472.71	0.027
473.018	0.0262
473.326	0.0256
473.633	0.0267
473.941	0.0261
474.249	0.0251
474.556	0.026
474.864	0.0258
475.171	0.0245
475.479	0.0239
475.786	0.0246
476.094	0.0244
476.401	0.0238
476.708	0.023
477.015	0.0235
477.322	0.0235
477.629	0.0224
477.936	0.0241
478.242	0.0217
478.549	0.0225
478.856	0.0226
479.162	0.0227
479.469	0.0221
479.775	0.0222
480.081	0.0211
480.388	0.021
480.694	0.0217
481	0.0207
481.306	0.0206
481.612	0.0204
481.918	0.0199
482.224	0.02
482.53	0.0194
482.835	0.0201
483.141	0.0198
483.446	0.0191
483.752	0.0194
484.057	0.0186
484.363	0.0185
484.668	0.0183
484.973	0.0173
485.278	0.018
485.583	0.0175
485.888	0.0177
486.193	0.0167
486.498	0.0158
486.803	0.016
487.107	0.0167
487.412	0.0159
487.717	0.0162
488.021	0.0157
488.325	0.0162
488.63	0.0164
488.934	0.0164
489.238	0.0156
489.542	0.0144
489.846	0.0143
490.15	0.0156
490.454	0.0148
490.758	0.014
491.062	0.0143
491.366	0.0136
491.669	0.0139
491.973	0.0137
492.276	0.0142
492.58	0.0132
492.883	0.0126
493.186	0.0132
493.489	0.0123
493.792	0.0122
494.096	0.0124
494.399	0.0112
494.701	0.0128
495.004	0.0107
495.307	0.0119
495.61	0.0106
495.912	0.012
496.215	0.0105
496.517	0.0104
496.82	0.0101
497.122	0.0097
497.424	0.0106
497.727	0.01
498.029	0.0096
498.331	0.0105
498.633	0.0101
498.935	0.0094
499.237	0.0089
499.538	0.0095
499.84	0.0088
500.142	0.0081
500.443	0.0085
500.745	0.0079
501.046	0.0072
501.348	0.008
501.649	0.0068
501.95	0.0068
502.251	0.0071
502.552	0.0076
502.853	0.0068
503.154	0.0062
503.455	0.0067
503.756	0.0062
504.057	0.0074
504.357	0.0057
504.658	0.0066
504.958	0.0067
505.259	0.0069
505.559	0.006
505.859	0.0058
506.16	0.0062
506.46	0.006
506.76	0.0065
507.06	0.0051
507.36	0.005
507.66	0.0049
507.96	0.0056
508.259	0.0052
508.559	0.0058
508.859	0.0048
509.158	0.0045
509.457	0.0038
509.757	0.0043
510.056	0.0049
510.355	0.0047
510.655	0.0037
510.954	0.0033
511.253	0.0039
511.552	0.0035
511.851	0.0037
512.149	0.0028
512.448	0.0041
512.747	0.0037
513.045	0.0027
513.344	0.0021
513.642	0.0023
513.941	0.0025
514.239	0.0028
514.537	0.002
514.836	0.0029
515.134	0.0015
515.432	0.0041
515.73	0.0025
516.028	0.002
516.326	0.0027
516.623	0.0027
516.921	0.0012
517.219	0.0018
517.516	0.0014
517.814	0.0017
518.111	0.0026
518.409	0.0004
518.706	0.0012
519.003	0.0027
519.3	0.0015
519.597	0.0008
519.894	0.0011
520.191	0.0012
520.488	0.0007
520.785	0.0008
521.082	0.0009
521.378	0.001
521.675	0.0014
521.971	0.0007
522.268	0.0016
522.564	0.0011
522.861	0.0016
523.157	0.0019
523.453	0.0015
523.749	0.0007
524.045	0.001
524.341	0.0023
524.637	-0
524.933	0.0001
525.229	0.0006
525.524	-0.0006
525.82	0.0001
526.115	0
526.411	0.0015
526.706	0.0009
527.002	0.0008
527.297	-0.0011
527.592	-0.0003
527.887	0.0012
528.182	0.0005
528.477	0.0006
528.772	0.0004
529.067	-0.0004
529.362	-0.0004
529.657	0.0005
529.951	0.0001
530.246	0.0003
530.54	-0.0001
530.835	-0.0005
531.129	-0.0002
531.423	-0.0007
531.718	-0.0001
532.012	-0.0006
532.306	-0.0014
532.6	-0.0013
532.894	-0.0001
533.188	0.0007
533.482	-0.0006
533.775	0.0003
534.069	-0.0004
534.363	-0.0016
534.656	-0.0015
534.95	0.0007
535.243	-0.0009
535.536	-0.0002
535.83	-0.002
536.123	-0.0013
536.416	-0.0003
536.709	-0.0004
537.002	-0.0015
537.295	-0.0007
537.588	-0.0018
537.881	-0.0015
538.173	-0.0016
538.466	-0.0015
538.759	-0.001
539.051	-0.0001
539.344	-0.0018
539.636	-0.001
539.928	0.0002
540.22	-0.0001
540.513	-0.0007
540.805	-0.0005
541.097	-0.0013
541.389	-0.0014
541.681	0
541.972	0.0006
542.264	0.0003
542.556	-0.0004
542.847	0.0009
543.139	0.0004
543.431	0.0002
543.722	0.0005
544.013	0.0002
544.305	-0.0004
544.596	-0.0004
544.887	0.0003
545.178	0.0003
545.469	-0.0013
545.76	-0.0006
546.051	0.0004
546.342	-0.0005
546.632	-0.0006
546.923	-0.0013
547.214	-0.0005
547.504	-0.0015
547.795	-0.0018
548.085	-0.0013
548.375	-0.0013
548.666	-0.0016
548.956	-0.0004
549.246	-0.0013
549.536	-0.0007
549.826	-0.0006
550.116	-0.001
550.406	-0.0021
550.695	-0.0025
550.985	-0.0003
551.275	-0.0018
551.564	-0.0016
551.854	0.0001
552.143	-0.0012
552.433	-0.0018
552.722	-0.0028
553.011	-0.0006
553.3	-0.0014
553.589	-0.0009
553.879	-0.0011
554.167	-0.0014
554.456	-0.0001
554.745	-0.0004
555.034	-0.0007
555.323	0.0001
555.611	0.0001
555.9	-0.0011
556.188	-0.0014
556.477	-0.0005
556.765	-0.0036
557.053	-0.0012
557.342	-0.0001
557.63	-0.0012
557.918	-0.0007
558.206	-0.0002
558.494	0.0004
558.782	-0.0012
559.069	-0
559.357	0.0008
559.645	0
559.932	-0.0001
560.22	-0.001
560.507	-0.002
560.795	-0.0016
561.082	-0.0022
561.37	-0.0006
561.657	-0.0013
561.944	-0.001
562.231	-0.001
562.518	-0.0005
562.805	-0.0015
563.092	-0.0008
563.379	0.0002
563.665	0.0001
563.952	-0.0009
564.239	0.0001
564.525	-0.0007
564.811	0.0011
565.098	-0.0008
565.384	-0.0012
565.67	0.0001
565.957	0.0009
566.243	0.0012
566.529	-0.0002
566.815	-0.0001
567.101	0.0012
567.387	-0.0002
567.672	0
567.958	0.0008
568.244	-0.0004
568.529	0.0008
568.815	-0.0011
569.1	-0.0018
569.386	-0.0016
569.671	0.0002
569.956	-0.0006
570.242	-0.0007
570.527	-0.0014
570.812	-0.0002
571.097	-0.0001
571.382	-0.001
571.666	-0.0002
571.951	-0.0011
572.236	-0.0003
572.521	-0.0005
572.805	-0.0008
573.09	0.0002
573.374	-0.0013
573.659	-0.0006
573.943	-0.0014
574.227	-0.0009
574.511	-0.0012
574.795	-0.001
575.079	-0.0002
575.363	-0.0009
575.647	-0.0012
575.931	-0.0008
576.215	-0.0012
576.499	-0.001
576.782	-0.0014
577.066	-0.0008
577.349	0.0001
577.633	-0.001
577.916	-0.0011
578.2	0.0001
578.483	-0.0012
578.766	-0.0001
579.049	-0.001
579.332	0.0003
579.615	0.0002
579.898	-0.0002
580.181	-0.0001
580.464	0.0009
580.746	0.0004
581.029	-0.0002
581.312	-0.0006
581.594	-0.0017
581.877	-0.0014
582.159	-0.0018
582.441	-0.0015
582.724	-0.0013
583.006	-0.0004
583.288	0.0007
583.57	0.0006
583.852	0
584.134	0.0003
584.416	-0.0004
584.697	-0.0006
584.979	-0.0014
585.261	-0.0016
585.542	-0.0019
585.824	-0.0015
586.105	-0.0012
586.387	-0.0016
586.668	-0.0009
586.949	-0.0006
587.231	0.0003
587.512	-0.0006
587.793	0.0003
588.074	-0.0016
588.355	-0.0002
588.636	-0.0009
588.916	-0.0006
589.197	-0.0007
589.478	0.0002
589.758	-0.0008
590.039	0.0002
590.319	-0.0003
590.6	0.0005
590.88	0.0007
591.16	0.0011
591.441	0.0005
591.721	0
592.001	-0.0003
592.281	-0.0007
592.561	-0.0001
592.841	-0.0011
593.12	-0.0023
593.4	-0.0018
593.68	-0.002
593.959	-0.0014
594.239	-0.0021
594.518	-0.0005
594.798	0.0006
595.077	-0.0015
595.356	-0.0005
595.636	-0.0008
595.915	-0.001
596.194	-0.0005
596.473	-0.0005
596.752	-0.0004
597.031	-0.0001
597.31	0.0001
597.588	-0.0008
597.867	-0.0007
598.146	-0.0007
598.424	-0.0003
598.703	0.0002
598.981	-0.0018
599.259	-0.0015
599.538	-0.0013
599.816	-0.0004
600.094	-0.0011
600.372	-0.0018
600.65	-0.002
600.928	-0.0017
601.206	-0.0001
601.484	-0.0007
601.762	-0.0002
602.04	-0.0005
602.317	-0.001
602.595	-0.0002
602.872	-0.0012
603.15	0.0007
603.427	-0.0012
603.704	-0.0013
603.982	-0.0011
604.259	-0.0011
604.536	0.0002
604.813	-0.0005
605.09	-0.0007
605.367	-0.0008
605.644	-0.0015
605.921	-0.001
606.197	-0.001
606.474	-0.0004
606.751	-0.0004
607.027	-0.0011
607.304	-0.001
607.58	-0.0007
607.856	-0.0018
608.133	-0.0019
608.409	-0.0004
608.685	-0.001
608.961	-0.0016
609.237	-0.0011
609.513	-0.0005
609.789	-0.0013
610.065	-0.0008
610.341	-0.0009
610.616	-0.0007
610.892	0.0006
611.167	0.0006
611.443	-0.0002
611.718	0.0003
611.994	-0.0004
612.269	-0.0002
612.544	-0.0006
612.819	-0.0008
613.095	-0.0013
613.37	0
613.645	-0.0011
613.919	-0.0011
614.194	0.0001
614.469	0.0007
614.744	0
615.019	-0.0011
615.293	-0.0011
615.568	-0.0009
615.842	-0.0003
616.116	-0.0001
616.391	0.0002
616.665	0.0006
616.939	-0.0001
617.213	0.0008
617.488	0.0004
617.762	-0.0008
618.035	0
618.309	-0.0013
618.583	0.0001
618.857	-0
619.131	0.001
619.404	0.0014
619.678	0.0011
619.951	0.0002
620.225	-0.0006
620.498	-0.0011
620.771	-0.0005
621.045	-0.0019
621.318	-0.0019
621.591	-0.0022
621.864	-0.0014
622.137	-0.0016
622.41	-0.0016
622.683	-0.0016
622.956	-0.0002
623.228	-0.0003
623.501	-0.0006
623.774	-0.0009
624.046	-0.0011
624.319	-0.0011
624.591	-0.0018
624.863	-0.0022
625.136	-0.0008
625.408	0.0007
625.68	0.0001
625.952	0.0003
626.224	0.0006
626.496	0.0005
626.768	0.0009
627.04	-0.0003
627.311	-0.0012
627.583	-0.0017
627.855	0.0001
628.126	0.001
628.398	0.0012
628.669	0.0017
628.941	0.0013
629.212	0.0009
629.483	0.0011
629.755	0.0005
630.026	0.0002
630.297	0.0009
630.568	0.0006
630.839	0.0008
631.11	0.0007
631.38	0.0013
631.651	0.002
631.922	0.0012
632.192	0.0002
632.463	-0.0006
632.733	-0.0002
633.004	0.0002
633.274	0.0003
633.545	0.001
633.815	0.0007
634.085	-0.0013
634.355	-0.0017
634.625	-0.0014
634.895	-0.0018
635.165	-0.0015
635.435	-0.0016
635.705	-0
635.974	-0.0023
636.244	-0.0003
636.514	0.001
636.783	-0.0003
637.053	-0.0004
637.322	-0.0004
637.591	0.0014
637.861	-0.0013
638.13	-0.0007
638.399	-0.0006
638.668	-0.0013
638.937	-0.0017
639.206	-0.0026
639.475	-0.0014
639.744	-0.0014
640.013	-0.0014
640.281	-0.0005
640.55	0.0003
640.819	-0.001
641.087	-0.0003
641.356	0.0004
641.624	0.0011
641.892	0.0026
642.161	0.0016
642.429	0.0001
642.697	-0.0002
642.965	0.0007
643.233	-0.0014
643.501	-0.0008
643.769	-0.0002
644.037	0.0001
644.305	-0.0009
644.572	-0.0007
644.84	-0.001
645.108	-0.0019
645.375	-0.0013
645.643	-0.0004
645.91	0.0015
646.177	0.0014
646.445	0.0014
646.712	0.0026
646.979	0.0032
647.246	0.0036
647.513	0.0036
647.78	0.0024
648.047	0.0013
648.314	-0.0004
648.58	-0.0003
648.847	-0.0006
649.114	0.001
649.38	0.0004
649.647	-0.0003
649.913	0.0008
650.18	0.0005
650.446	0.0008
650.712	-0.0011
650.978	0.0002
651.245	-0.0007
651.511	-0.0003
651.777	-0.0002
652.043	0
652.309	0.0007
652.574	0.0016
652.84	0.0021
653.106	0.0014
653.371	0.0021
653.637	0.002
653.903	0.0025
654.168	0.0037
654.433	0.0046
654.699	0.0036
654.964	0.0047
655.229	0.0027
655.494	0.0014
655.759	-0.0012
656.024	0.0003
656.289	-0
656.554	-0.0022
656.819	-0.0011
657.084	0.0004
657.349	0.0008
657.613	0.0013
657.878	0.0007
658.142	0
658.407	0.0001
658.671	0.0005
658.936	0.0001
659.2	0.0008
659.464	0.001
659.728	0.0016
659.992	0.0004
660.256	0.0004
660.52	0.0002
660.784	-0.0004
661.048	-0.0005
661.312	0.0002
661.575	0.001
661.839	0.0006
662.103	0.0005
662.366	-0.0002
662.63	-0.0008
662.893	-0.0007
663.156	-0.0002
663.42	-0.0016
663.683	-0.002
663.946	-0.0033
664.209	-0.0022
664.472	-0.003
664.735	-0.0019
664.998	-0.0006
665.261	-0.0012
665.524	-0.0015
665.786	-0.0014
666.049	-0.0011
666.312	-0.0006
666.574	-0.0009
666.837	0.0004
667.099	0.0009
667.361	-0
667.624	0.0003
667.886	-0.0017
668.148	-0.0003
668.41	-0.0003
668.672	-0.0015
668.934	0.0003
669.196	-0.0001
669.458	0.0008
669.72	0.0016
669.982	0.0014
670.243	0.0014
670.505	0.0007
670.766	0.0008
671.028	0.0007
671.289	-0.0016
671.551	-0.0006
671.812	-0.0017
672.073	-0.0007
672.334	-0.0008
672.596	-0.0011
672.857	-0.0015
673.118	-0.0006
673.379	-0.002
673.639	-0.0031
673.9	-0.0022
674.161	-0.0024
674.422	-0.0014
674.682	-0.0021
674.943	-0.001
675.203	-0.0016
675.464	-0.0015
675.724	-0.0033
675.985	-0.0026
676.245	-0.0025
676.505	-0.0026
676.765	-0.0034
677.025	-0.0016
677.285	-0.0013
677.545	0.0003
677.805	-0
678.065	-0.0004
678.325	0.0004
678.585	-0.0005
678.844	-0.0022
679.104	-0.0014
679.363	-0.0026
679.623	-0.0027
679.882	-0.0012
680.142	-0.0011
680.401	-0.0009
680.66	0.0002
680.919	0.0013
681.178	0.0015
681.437	0.0007
681.696	-0.0003
681.955	-0
682.214	0.001
682.473	-0.001
682.732	-0.0003
682.99	-0.001
683.249	0.0001
683.508	-0.0008
683.766	-0.0016
684.024	-0.0021
684.283	-0.0006
684.541	-0.0007
684.799	-0.0006
685.058	-0.0001
685.316	-0.0008
685.574	-0.0012
685.832	-0.0015
686.09	-0.0014
686.348	-0.0027
686.606	-0.0021
686.863	-0.0022
687.121	-0.0011
687.379	-0.0002
687.636	-0.0015
687.894	-0.0003
688.151	-0.0003
688.409	-0.0007
688.666	-0.0016
688.923	-0.0027
689.181	-0.0019
689.438	-0.0022
689.695	-0.0022
689.952	-0.0036
690.209	-0.0027
690.466	-0.0035
690.723	-0.0019
690.979	-0.0011
691.236	-0.0015
691.493	-0.0014
691.75	-0.001
692.006	-0.0018
692.263	-0.0014
692.519	-0.001
692.775	-0.0003
693.032	-0.0012
693.288	-0.0007
693.544	-0.0015
693.8	-0.001
694.056	-0.0014
694.313	-0.0016
694.568	-0.0017
694.824	-0.0022
695.08	-0.0014
695.336	-0.0028
695.592	-0.0033
695.847	-0.0024
696.103	-0.0016
696.359	-0.0015
696.614	-0.0013
696.869	-0.0018
697.125	-0.0035
697.38	-0.0029
697.635	-0.002
697.891	-0.0006
698.146	-0.0003
698.401	-0.0009
698.656	-0.0016
698.911	-0.0014
699.166	-0.0009
699.42	0.0003
699.675	-0.0005
699.93	-0.0002
700.185	-0.0006
700.439	-0.0008
700.694	-0.0004
700.948	-0.0003
701.203	-0.0003
701.457	-0.0017
701.711	-0.0028
701.965	-0.0016
702.22	-0.0024
702.474	-0.002
702.728	-0.0019
702.982	-0.0032
703.236	-0.0021
703.49	-0.0024
703.743	-0.0018
703.997	-0.0017
704.251	-0.0028
704.504	-0.0015
704.758	-0.0017
705.012	-0.0015
705.265	-0.0005
705.518	0.0003
705.772	-0.0003
706.025	-0.0001
706.278	-0.0009
706.531	-0.002
706.785	-0.0019
707.038	-0.0034
707.291	-0.002
707.543	-0.0023
707.796	-0.0023
708.049	-0.0024
708.302	-0.0031
708.555	-0.0026
708.807	-0.0015
709.06	-0.0016
709.312	-0.0015
709.565	-0.0014
709.817	-0.0022
710.069	-0.0024
710.322	-0.0027
710.574	-0.0034
710.826	-0.0028
711.078	-0.0028
711.33	-0.0025
711.582	-0.0043
711.834	-0.0039
712.086	-0.0041
712.338	-0.0038
712.59	-0.0034
712.841	-0.005
713.093	-0.0051
713.344	-0.005
713.596	-0.0043
713.847	-0.0035
714.099	-0.003
714.35	-0.0028
714.601	-0.0029
714.853	-0.0025
715.104	-0.0032
715.355	-0.002
715.606	-0.0022
715.857	-0.0013
716.108	-0.0022
716.359	-0.0016
716.609	-0.0027
716.86	-0.002
717.111	-0.0015
717.361	-0.0008
717.612	0.0004
717.863	0.0008
718.113	0.002
718.363	0.0002
718.614	0.0018
718.864	0.0016
719.114	0.0016
719.364	0.002
719.614	0.0005
719.865	0.0009
720.114	0.0026
720.364	0.0023
720.614	0.0021
720.864	0.0017
721.114	0.002
721.364	0.0015
721.613	0.0015
721.863	0.0008
722.112	0.0014
722.362	-0
722.611	-0.0008
722.86	-0.0002
723.11	-0.0004
723.359	-0.0011
723.608	-0.0009
723.857	-0.0012
724.106	-0.0009
724.355	-0.0001
724.604	-0.0002
724.853	0.0003
725.102	-0.0021
725.351	-0.0011
725.599	-0.003
725.848	-0.0024
726.097	-0.0013
726.345	-0.0024
726.594	-0.0031
726.842	-0.0026
727.09	-0.0042
727.339	-0.0052
727.587	-0.0043
727.835	-0.0047
728.083	-0.0038
728.331	-0.0038
728.579	-0.0028
728.827	-0.0027
729.075	-0.0023
729.323	-0.0025
729.571	-0.0026
729.818	-0.0019
730.066	-0.0017
730.314	-0.0015
730.561	-0.0004
730.809	0.0001
731.056	-0.0004
731.303	-0.0008
731.551	-0.0006
731.798	0
732.045	-0.0014
732.292	0.0003
732.539	0.0008
732.786	0.0008
733.033	0.0006
733.28	0.0002
733.527	-0.0003
733.774	-0.0005
734.021	-0.0028
734.267	-0.0032
734.514	-0.003
734.76	-0.0037
735.007	-0.0035
735.253	-0.0036
735.5	-0.003
735.746	-0.0035
735.992	-0.003
736.238	-0.0029
736.485	-0.0018
736.731	-0.0007
736.977	-0.0016
737.223	-0.0018
737.469	-0.0017
737.715	-0.0013
737.96	-0.0018
738.206	-0.0028
738.452	-0.0016
738.697	-0.0021
738.943	-0.002
739.189	-0.0019
739.434	-0.0022
739.679	-0.003
739.925	-0.0033
740.17	-0.0034
740.415	-0.0036
740.66	-0.0044
740.906	-0.0042
741.151	-0.0037
741.396	-0.0047
741.641	-0.0046
741.886	-0.0051
742.13	-0.0029
742.375	-0.0023
742.62	-0.0036
742.865	-0.0038
743.109	-0.0025
743.354	-0.0015
743.598	-0.0005
743.843	0.0006
744.087	0.0008
744.331	0.0013
744.576	0.0026
744.82	0.0033
745.064	0.0035
745.308	0.004
745.552	0.0024
745.796	0.0017
746.04	0.0008
746.284	0.0003
746.528	0.0011
746.771	0.0035
747.015	0.0032
747.259	0.002
747.502	0.0014
747.746	0.0002
747.989	0.0013
748.233	0.0009
748.476	0.0016
748.719	0.0025
748.963	0.0034
749.206	0.0032
749.449	0.0017
749.692	0.0019
749.935	0.0021
750.178	0.0004
750.421	-0.0001
750.664	0.0004
750.906	0.0014
751.149	0.0017
751.392	0.0008
751.635	-0.0004
751.877	-0.0007
752.12	-0.001
752.362	-0.0012
752.604	-0.0011
752.847	0.0009
753.089	0.0017
753.331	0.0019
753.573	0.0013
753.816	0.0001
754.058	-0.0006
754.3	-0.0024
754.542	-0.0009
754.783	-0.0022
755.025	-0.0018
755.267	-0.0008
755.509	-0.0014
755.75	-0.0013
755.992	-0.0018
756.234	-0.0019
756.475	-0.0017
756.716	-0.0025
756.958	-0.0024
757.199	-0.0029
757.44	-0.0018
757.682	-0.0017
757.923	-0.001
758.164	-0.0003
758.405	-0.0011
758.646	0.0003
758.887	0.0004
759.128	-0.0001
759.369	-0.0008
759.609	0.0007
759.85	0.0001
760.091	0.0009
760.331	0.0003
760.572	-0.0016
760.812	-0.001
761.053	-0.0017
761.293	-0.0011
761.533	-0.0016
761.774	-0.0003
762.014	0
762.254	-0.0009
762.494	-0.0016
762.734	-0.0017
762.974	-0.0027
763.214	-0.0029
763.454	-0.0021
763.694	-0.0028
763.933	-0.0038
764.173	-0.0051
764.413	-0.0056
764.652	-0.0057
764.892	-0.005
765.131	-0.005
765.371	-0.0043
765.61	-0.005
765.849	-0.0047
766.089	-0.0032
766.328	-0.0027
766.567	-0.0026
766.806	-0.0021
767.045	-0.002
767.284	-0.003
767.523	-0.003
767.762	-0.0037
768.001	-0.003
768.239	-0.0028
768.478	-0.0016
768.717	-0.0017
768.955	-0.0009
769.194	-0.0022
769.432	-0.0003
769.671	0.0004
769.909	0.0004
770.148	0.0005
770.386	0.001
770.624	0.0014
770.862	0.0018
771.1	0.0027
771.338	0.0023
771.576	0.0012
771.814	0.0015
772.052	0.0017
772.29	0.0026
772.528	0.003
772.765	0.004
773.003	0.0037
773.24	0.0039
773.478	0.0017
773.716	0.0027
773.953	0.0024
774.19	0.0018
774.428	0.0038
774.665	0.0036
774.902	0.0044
775.139	0.0037
775.376	0.0027
775.613	0.0028
775.85	0.0015
776.087	0.0005
776.324	0.0005
776.561	0.0005
776.798	-0.0002
777.034	-0.0008
777.271	0.0002
777.508	0.0008
777.744	0.0021
777.981	0.0024
778.217	0.0024
778.454	0.0013
778.69	0.0003
778.926	-0.0004
779.162	-0.0002
779.399	0.0002
779.635	-0.0003
779.871	0.0002
780.107	-0.0006
780.343	-0.0014
780.579	-0.0002
780.814	-0.0006
781.05	-0.0003
781.286	-0.0009
781.522	-0.0003
781.757	0.0002
781.993	0.0005
782.228	-0.0017
782.464	0.0002
782.699	-0.0007
782.934	-0.0017
783.17	-0.001
783.405	-0.0007
783.64	-0.0014
783.875	-0.0023
784.11	-0.0028
784.345	-0.001
784.58	0.0002
784.815	0.0004
785.05	-0.0007
785.285	-0.0013
785.52	-0.0019
785.754	-0.0032
785.989	-0.0029
786.223	-0.0049
786.458	-0.0052
786.692	-0.0037
786.927	-0.0032
787.161	-0.002
787.396	-0.0022
787.63	-0.0026
787.864	-0.0036
788.098	-0.0046
788.332	-0.0041
788.566	-0.003
788.8	-0.0036
789.034	-0.0022
789.268	-0.0022
789.502	-0.0022
789.736	-0.0028
789.969	-0.002
790.203	-0.0031
790.437	-0.0035
790.67	-0.0034
790.904	-0.0042
791.137	-0.0053
791.37	-0.005
791.604	-0.0067
791.837	-0.0063
792.07	-0.0055
792.303	-0.0059
792.537	-0.0054
792.77	-0.0057
793.003	-0.0056
793.236	-0.005
793.469	-0.0054
793.701	-0.0038
793.934	-0.0031
794.167	-0.0023
794.4	-0.0029
794.632	-0.0021
794.865	-0.0011
795.097	-0.0012
795.33	-0.0024
795.562	-0.0016
795.795	-0.0006
796.027	-0.0006
796.259	-0.0011
796.491	-0.001
796.724	-0.0012
796.956	0.0003
797.188	-0.0004
797.42	-0.0006
797.652	-0.0007
797.883	-0.0001
798.115	0.0017
798.347	0.0014
798.579	0.0027
798.81	0.0034
799.042	0.0037
799.274	0.0022
799.505	0.0008
799.737	0.0011
799.968	0.0006
800.199	-0.0003
800.431	-0.0011
800.662	0.0004
800.893	-0.0008
801.124	-0.0008
801.355	-0.0009
801.586	-0.0004
801.817	-0.0016
802.048	-0.0032
802.279	-0.0027
802.51	-0.0018
802.741	-0.0009
802.971	0.0002
803.202	0.0006
803.433	0.0007
803.663	-0.0005
803.894	-0.0001
804.124	0
804.354	-0.0003
804.585	0.0002
804.815	0.0011
805.045	0.0003
805.275	0.0004
805.506	-0.0337
805.736	0.0211
805.966	-0.1214
806.196	-0.092
