Data from 03 0.5 mM K2Cr2O7 0.3 mM BQDS 1 M H2SO4 5 min_Absorbance_0078.txt Node
Date: Tue Dec 14 00:09:46 EST 2021
User: kwabilab-user
Spectrometer: HDX00518
Trigger mode: 0
Integration Time (sec): 5.000000E-2
Scans to average: 50
Nonlinearity correction enabled: false
Boxcar width: 0
Storing dark spectrum: false
XAxis mode: Wavelengths
Number of Pixels in Spectrum: 2068
>>>>>Begin Spectral Data<<<<<
195.27	-0.0451
195.642	0.0907
196.014	-0
196.386	0.0964
196.758	0.0002
197.129	0.0182
197.501	-0.0046
197.872	0.0265
198.244	0.0305
198.615	0.0526
198.986	0.0408
199.357	0.039
199.728	0.0292
200.099	0.0347
200.47	0.0363
200.841	0.0243
201.212	0.0483
201.582	0.0567
201.953	0.034
202.323	0.0484
202.694	0.0284
203.064	0.0334
203.434	0.0264
203.804	0.0352
204.174	0.0465
204.544	0.0263
204.914	0.0471
205.284	0.0687
205.653	0.0304
206.023	0.0442
206.393	0.0156
206.762	0.0526
207.131	0.0477
207.501	0.0135
207.87	0.0624
208.239	0.0603
208.608	0.0416
208.977	0.0206
209.346	0.0405
209.715	0.027
210.083	0.0105
210.452	0.0112
210.82	0.0415
211.189	0.0146
211.557	0.0461
211.925	0.0077
212.294	0.0448
212.662	0.0298
213.03	0.0222
213.398	0.0635
213.766	0.0441
214.133	0.0348
214.501	0.0553
214.869	0.0513
215.236	0.0415
215.604	0.0539
215.971	0.057
216.338	0.0456
216.705	0.0673
217.072	0.0791
217.439	0.0566
217.806	0.0621
218.173	0.0675
218.54	0.091
218.907	0.0667
219.273	0.0898
219.64	0.0898
220.006	0.1033
220.373	0.0932
220.739	0.1304
221.105	0.1213
221.471	0.1521
221.837	0.1607
222.203	0.1763
222.569	0.1886
222.935	0.2277
223.3	0.2248
223.666	0.2523
224.031	0.282
224.397	0.2956
224.762	0.3165
225.127	0.3331
225.493	0.3651
225.858	0.3903
226.223	0.4098
226.588	0.4296
226.952	0.4554
227.317	0.4924
227.682	0.4958
228.046	0.4922
228.411	0.5435
228.775	0.5306
229.14	0.5566
229.504	0.5696
229.868	0.5894
230.232	0.5864
230.596	0.6155
230.96	0.6293
231.324	0.6168
231.688	0.6464
232.052	0.662
232.415	0.6594
232.779	0.6562
233.142	0.6874
233.505	0.6769
233.869	0.699
234.232	0.6806
234.595	0.6848
234.958	0.6977
235.321	0.6834
235.684	0.6852
236.047	0.679
236.409	0.6813
236.772	0.6808
237.134	0.6889
237.497	0.6988
237.859	0.705
238.222	0.7034
238.584	0.6933
238.946	0.6894
239.308	0.6747
239.67	0.6858
240.032	0.6804
240.393	0.6863
240.755	0.682
241.117	0.6719
241.478	0.6822
241.84	0.6843
242.201	0.6683
242.562	0.6586
242.924	0.6645
243.285	0.664
243.646	0.6686
244.007	0.668
244.368	0.6553
244.728	0.6674
245.089	0.6659
245.45	0.6624
245.81	0.6632
246.171	0.6585
246.531	0.6575
246.891	0.6564
247.252	0.6517
247.612	0.6546
247.972	0.6574
248.332	0.6524
248.692	0.6574
249.051	0.6535
249.411	0.6506
249.771	0.6457
250.13	0.6541
250.49	0.6449
250.849	0.6506
251.208	0.6537
251.568	0.6516
251.927	0.6455
252.286	0.6433
252.645	0.6515
253.004	0.6535
253.363	0.6557
253.721	0.6497
254.08	0.6523
254.439	0.6394
254.797	0.6407
255.155	0.6397
255.514	0.642
255.872	0.6523
256.23	0.6449
256.588	0.6484
256.946	0.6425
257.304	0.6424
257.662	0.6467
258.02	0.6442
258.377	0.6373
258.735	0.6362
259.093	0.6326
259.45	0.6342
259.807	0.6313
260.165	0.6354
260.522	0.6313
260.879	0.6294
261.236	0.6288
261.593	0.6287
261.95	0.624
262.306	0.6221
262.663	0.6138
263.02	0.6167
263.376	0.6166
263.733	0.6146
264.089	0.6116
264.445	0.6124
264.802	0.6127
265.158	0.6099
265.514	0.5973
265.87	0.5962
266.226	0.5934
266.581	0.5962
266.937	0.5943
267.293	0.5895
267.648	0.5902
268.004	0.584
268.359	0.5862
268.714	0.5808
269.07	0.5775
269.425	0.5719
269.78	0.5668
270.135	0.5678
270.49	0.5652
270.844	0.559
271.199	0.5561
271.554	0.5594
271.908	0.5495
272.263	0.5522
272.617	0.547
272.972	0.5402
273.326	0.5387
273.68	0.5336
274.034	0.532
274.388	0.5279
274.742	0.5237
275.096	0.5213
275.45	0.5164
275.803	0.518
276.157	0.5086
276.51	0.5022
276.864	0.5033
277.217	0.498
277.571	0.4978
277.924	0.4911
278.277	0.4883
278.63	0.4823
278.983	0.4795
279.336	0.4702
279.688	0.4677
280.041	0.4645
280.394	0.4574
280.746	0.4523
281.099	0.4516
281.451	0.4456
281.803	0.44
282.156	0.4351
282.508	0.4323
282.86	0.4315
283.212	0.421
283.564	0.4192
283.916	0.4166
284.267	0.4092
284.619	0.4027
284.971	0.4007
285.322	0.395
285.673	0.3911
286.025	0.386
286.376	0.3806
286.727	0.3774
287.078	0.3741
287.429	0.3707
287.78	0.3666
288.131	0.361
288.482	0.3568
288.833	0.3512
289.183	0.3451
289.534	0.3436
289.884	0.3397
290.235	0.3344
290.585	0.3303
290.935	0.3235
291.285	0.3223
291.635	0.3175
291.985	0.3136
292.335	0.3088
292.685	0.307
293.035	0.3031
293.384	0.2969
293.734	0.293
294.083	0.2889
294.433	0.2829
294.782	0.2806
295.131	0.2764
295.48	0.2714
295.829	0.2685
296.179	0.2647
296.527	0.2602
296.876	0.2578
297.225	0.2526
297.574	0.2493
297.922	0.246
298.271	0.2409
298.619	0.2389
298.968	0.2345
299.316	0.2306
299.664	0.2281
300.012	0.2257
300.36	0.2221
300.708	0.2191
301.056	0.2152
301.404	0.2119
301.752	0.21
302.099	0.2065
302.447	0.2045
302.794	0.2014
303.142	0.1997
303.489	0.1954
303.836	0.1936
304.183	0.1917
304.531	0.1901
304.878	0.188
305.224	0.1869
305.571	0.1824
305.918	0.1816
306.265	0.1802
306.611	0.1782
306.958	0.1769
307.304	0.1756
307.651	0.1738
307.997	0.1735
308.343	0.172
308.689	0.171
309.035	0.1684
309.381	0.1688
309.727	0.1672
310.073	0.1668
310.419	0.1658
310.764	0.1643
311.11	0.1645
311.455	0.1634
311.801	0.1632
312.146	0.1623
312.491	0.1628
312.837	0.1615
313.182	0.1617
313.527	0.1623
313.872	0.1614
314.216	0.1611
314.561	0.1606
314.906	0.1612
315.251	0.1615
315.595	0.1618
315.94	0.1629
316.284	0.1635
316.628	0.1638
316.972	0.1649
317.317	0.1646
317.661	0.1648
318.005	0.165
318.348	0.1663
318.692	0.1681
319.036	0.1678
319.38	0.1683
319.723	0.1702
320.067	0.1707
320.41	0.1711
320.754	0.1742
321.097	0.1741
321.44	0.1752
321.783	0.1769
322.126	0.1781
322.469	0.1788
322.812	0.1804
323.155	0.1818
323.498	0.183
323.84	0.1851
324.183	0.1877
324.525	0.189
324.868	0.1907
325.21	0.1913
325.552	0.1932
325.894	0.1941
326.236	0.196
326.578	0.1969
326.92	0.1991
327.262	0.2014
327.604	0.2028
327.946	0.2048
328.287	0.2061
328.629	0.2083
328.97	0.2094
329.312	0.2109
329.653	0.2126
329.994	0.2144
330.335	0.2161
330.676	0.2189
331.017	0.2206
331.358	0.2225
331.699	0.2248
332.04	0.2262
332.38	0.2276
332.721	0.2291
333.061	0.2316
333.402	0.2336
333.742	0.2352
334.083	0.2366
334.423	0.238
334.763	0.2394
335.103	0.2413
335.443	0.2428
335.783	0.2443
336.123	0.2454
336.462	0.2472
336.802	0.2497
337.141	0.2507
337.481	0.2514
337.82	0.2525
338.16	0.2545
338.499	0.2568
338.838	0.2573
339.177	0.2602
339.516	0.2605
339.855	0.2621
340.194	0.2632
340.533	0.2645
340.872	0.2655
341.21	0.2672
341.549	0.2678
341.887	0.2688
342.226	0.2696
342.564	0.2708
342.902	0.2711
343.24	0.2725
343.578	0.2721
343.916	0.2734
344.254	0.2733
344.592	0.274
344.93	0.2742
345.268	0.2744
345.605	0.2747
345.943	0.2752
346.28	0.2764
346.618	0.2762
346.955	0.2768
347.292	0.2758
347.629	0.2776
347.966	0.2767
348.303	0.2772
348.64	0.278
348.977	0.2782
349.314	0.2782
349.65	0.2775
349.987	0.2788
350.324	0.2783
350.66	0.2773
350.996	0.2763
351.333	0.2762
351.669	0.276
352.005	0.2749
352.341	0.2742
352.677	0.2734
353.013	0.2725
353.349	0.272
353.685	0.27
354.02	0.2695
354.356	0.2676
354.691	0.2668
355.027	0.2656
355.362	0.2653
355.697	0.2641
356.033	0.2633
356.368	0.2623
356.703	0.2607
357.038	0.2608
357.373	0.2587
357.707	0.2579
358.042	0.2562
358.377	0.2564
358.711	0.2544
359.046	0.2534
359.38	0.2529
359.715	0.2518
360.049	0.2503
360.383	0.2488
360.717	0.2471
361.051	0.2465
361.385	0.245
361.719	0.2416
362.053	0.2402
362.387	0.238
362.72	0.2361
363.054	0.2346
363.387	0.2339
363.721	0.2306
364.054	0.2283
364.387	0.2273
364.721	0.2252
365.054	0.2229
365.387	0.2212
365.72	0.2193
366.053	0.2173
366.385	0.2157
366.718	0.2131
367.051	0.2125
367.383	0.2115
367.716	0.2089
368.048	0.2082
368.381	0.207
368.713	0.2049
369.045	0.2034
369.377	0.2015
369.709	0.2001
370.041	0.1994
370.373	0.1969
370.705	0.1951
371.037	0.1937
371.368	0.1917
371.7	0.1911
372.031	0.1879
372.363	0.1864
372.694	0.1838
373.025	0.1816
373.356	0.1795
373.688	0.1781
374.019	0.175
374.35	0.1732
374.68	0.171
375.011	0.1684
375.342	0.1656
375.673	0.1646
376.003	0.1621
376.334	0.1602
376.664	0.1584
376.995	0.1564
377.325	0.1541
377.655	0.1526
377.985	0.1506
378.315	0.1493
378.645	0.1477
378.975	0.1467
379.305	0.1447
379.635	0.1442
379.964	0.1432
380.294	0.1403
380.623	0.1399
380.953	0.1384
381.282	0.136
381.611	0.1353
381.941	0.1332
382.27	0.1316
382.599	0.1296
382.928	0.1275
383.257	0.1265
383.585	0.1254
383.914	0.1231
384.243	0.1219
384.571	0.1198
384.9	0.1176
385.228	0.1164
385.557	0.114
385.885	0.1123
386.213	0.1109
386.541	0.1087
386.869	0.1069
387.197	0.1045
387.525	0.1031
387.853	0.1011
388.181	0.1002
388.508	0.0985
388.836	0.0963
389.164	0.0951
389.491	0.0943
389.818	0.0927
390.146	0.0916
390.473	0.0904
390.8	0.0891
391.127	0.0875
391.454	0.086
391.781	0.0847
392.108	0.0836
392.435	0.0827
392.761	0.0811
393.088	0.0809
393.415	0.0799
393.741	0.0788
394.067	0.0776
394.394	0.0775
394.72	0.0755
395.046	0.0744
395.372	0.074
395.698	0.0732
396.024	0.0722
396.35	0.0712
396.676	0.0694
397.001	0.0688
397.327	0.0676
397.653	0.0668
397.978	0.0647
398.303	0.0647
398.629	0.0628
398.954	0.0622
399.279	0.0619
399.604	0.0608
399.929	0.0597
400.254	0.0592
400.579	0.0587
400.904	0.0578
401.229	0.0571
401.553	0.0562
401.878	0.0559
402.202	0.0548
402.527	0.0542
402.851	0.0542
403.175	0.0528
403.5	0.0528
403.824	0.0526
404.148	0.0525
404.472	0.0509
404.796	0.0509
405.119	0.0506
405.443	0.0497
405.767	0.0491
406.09	0.049
406.414	0.0489
406.737	0.0486
407.061	0.0489
407.384	0.0483
407.707	0.0475
408.03	0.0474
408.353	0.0478
408.676	0.0472
408.999	0.0473
409.322	0.0466
409.645	0.0463
409.968	0.0469
410.29	0.0459
410.613	0.0466
410.935	0.0461
411.258	0.0461
411.58	0.0456
411.902	0.0455
412.224	0.045
412.546	0.045
412.868	0.0446
413.19	0.0454
413.512	0.045
413.834	0.0439
414.156	0.0454
414.477	0.0447
414.799	0.0446
415.121	0.0454
415.442	0.0442
415.763	0.0442
416.085	0.0446
416.406	0.0448
416.727	0.0446
417.048	0.0448
417.369	0.0439
417.69	0.044
418.011	0.0434
418.331	0.0444
418.652	0.0446
418.973	0.044
419.293	0.0443
419.614	0.0445
419.934	0.0451
420.254	0.0447
420.574	0.0449
420.895	0.0444
421.215	0.0448
421.535	0.0445
421.855	0.0436
422.174	0.044
422.494	0.0441
422.814	0.0435
423.134	0.0439
423.453	0.0442
423.773	0.044
424.092	0.0444
424.411	0.0441
424.731	0.0447
425.05	0.0439
425.369	0.0444
425.688	0.0444
426.007	0.044
426.326	0.0442
426.644	0.0438
426.963	0.0442
427.282	0.0447
427.6	0.0448
427.919	0.0445
428.237	0.0442
428.556	0.0444
428.874	0.0447
429.192	0.0452
429.51	0.0452
429.828	0.045
430.146	0.0457
430.464	0.0442
430.782	0.0455
431.1	0.0452
431.418	0.0446
431.735	0.0441
432.053	0.0446
432.37	0.0455
432.688	0.0451
433.005	0.0439
433.322	0.0448
433.639	0.0445
433.957	0.0457
434.274	0.045
434.591	0.0444
434.907	0.0438
435.224	0.0447
435.541	0.0446
435.858	0.0453
436.174	0.0456
436.491	0.0447
436.807	0.0434
437.124	0.0444
437.44	0.0447
437.756	0.0446
438.072	0.0447
438.388	0.0452
438.704	0.045
439.02	0.0438
439.336	0.0438
439.652	0.0439
439.968	0.0438
440.283	0.043
440.599	0.0432
440.914	0.0443
441.23	0.0439
441.545	0.0436
441.86	0.0436
442.175	0.0438
442.491	0.0433
442.806	0.0437
443.121	0.0432
443.435	0.0432
443.75	0.043
444.065	0.0434
444.38	0.0428
444.694	0.0435
445.009	0.0429
445.323	0.043
445.638	0.0419
445.952	0.0426
446.266	0.0431
446.58	0.0432
446.894	0.0428
447.208	0.0425
447.522	0.0424
447.836	0.0421
448.15	0.0418
448.464	0.0416
448.777	0.0426
449.091	0.0421
449.404	0.042
449.718	0.0408
450.031	0.0416
450.345	0.0408
450.658	0.0412
450.971	0.041
451.284	0.0415
451.597	0.0403
451.91	0.0402
452.223	0.0406
452.535	0.0401
452.848	0.0403
453.161	0.0391
453.473	0.0395
453.786	0.0395
454.098	0.0396
454.411	0.0403
454.723	0.0386
455.035	0.0387
455.347	0.0384
455.659	0.0387
455.971	0.0388
456.283	0.0385
456.595	0.0385
456.907	0.0388
457.218	0.0378
457.53	0.0374
457.841	0.0381
458.153	0.0378
458.464	0.038
458.776	0.0375
459.087	0.0368
459.398	0.0373
459.709	0.0372
460.02	0.0369
460.331	0.0362
460.642	0.0368
460.953	0.0362
461.263	0.036
461.574	0.0356
461.885	0.0348
462.195	0.0353
462.506	0.0351
462.816	0.0342
463.126	0.0352
463.437	0.0348
463.747	0.0338
464.057	0.0339
464.367	0.0339
464.677	0.0333
464.987	0.0334
465.296	0.0335
465.606	0.0319
465.916	0.0325
466.225	0.0325
466.535	0.0323
466.844	0.0321
467.154	0.0326
467.463	0.0312
467.772	0.0314
468.081	0.0313
468.39	0.0313
468.699	0.0311
469.008	0.0302
469.317	0.0305
469.626	0.0294
469.935	0.0293
470.243	0.0293
470.552	0.0296
470.86	0.0295
471.169	0.0289
471.477	0.0287
471.785	0.0289
472.093	0.0287
472.402	0.0275
472.71	0.0282
473.018	0.0277
473.326	0.0269
473.633	0.0271
473.941	0.0267
474.249	0.0264
474.556	0.0275
474.864	0.0268
475.171	0.0264
475.479	0.0258
475.786	0.0257
476.094	0.0258
476.401	0.0251
476.708	0.0252
477.015	0.0254
477.322	0.0252
477.629	0.0248
477.936	0.0246
478.242	0.0234
478.549	0.0232
478.856	0.0237
479.162	0.0227
479.469	0.0235
479.775	0.0232
480.081	0.0231
480.388	0.0224
480.694	0.0223
481	0.0223
481.306	0.0224
481.612	0.0217
481.918	0.0206
482.224	0.0219
482.53	0.0208
482.835	0.0214
483.141	0.021
483.446	0.0207
483.752	0.0205
484.057	0.0202
484.363	0.0189
484.668	0.0196
484.973	0.0188
485.278	0.0189
485.583	0.0186
485.888	0.0184
486.193	0.0174
486.498	0.0168
486.803	0.0182
487.107	0.0175
487.412	0.0179
487.717	0.0171
488.021	0.017
488.325	0.0179
488.63	0.0176
488.934	0.0175
489.238	0.0172
489.542	0.0154
489.846	0.0166
490.15	0.016
490.454	0.015
490.758	0.0153
491.062	0.0144
491.366	0.0158
491.669	0.0145
491.973	0.0156
492.276	0.0144
492.58	0.0144
492.883	0.0135
493.186	0.0137
493.489	0.0141
493.792	0.0124
494.096	0.0127
494.399	0.0123
494.701	0.0135
495.004	0.0116
495.307	0.013
495.61	0.0123
495.912	0.0126
496.215	0.0113
496.517	0.012
496.82	0.0114
497.122	0.0111
497.424	0.011
497.727	0.0113
498.029	0.0099
498.331	0.011
498.633	0.0107
498.935	0.0103
499.237	0.0099
499.538	0.01
499.84	0.0098
500.142	0.009
500.443	0.0082
500.745	0.0093
501.046	0.0087
501.348	0.0082
501.649	0.0076
501.95	0.0083
502.251	0.007
502.552	0.008
502.853	0.0071
503.154	0.0072
503.455	0.0078
503.756	0.0072
504.057	0.0077
504.357	0.0065
504.658	0.0075
504.958	0.0073
505.259	0.0074
505.559	0.0062
505.859	0.007
506.16	0.0065
506.46	0.0066
506.76	0.0071
507.06	0.0066
507.36	0.0054
507.66	0.0062
507.96	0.0059
508.259	0.0053
508.559	0.0059
508.859	0.0053
509.158	0.0054
509.457	0.0045
509.757	0.0061
510.056	0.0053
510.355	0.0049
510.655	0.005
510.954	0.0045
511.253	0.005
511.552	0.0049
511.851	0.0047
512.149	0.0027
512.448	0.0044
512.747	0.0044
513.045	0.0025
513.344	0.0034
513.642	0.0037
513.941	0.0038
514.239	0.0042
514.537	0.0026
514.836	0.0031
515.134	0.0013
515.432	0.0042
515.73	0.0029
516.028	0.0032
516.326	0.0032
516.623	0.0029
516.921	0.0019
517.219	0.0029
517.516	0.0034
517.814	0.0027
518.111	0.0027
518.409	0.0013
518.706	0.002
519.003	0.0024
519.3	0.0021
519.597	0.0011
519.894	0.0026
520.191	0.0015
520.488	0.0015
520.785	0.0005
521.082	0.0023
521.378	0.0014
521.675	0.0007
521.971	0.0004
522.268	0.0016
522.564	0.0015
522.861	0.0021
523.157	0.0023
523.453	0.0014
523.749	0.0025
524.045	0.0009
524.341	0.001
524.637	0.0003
524.933	0.001
525.229	0.0007
525.524	-0.0006
525.82	0.0004
526.115	-0.0002
526.411	-0.0001
526.706	0.0006
527.002	0.0013
527.297	0.0004
527.592	0.0006
527.887	0.0026
528.182	0.0008
528.477	0.0011
528.772	0.0014
529.067	0.001
529.362	0.0004
529.657	0.0004
529.951	0.0006
530.246	-0.0006
530.54	0.0002
530.835	-0.0003
531.129	0.0001
531.423	-0.0008
531.718	0.0006
532.012	0.0002
532.306	0.001
532.6	-0.0014
532.894	0.0005
533.188	0.0009
533.482	-0.0004
533.775	-0.0006
534.069	-0.0005
534.363	-0.0016
534.656	-0.0013
534.95	0.0004
535.243	-0.0008
535.536	-0.0002
535.83	-0.001
536.123	-0.0007
536.416	-0.0008
536.709	-0.0008
537.002	-0.0009
537.295	-0.0012
537.588	-0.0014
537.881	-0.0014
538.173	-0.0013
538.466	-0.0014
538.759	-0.001
539.051	0.0002
539.344	-0.0008
539.636	-0.0009
539.928	-0.0001
540.22	-0.0011
540.513	-0.0004
540.805	0.0005
541.097	-0.0008
541.389	-0.0014
541.681	-0.0001
541.972	0.0002
542.264	0.0001
542.556	-0.0003
542.847	0.0014
543.139	0.0003
543.431	-0.0005
543.722	0.0001
544.013	0.0005
544.305	0.0003
544.596	-0.0003
544.887	0.0003
545.178	0.0001
545.469	-0.0016
545.76	-0.0003
546.051	0.0006
546.342	0.0003
546.632	-0.0011
546.923	-0.0005
547.214	-0.0008
547.504	-0.0006
547.795	-0.001
548.085	-0.0015
548.375	-0.0006
548.666	-0.0018
548.956	-0.0008
549.246	-0.0013
549.536	0.0002
549.826	-0.0007
550.116	0.0001
550.406	-0.0009
550.695	-0.0025
550.985	-0.0002
551.275	-0.0012
551.564	-0.0013
551.854	-0
552.143	-0.0012
552.433	-0.0011
552.722	-0.0024
553.011	0.0001
553.3	-0.0007
553.589	-0.0007
553.879	-0.0014
554.167	-0.0008
554.456	-0.0004
554.745	0.0008
555.034	-0.0012
555.323	0.0002
555.611	-0.0004
555.9	-0.0009
556.188	-0.0016
556.477	-0.0007
556.765	-0.0018
557.053	-0.002
557.342	0.0002
557.63	-0.0012
557.918	-0.0007
558.206	-0.0005
558.494	-0.0003
558.782	-0.0008
559.069	0.001
559.357	0.0002
559.645	-0.0007
559.932	-0.0006
560.22	-0.0005
560.507	-0.0014
560.795	-0.0021
561.082	-0.0015
561.37	-0.0007
561.657	-0.0015
561.944	-0.0012
562.231	-0.0005
562.518	-0.0008
562.805	-0.0003
563.092	0.0003
563.379	0.0002
563.665	0.0004
563.952	-0.0009
564.239	0.0001
564.525	0.0001
564.811	0.0012
565.098	-0.0006
565.384	-0.0013
565.67	0.0001
565.957	0.0002
566.243	0.0012
566.529	-0.0003
566.815	0.0007
567.101	0.0011
567.387	0.0008
567.672	-0.0003
567.958	0.0013
568.244	-0.0001
568.529	0.0007
568.815	0.0003
569.1	-0.0007
569.386	-0.0008
569.671	0.0003
569.956	-0
570.242	-0.0006
570.527	-0.0008
570.812	-0.0001
571.097	0.0001
571.382	-0.0004
571.666	0.0005
571.951	-0.0008
572.236	-0.0008
572.521	-0.0002
572.805	-0.0004
573.09	-0.0003
573.374	-0.0012
573.659	-0.0009
573.943	-0.0011
574.227	-0.0001
574.511	-0.0007
574.795	-0.0003
575.079	-0.0006
575.363	-0.0011
575.647	-0.0003
575.931	-0.0005
576.215	-0.0016
576.499	-0.0013
576.782	-0.0006
577.066	-0.0014
577.349	0.0001
577.633	-0.0011
577.916	-0.0012
578.2	-0.0008
578.483	-0.0012
578.766	-0.0007
579.049	-0.0005
579.332	0.0007
579.615	0.0001
579.898	-0.0005
580.181	0.0006
580.464	0.0006
580.746	-0.0002
581.029	-0.0002
581.312	-0.0011
581.594	-0.0009
581.877	-0.0012
582.159	-0.0015
582.441	-0.0016
582.724	-0.001
583.006	-0.0002
583.288	0.0005
583.57	0.0003
583.852	0.0002
584.134	0.0002
584.416	0.0004
584.697	-0.0004
584.979	-0.0011
585.261	-0.0011
585.542	-0.0009
585.824	-0.0009
586.105	-0.0011
586.387	-0.0013
586.668	-0.0008
586.949	-0.0008
587.231	0.0001
587.512	0
587.793	-0.0005
588.074	-0.0013
588.355	-0.0001
588.636	-0.0008
588.916	-0.0006
589.197	-0.0002
589.478	-0.001
589.758	-0.0004
590.039	-0
590.319	0.0003
590.6	-0
590.88	0.0009
591.16	0.0002
591.441	0.0006
591.721	0.0001
592.001	-0.0003
592.281	-0.0009
592.561	-0.0004
592.841	-0.0011
593.12	-0.0022
593.4	-0.0013
593.68	-0.0012
593.959	-0.0011
594.239	-0.0011
594.518	-0.0003
594.798	0.0001
595.077	-0.0012
595.356	-0.0006
595.636	-0.001
595.915	-0.0008
596.194	0.0002
596.473	0.0002
596.752	0.0002
597.031	0.0003
597.31	0.0003
597.588	-0.0009
597.867	-0.0005
598.146	-0.0007
598.424	-0.0006
598.703	0.0002
598.981	-0.0018
599.259	-0.0012
599.538	-0.0008
599.816	0.0001
600.094	-0.0008
600.372	-0.002
600.65	-0.0019
600.928	-0.0006
601.206	-0.0002
601.484	-0.0006
601.762	-0.0004
602.04	-0.0003
602.317	-0.0005
602.595	-0.0001
602.872	0.0006
603.15	0.0007
603.427	-0.0013
603.704	-0.0014
603.982	-0.0007
604.259	-0.0004
604.536	0
604.813	-0.0008
605.09	-0.0012
605.367	-0.0009
605.644	-0.0018
605.921	-0.0013
606.197	-0.0012
606.474	-0.0011
606.751	-0.001
607.027	-0.0014
607.304	-0.0008
607.58	-0.001
607.856	-0.0011
608.133	-0.0014
608.409	-0.0009
608.685	-0.001
608.961	-0.0008
609.237	-0.0006
609.513	-0.0008
609.789	-0.0003
610.065	-0.0004
610.341	-0.0012
610.616	-0
610.892	0.0001
611.167	0.001
611.443	0.0006
611.718	-0.0004
611.994	-0.0003
612.269	0.0001
612.544	-0.0009
612.819	-0.001
613.095	-0.0013
613.37	0
613.645	-0.0014
613.919	-0.001
614.194	0.0002
614.469	0.0004
614.744	-0.0009
615.019	-0.0007
615.293	-0.0012
615.568	-0.0009
615.842	-0.0002
616.116	-0.0002
616.391	0.0009
616.665	0.0011
616.939	0.0002
617.213	0.0002
617.488	0.0003
617.762	-0.0007
618.035	-0.0001
618.309	-0.0014
618.583	0.0001
618.857	0.0002
619.131	0.0007
619.404	0.0006
619.678	-0.0002
619.951	-0.0006
620.225	-0.0005
620.498	-0.0001
620.771	-0.0011
621.045	-0.0018
621.318	-0.0019
621.591	-0.0017
621.864	-0.0018
622.137	-0.0021
622.41	-0.0013
622.683	-0.0007
622.956	-0.0006
623.228	-0.0006
623.501	0.0001
623.774	-0.0005
624.046	-0.0004
624.319	-0.0014
624.591	-0.0014
624.863	-0.0013
625.136	-0.0001
625.408	0.0006
625.68	-0.0002
625.952	0.0004
626.224	0.0012
626.496	0.0003
626.768	-0.0007
627.04	-0.0006
627.311	-0.0004
627.583	-0.0008
627.855	0.0005
628.126	0.0002
628.398	0.0004
628.669	0.0022
628.941	0.002
629.212	0.0015
629.483	0.0006
629.755	0.0008
630.026	-0.0001
630.297	0.0007
630.568	-0.0001
630.839	0.0011
631.11	0.0003
631.38	0.0009
631.651	0.0014
631.922	0.0003
632.192	0.0005
632.463	-0.0001
632.733	-0.0009
633.004	-0.0001
633.274	0.0001
633.545	0.0007
633.815	0.0002
634.085	-0.0013
634.355	-0.0013
634.625	-0.0012
634.895	-0.0006
635.165	-0.0006
635.435	-0.0015
635.705	-0.0014
635.974	-0.0015
636.244	-0.0007
636.514	-0.0004
636.783	-0.0016
637.053	-0.0015
637.322	0
637.591	-0.0002
637.861	-0.0015
638.13	-0.0021
638.399	-0.0014
638.668	-0.0012
638.937	-0.0027
639.206	-0.0026
639.475	-0.0024
639.744	-0.0028
640.013	-0.0019
640.281	-0.0018
640.55	-0.0008
640.819	-0.0017
641.087	-0.0012
641.356	-0.0015
641.624	-0.0006
641.892	0.0004
642.161	0.0001
642.429	-0.0009
642.697	-0.0007
642.965	-0.0008
643.233	-0.0015
643.501	-0.0019
643.769	-0.0009
644.037	-0.0006
644.305	-0.0016
644.572	-0.0008
644.84	-0.0014
645.108	-0.0017
645.375	-0.0011
645.643	-0.0025
645.91	0.0005
646.177	0.001
646.445	0.0006
646.712	0.0024
646.979	0.0026
647.246	0.003
647.513	0.0031
647.78	0.002
648.047	0.0008
648.314	-0.0012
648.58	-0.0013
648.847	-0.0008
649.114	-0.0005
649.38	-0.0002
649.647	-0.0006
649.913	-0.0005
650.18	-0.001
650.446	0.0006
650.712	-0.0013
650.978	-0.0006
651.245	-0.0016
651.511	-0.0006
651.777	-0.0002
652.043	-0.0009
652.309	0.0007
652.574	0.0011
652.84	0.0015
653.106	0.0013
653.371	0.0017
653.637	0.0018
653.903	0.0022
654.168	0.0015
654.433	0.0022
654.699	0.0026
654.964	0.0033
655.229	0.0019
655.494	0.0011
655.759	-0.002
656.024	0.0002
656.289	-0
656.554	-0.001
656.819	-0.0006
657.084	0.0005
657.349	-0.0002
657.613	0.0011
657.878	0.0007
658.142	-0.0005
658.407	-0.0002
658.671	0.0006
658.936	0.0002
659.2	0.0011
659.464	0.0022
659.728	0.0009
659.992	0.0005
660.256	-0.0002
660.52	0.0002
660.784	-0.0002
661.048	0.0007
661.312	0.0002
661.575	0.0004
661.839	0.0006
662.103	0.0003
662.366	0.0001
662.63	-0.0002
662.893	-0.0012
663.156	-0.0011
663.42	-0.001
663.683	-0.0019
663.946	-0.0029
664.209	-0.0029
664.472	-0.003
664.735	-0.002
664.998	-0.0005
665.261	-0.0003
665.524	-0.0011
665.786	-0.0001
666.049	-0.0003
666.312	0.0002
666.574	-0.0009
666.837	-0.001
667.099	0.0004
667.361	-0.001
667.624	-0.0012
667.886	-0.0021
668.148	-0.0022
668.41	-0.0008
668.672	-0.0015
668.934	0.0003
669.196	0.0002
669.458	0.0013
669.72	0.0013
669.982	0.0012
670.243	0.0014
670.505	-0.0001
670.766	0.0006
671.028	0.0006
671.289	-0.001
671.551	-0.0007
671.812	-0.002
672.073	-0.0007
672.334	-0.001
672.596	-0.0017
672.857	-0.0018
673.118	-0.0019
673.379	-0.0026
673.639	-0.0028
673.9	-0.002
674.161	-0.0018
674.422	-0.0028
674.682	-0.0017
674.943	-0.0015
675.203	-0.0015
675.464	-0.0024
675.724	-0.0035
675.985	-0.0035
676.245	-0.0039
676.505	-0.0029
676.765	-0.0029
677.025	-0.0023
677.285	-0.0015
677.545	-0.0009
677.805	-0.0015
678.065	-0.0013
678.325	-0.0007
678.585	-0.0008
678.844	-0.0032
679.104	-0.0022
679.363	-0.0034
679.623	-0.0032
679.882	-0.0028
680.142	-0.0015
680.401	-0.0017
680.66	-0.0006
680.919	0.0005
681.178	-0.0001
681.437	-0.001
681.696	-0.0011
681.955	-0.0006
682.214	0
682.473	-0.0009
682.732	-0.0025
682.99	-0.0016
683.249	-0.0012
683.508	-0.0013
683.766	-0.0015
684.024	-0.0022
684.283	-0.0011
684.541	-0.0009
684.799	-0.0007
685.058	-0.0008
685.316	-0.0014
685.574	-0.0015
685.832	-0.0018
686.09	-0.001
686.348	-0.0019
686.606	-0.0028
686.863	-0.0026
687.121	-0.0023
687.379	-0.0008
687.636	-0.0021
687.894	-0.0009
688.151	0.0003
688.409	-0.0012
688.666	-0.0017
688.923	-0.0033
689.181	-0.0022
689.438	-0.0029
689.695	-0.0027
689.952	-0.0045
690.209	-0.0032
690.466	-0.004
690.723	-0.0026
690.979	-0.0032
691.236	-0.0028
691.493	-0.0019
691.75	-0.0016
692.006	-0.0019
692.263	-0.0023
692.519	-0.0026
692.775	-0.0013
693.032	-0.0015
693.288	-0.0017
693.544	-0.0006
693.8	-0.0008
694.056	-0.0014
694.313	-0.0012
694.568	-0.0008
694.824	-0.0016
695.08	-0.0017
695.336	-0.0033
695.592	-0.0038
695.847	-0.0026
696.103	-0.002
696.359	-0.0016
696.614	-0.0022
696.869	-0.0027
697.125	-0.0037
697.38	-0.0021
697.635	-0.0022
697.891	-0.0015
698.146	-0.001
698.401	-0.0016
698.656	-0.0024
698.911	-0.0014
699.166	-0.0009
699.42	-0.0006
699.675	-0.0007
699.93	-0.0007
700.185	-0.001
700.439	-0.0009
700.694	-0.0005
700.948	-0.0014
701.203	-0.0014
701.457	-0.0019
701.711	-0.0023
701.965	-0.0024
702.22	-0.0026
702.474	-0.0024
702.728	-0.0014
702.982	-0.0021
703.236	-0.0007
703.49	-0.0005
703.743	-0.0009
703.997	-0.0013
704.251	-0.0019
704.504	-0.0016
704.758	-0.0021
705.012	-0.0011
705.265	-0.0009
705.518	0
705.772	-0.0005
706.025	-0.0007
706.278	-0.0015
706.531	-0.0023
706.785	-0.0018
707.038	-0.0031
707.291	-0.0024
707.543	-0.0029
707.796	-0.0022
708.049	-0.0028
708.302	-0.0031
708.555	-0.0033
708.807	-0.0016
709.06	-0.0023
709.312	-0.0018
709.565	-0.0019
709.817	-0.0027
710.069	-0.0029
710.322	-0.0036
710.574	-0.0039
710.826	-0.0036
711.078	-0.0037
711.33	-0.0032
711.582	-0.0041
711.834	-0.0037
712.086	-0.0041
712.338	-0.0048
712.59	-0.0045
712.841	-0.0059
713.093	-0.0054
713.344	-0.0046
713.596	-0.0054
713.847	-0.0034
714.099	-0.0045
714.35	-0.0046
714.601	-0.0043
714.853	-0.0035
715.104	-0.0033
715.355	-0.0031
715.606	-0.0032
715.857	-0.003
716.108	-0.0036
716.359	-0.0024
716.609	-0.0034
716.86	-0.0035
717.111	-0.0027
717.361	-0.0013
717.612	-0.0004
717.863	0.0004
718.113	0.001
718.363	0
718.614	0.001
718.864	0.0012
719.114	-0.0002
719.364	0.0008
719.614	0.0004
719.865	0.0005
720.114	0.002
720.364	0.0015
720.614	0.002
720.864	0.0024
721.114	0.0021
721.364	0.0001
721.613	0.0012
721.863	0.0006
722.112	0.0004
722.362	-0
722.611	-0.0016
722.86	-0.0018
723.11	-0.0012
723.359	-0.0013
723.608	-0.0017
723.857	-0.0016
724.106	-0.0002
724.355	-0.0004
724.604	-0.0005
724.853	-0.0012
725.102	-0.0031
725.351	-0.0023
725.599	-0.0031
725.848	-0.003
726.097	-0.0026
726.345	-0.0032
726.594	-0.0038
726.842	-0.0034
727.09	-0.004
727.339	-0.0058
727.587	-0.0057
727.835	-0.005
728.083	-0.0046
728.331	-0.0053
728.579	-0.0037
728.827	-0.0037
729.075	-0.0039
729.323	-0.0031
729.571	-0.0033
729.818	-0.0032
730.066	-0.0027
730.314	-0.0028
730.561	-0.0008
730.809	-0.0012
731.056	-0.0015
731.303	-0.0004
731.551	-0.0015
731.798	-0.0009
732.045	-0.0011
732.292	0.0003
732.539	0.0008
732.786	0.0016
733.033	0.0008
733.28	0.001
733.527	0.0005
733.774	-0.0005
734.021	-0.0021
734.267	-0.0022
734.514	-0.0031
734.76	-0.0038
735.007	-0.0034
735.253	-0.004
735.5	-0.0037
735.746	-0.0035
735.992	-0.0025
736.238	-0.003
736.485	-0.0028
736.731	-0.0021
736.977	-0.0024
737.223	-0.002
737.469	-0.0018
737.715	-0.0014
737.96	-0.0027
738.206	-0.0027
738.452	-0.0016
738.697	-0.002
738.943	-0.0018
739.189	-0.0019
739.434	-0.0021
739.679	-0.0027
739.925	-0.0033
740.17	-0.004
740.415	-0.0047
740.66	-0.0059
740.906	-0.0055
741.151	-0.0055
741.396	-0.0054
741.641	-0.006
741.886	-0.0058
742.13	-0.0034
742.375	-0.0034
742.62	-0.0035
742.865	-0.0032
743.109	-0.0021
743.354	-0.0013
743.598	-0.0003
743.843	0.0009
744.087	0.0013
744.331	0.0016
744.576	0.0018
744.82	0.0028
745.064	0.0033
745.308	0.0033
745.552	0.0026
745.796	0.0012
746.04	0.0019
746.284	0.0008
746.528	0.0012
746.771	0.0022
747.015	0.0026
747.259	0.0016
747.502	0.0005
747.746	0
747.989	0.0013
748.233	-0.0004
748.476	0.0012
748.719	0.0021
748.963	0.0026
749.206	0.0029
749.449	0.0015
749.692	0.0018
749.935	0.0011
750.178	-0.0002
750.421	-0.0006
750.664	0
750.906	0.0017
751.149	0.0011
751.392	0.0009
751.635	-0.0008
751.877	-0.0009
752.12	-0.0007
752.362	-0.0003
752.604	-0.0002
752.847	0.0011
753.089	0.0017
753.331	0.0015
753.573	0.0008
753.816	-0.001
754.058	-0.0014
754.3	-0.0027
754.542	-0.0015
754.783	-0.003
755.025	-0.0017
755.267	-0.0011
755.509	-0.0019
755.75	-0.0019
755.992	-0.0017
756.234	-0.0025
756.475	-0.0023
756.716	-0.0033
756.958	-0.0023
757.199	-0.0026
757.44	-0.002
757.682	-0.0026
757.923	-0.0008
758.164	-0.0006
758.405	0
758.646	0.0007
758.887	0.0009
759.128	0.0011
759.369	0.0003
759.609	0.0013
759.85	0.0003
760.091	0.001
760.331	0.0011
760.572	-0.0006
760.812	-0.0006
761.053	-0.0011
761.293	-0.0007
761.533	-0.0003
761.774	0.0008
762.014	0.0003
762.254	-0.0001
762.494	-0.0018
762.734	-0.0011
762.974	-0.0028
763.214	-0.0022
763.454	-0.0028
763.694	-0.0022
763.933	-0.0031
764.173	-0.0045
764.413	-0.0053
764.652	-0.0054
764.892	-0.0048
765.131	-0.0044
765.371	-0.0037
765.61	-0.0041
765.849	-0.0033
766.089	-0.0024
766.328	-0.0021
766.567	-0.0026
766.806	-0.0036
767.045	-0.0016
767.284	-0.0029
767.523	-0.0024
767.762	-0.0027
768.001	-0.0019
768.239	-0.0026
768.478	-0.0013
768.717	-0.0014
768.955	-0.0015
769.194	-0.0012
769.432	0.0002
769.671	0.0004
769.909	0.0015
770.148	0.0003
770.386	0.0022
770.624	0.0014
770.862	0.0012
771.1	0.0017
771.338	0.0011
771.576	0.0009
771.814	0.0018
772.052	0.002
772.29	0.002
772.528	0.0041
772.765	0.0042
773.003	0.0046
773.24	0.0033
773.478	0.0023
773.716	0.0023
773.953	0.0019
774.19	0.002
774.428	0.0037
774.665	0.0031
774.902	0.0034
775.139	0.0038
775.376	0.0031
775.613	0.003
775.85	0.0015
776.087	0.0014
776.324	0.0013
776.561	0.0006
776.798	0.0002
777.034	-0
777.271	0.0014
777.508	0.0014
777.744	0.0023
777.981	0.0032
778.217	0.0032
778.454	0.0023
778.69	0.0006
778.926	-0.0003
779.162	-0.0012
779.399	-0.0005
779.635	-0.0008
779.871	-0.0004
780.107	-0.0008
780.343	-0.0012
780.579	-0.0009
780.814	-0.0015
781.05	-0.0013
781.286	-0.0023
781.522	-0.0016
781.757	-0.0007
781.993	-0.0007
782.228	-0.0015
782.464	-0.0011
782.699	-0.0021
782.934	-0.0024
783.17	-0.0021
783.405	-0.0016
783.64	-0.0016
783.875	-0.0028
784.11	-0.0029
784.345	-0.0022
784.58	-0.0015
784.815	-0.0015
785.05	-0.0021
785.285	-0.0028
785.52	-0.0033
785.754	-0.0036
785.989	-0.0042
786.223	-0.0052
786.458	-0.0053
786.692	-0.0046
786.927	-0.0041
787.161	-0.003
787.396	-0.0042
787.63	-0.004
787.864	-0.0048
788.098	-0.0051
788.332	-0.0046
788.566	-0.0038
788.8	-0.0039
789.034	-0.0031
789.268	-0.0033
789.502	-0.0021
789.736	-0.0025
789.969	-0.0025
790.203	-0.0035
790.437	-0.0047
790.67	-0.0054
790.904	-0.0062
791.137	-0.0065
791.37	-0.0068
791.604	-0.0077
791.837	-0.0067
792.07	-0.0068
792.303	-0.0067
792.537	-0.0055
792.77	-0.0063
793.003	-0.0055
793.236	-0.0045
793.469	-0.0055
793.701	-0.0038
793.934	-0.0032
794.167	-0.0022
794.4	-0.0024
794.632	-0.0022
794.865	-0.0013
795.097	-0.0009
795.33	-0.0028
795.562	-0.0017
795.795	-0.0004
796.027	0.0001
796.259	-0.0001
796.491	0.0005
796.724	-0.0001
796.956	0.0006
797.188	0.0007
797.42	0.0002
797.652	0.0003
797.883	0.0007
798.115	0.0005
798.347	0.0007
798.579	0.0028
798.81	0.0025
799.042	0.0031
799.274	0.0021
799.505	0.0015
799.737	0.0009
799.968	0
800.199	-0.0002
800.431	-0.0013
800.662	-0.0014
800.893	-0.0015
801.124	-0.0018
801.355	-0.0021
801.586	-0.0014
801.817	-0.0021
802.048	-0.0041
802.279	-0.0035
802.51	-0.0028
802.741	-0.0016
802.971	0.0001
803.202	0.0004
803.433	0.001
803.663	-0.0004
803.894	-0.0009
804.124	-0.0018
804.354	-0.0015
804.585	-0.0016
804.815	-0.0005
805.045	-0.0008
805.275	-0.0003
805.506	-0.0276
805.736	-0.0277
805.966	-0.1016
806.196	-0.0492
