Data from 03 0.5 mM K2Cr2O7 0.3 mM BQDS 1 M H2SO4 5 min_Absorbance_0024.txt Node
Date: Mon Dec 13 19:39:44 EST 2021
User: kwabilab-user
Spectrometer: HDX00518
Trigger mode: 0
Integration Time (sec): 5.000000E-2
Scans to average: 50
Nonlinearity correction enabled: false
Boxcar width: 0
Storing dark spectrum: false
XAxis mode: Wavelengths
Number of Pixels in Spectrum: 2068
>>>>>Begin Spectral Data<<<<<
195.27	0.1057
195.642	0.324
196.014	0.031
196.386	0.19
196.758	0.0173
197.129	0.0033
197.501	0.0222
197.872	0.0356
198.244	0.0724
198.615	0.0565
198.986	0.0533
199.357	0.0767
199.728	0.0558
200.099	0.0603
200.47	0.0721
200.841	0.0648
201.212	0.0622
201.582	0.0726
201.953	0.0595
202.323	0.0616
202.694	0.0617
203.064	0.0575
203.434	0.0589
203.804	0.0601
204.174	0.0821
204.544	0.0597
204.914	0.0557
205.284	0.0784
205.653	0.0346
206.023	0.069
206.393	0.0481
206.762	0.0863
207.131	0.0794
207.501	0.0504
207.87	0.0852
208.239	0.0696
208.608	0.0759
208.977	0.0563
209.346	0.0581
209.715	0.06
210.083	0.0501
210.452	0.0633
210.82	0.0818
211.189	0.0353
211.557	0.077
211.925	0.0394
212.294	0.0836
212.662	0.0821
213.03	0.0642
213.398	0.0959
213.766	0.09
214.133	0.0687
214.501	0.0932
214.869	0.0872
215.236	0.0751
215.604	0.0733
215.971	0.086
216.338	0.1027
216.705	0.0906
217.072	0.1179
217.439	0.0803
217.806	0.0977
218.173	0.1089
218.54	0.0986
218.907	0.1155
219.273	0.1309
219.64	0.1101
220.006	0.143
220.373	0.1407
220.739	0.1564
221.105	0.1832
221.471	0.1909
221.837	0.2066
222.203	0.2285
222.569	0.2414
222.935	0.2613
223.3	0.2528
223.666	0.2734
224.031	0.3063
224.397	0.3217
224.762	0.3363
225.127	0.3643
225.493	0.4032
225.858	0.4013
226.223	0.4368
226.588	0.4904
226.952	0.4799
227.317	0.5088
227.682	0.5405
228.046	0.5462
228.411	0.5621
228.775	0.5731
229.14	0.5855
229.504	0.611
229.868	0.6232
230.232	0.6277
230.596	0.6496
230.96	0.6714
231.324	0.6698
231.688	0.6837
232.052	0.6936
232.415	0.7036
232.779	0.7274
233.142	0.7302
233.505	0.7127
233.869	0.7292
234.232	0.7251
234.595	0.7295
234.958	0.746
235.321	0.7454
235.684	0.7435
236.047	0.7504
236.409	0.7486
236.772	0.7532
237.134	0.7621
237.497	0.7578
237.859	0.7686
238.222	0.755
238.584	0.7456
238.946	0.7479
239.308	0.7516
239.67	0.752
240.032	0.7468
240.393	0.7564
240.755	0.7469
241.117	0.7562
241.478	0.7489
241.84	0.7558
242.201	0.7492
242.562	0.7366
242.924	0.7456
243.285	0.7294
243.646	0.7394
244.007	0.7378
244.368	0.7281
244.728	0.7434
245.089	0.7403
245.45	0.7436
245.81	0.7422
246.171	0.7396
246.531	0.7298
246.891	0.7376
247.252	0.7283
247.612	0.7198
247.972	0.7334
248.332	0.7405
248.692	0.7391
249.051	0.7404
249.411	0.7402
249.771	0.7267
250.13	0.732
250.49	0.7316
250.849	0.7389
251.208	0.7339
251.568	0.7381
251.927	0.7322
252.286	0.739
252.645	0.7342
253.004	0.7369
253.363	0.729
253.721	0.7415
254.08	0.7337
254.439	0.7369
254.797	0.7241
255.155	0.7304
255.514	0.7278
255.872	0.7362
256.23	0.7351
256.588	0.7371
256.946	0.738
257.304	0.7228
257.662	0.7318
258.02	0.7343
258.377	0.7308
258.735	0.7296
259.093	0.7247
259.45	0.725
259.807	0.7275
260.165	0.7275
260.522	0.7267
260.879	0.7201
261.236	0.725
261.593	0.7196
261.95	0.7208
262.306	0.7183
262.663	0.7103
263.02	0.7138
263.376	0.7155
263.733	0.7129
264.089	0.7061
264.445	0.7058
264.802	0.7078
265.158	0.7105
265.514	0.7045
265.87	0.6937
266.226	0.6972
266.581	0.7061
266.937	0.6954
267.293	0.6928
267.648	0.6882
268.004	0.6831
268.359	0.6887
268.714	0.6787
269.07	0.6777
269.425	0.674
269.78	0.6714
270.135	0.6695
270.49	0.6673
270.844	0.6667
271.199	0.6604
271.554	0.6545
271.908	0.6523
272.263	0.6565
272.617	0.6449
272.972	0.6476
273.326	0.6392
273.68	0.6359
274.034	0.6352
274.388	0.6355
274.742	0.6275
275.096	0.6225
275.45	0.6184
275.803	0.6194
276.157	0.6139
276.51	0.6055
276.864	0.6016
277.217	0.5975
277.571	0.5977
277.924	0.5919
278.277	0.5866
278.63	0.5849
278.983	0.5755
279.336	0.566
279.688	0.5618
280.041	0.5597
280.394	0.5536
280.746	0.5538
281.099	0.5457
281.451	0.5393
281.803	0.5326
282.156	0.5324
282.508	0.5279
282.86	0.5222
283.212	0.5129
283.564	0.5108
283.916	0.5064
284.267	0.4991
284.619	0.4936
284.971	0.4887
285.322	0.4857
285.673	0.481
286.025	0.4742
286.376	0.4712
286.727	0.4649
287.078	0.4598
287.429	0.4553
287.78	0.4516
288.131	0.4445
288.482	0.4394
288.833	0.4345
289.183	0.4278
289.534	0.423
289.884	0.4187
290.235	0.4139
290.585	0.4053
290.935	0.4011
291.285	0.394
291.635	0.3899
291.985	0.3882
292.335	0.3816
292.685	0.3792
293.035	0.3716
293.384	0.3657
293.734	0.3629
294.083	0.3579
294.433	0.3513
294.782	0.3473
295.131	0.3412
295.48	0.3357
295.829	0.3315
296.179	0.3281
296.527	0.3244
296.876	0.3182
297.225	0.3135
297.574	0.308
297.922	0.3048
298.271	0.3004
298.619	0.2963
298.968	0.2912
299.316	0.2885
299.664	0.2827
300.012	0.2797
300.36	0.276
300.708	0.2724
301.056	0.2679
301.404	0.2647
301.752	0.2617
302.099	0.2561
302.447	0.2533
302.794	0.2501
303.142	0.247
303.489	0.243
303.836	0.242
304.183	0.2383
304.531	0.2364
304.878	0.2329
305.224	0.2312
305.571	0.2279
305.918	0.225
306.265	0.2234
306.611	0.2204
306.958	0.2188
307.304	0.2163
307.651	0.2149
307.997	0.2137
308.343	0.2124
308.689	0.2103
309.035	0.2085
309.381	0.2075
309.727	0.2059
310.073	0.2049
310.419	0.2043
310.764	0.2017
311.11	0.2025
311.455	0.2006
311.801	0.201
312.146	0.1997
312.491	0.1995
312.837	0.1977
313.182	0.198
313.527	0.1976
313.872	0.1976
314.216	0.1975
314.561	0.1969
314.906	0.1972
315.251	0.1969
315.595	0.1978
315.94	0.1978
316.284	0.1973
316.628	0.1983
316.972	0.1988
317.317	0.1991
317.661	0.1996
318.005	0.2004
318.348	0.2012
318.692	0.2018
319.036	0.2019
319.38	0.2031
319.723	0.2034
320.067	0.2052
320.41	0.2057
320.754	0.2071
321.097	0.208
321.44	0.2091
321.783	0.2099
322.126	0.212
322.469	0.2122
322.812	0.2135
323.155	0.2155
323.498	0.2169
323.84	0.2191
324.183	0.2207
324.525	0.2229
324.868	0.2241
325.21	0.2239
325.552	0.2265
325.894	0.2277
326.236	0.2297
326.578	0.231
326.92	0.2328
327.262	0.235
327.604	0.2366
327.946	0.2374
328.287	0.24
328.629	0.2423
328.97	0.2438
329.312	0.2456
329.653	0.2462
329.994	0.2494
330.335	0.2512
330.676	0.2536
331.017	0.2548
331.358	0.2569
331.699	0.2594
332.04	0.261
332.38	0.2622
332.721	0.2641
333.061	0.2667
333.402	0.2689
333.742	0.2706
334.083	0.2732
334.423	0.2736
334.763	0.2748
335.103	0.2763
335.443	0.2783
335.783	0.2795
336.123	0.2813
336.462	0.2829
336.802	0.2849
337.141	0.2859
337.481	0.288
337.82	0.2889
338.16	0.29
338.499	0.2924
338.838	0.2935
339.177	0.2955
339.516	0.2965
339.855	0.2989
340.194	0.2996
340.533	0.3003
340.872	0.3017
341.21	0.3037
341.549	0.3042
341.887	0.3054
342.226	0.3065
342.564	0.3066
342.902	0.308
343.24	0.3085
343.578	0.3094
343.916	0.3101
344.254	0.31
344.592	0.3099
344.93	0.3111
345.268	0.3118
345.605	0.3114
345.943	0.312
346.28	0.3116
346.618	0.3124
346.955	0.3124
347.292	0.3124
347.629	0.3132
347.966	0.3131
348.303	0.314
348.64	0.3134
348.977	0.3137
349.314	0.3142
349.65	0.3138
349.987	0.3138
350.324	0.314
350.66	0.3131
350.996	0.3126
351.333	0.3117
351.669	0.312
352.005	0.3099
352.341	0.3093
352.677	0.3083
353.013	0.3073
353.349	0.3064
353.685	0.3048
354.02	0.3035
354.356	0.302
354.691	0.3013
355.027	0.3
355.362	0.2992
355.697	0.2976
356.033	0.2965
356.368	0.296
356.703	0.2938
357.038	0.2933
357.373	0.2904
357.707	0.2904
358.042	0.2895
358.377	0.2895
358.711	0.2871
359.046	0.2862
359.38	0.2847
359.715	0.2836
360.049	0.2818
360.383	0.2809
360.717	0.2791
361.051	0.2775
361.385	0.2761
361.719	0.2719
362.053	0.2715
362.387	0.269
362.72	0.2665
363.054	0.2646
363.387	0.2622
363.721	0.2603
364.054	0.2575
364.387	0.2553
364.721	0.2543
365.054	0.2523
365.387	0.2491
365.72	0.2465
366.053	0.2455
366.385	0.2429
366.718	0.2412
367.051	0.2405
367.383	0.2385
367.716	0.2365
368.048	0.2348
368.381	0.2327
368.713	0.2318
369.045	0.2305
369.377	0.228
369.709	0.2267
370.041	0.2244
370.373	0.2231
370.705	0.22
371.037	0.2197
371.368	0.2175
371.7	0.2167
372.031	0.2131
372.363	0.211
372.694	0.209
373.025	0.2056
373.356	0.2033
373.688	0.2011
374.019	0.1982
374.35	0.1966
374.68	0.1937
375.011	0.1916
375.342	0.188
375.673	0.1869
376.003	0.1838
376.334	0.1824
376.664	0.18
376.995	0.1779
377.325	0.1749
377.655	0.174
377.985	0.1716
378.315	0.1703
378.645	0.1688
378.975	0.1667
379.305	0.1645
379.635	0.1643
379.964	0.1632
380.294	0.1607
380.623	0.1591
380.953	0.157
381.282	0.1555
381.611	0.1539
381.941	0.1524
382.27	0.151
382.599	0.1482
382.928	0.1467
383.257	0.1452
383.585	0.1427
383.914	0.1425
384.243	0.1392
384.571	0.1372
384.9	0.1341
385.228	0.1329
385.557	0.1301
385.885	0.1282
386.213	0.1273
386.541	0.1247
386.869	0.1233
387.197	0.1209
387.525	0.1192
387.853	0.1171
388.181	0.1151
388.508	0.1127
388.836	0.1114
389.164	0.1088
389.491	0.1091
389.818	0.1067
390.146	0.1053
390.473	0.104
390.8	0.1023
391.127	0.1006
391.454	0.0993
391.781	0.0981
392.108	0.0972
392.435	0.0954
392.761	0.0942
393.088	0.0934
393.415	0.0924
393.741	0.0918
394.067	0.0896
394.394	0.0892
394.72	0.0874
395.046	0.0867
395.372	0.086
395.698	0.0849
396.024	0.0841
396.35	0.0824
396.676	0.081
397.001	0.08
397.327	0.0788
397.653	0.0771
397.978	0.0755
398.303	0.0752
398.629	0.0731
398.954	0.0727
399.279	0.0717
399.604	0.0713
399.929	0.0704
400.254	0.0691
400.579	0.0688
400.904	0.0681
401.229	0.0671
401.553	0.0663
401.878	0.0648
402.202	0.0648
402.527	0.064
402.851	0.0636
403.175	0.0626
403.5	0.0622
403.824	0.0615
404.148	0.0614
404.472	0.0602
404.796	0.0601
405.119	0.0594
405.443	0.0594
405.767	0.058
406.09	0.0579
406.414	0.0574
406.737	0.057
407.061	0.0574
407.384	0.057
407.707	0.057
408.03	0.0559
408.353	0.0559
408.676	0.0552
408.999	0.0551
409.322	0.0545
409.645	0.0551
409.968	0.0544
410.29	0.0538
410.613	0.0545
410.935	0.0546
411.258	0.0539
411.58	0.0535
411.902	0.0539
412.224	0.0531
412.546	0.0523
412.868	0.0527
413.19	0.0531
413.512	0.0531
413.834	0.052
414.156	0.0521
414.477	0.0528
414.799	0.052
415.121	0.0525
415.442	0.052
415.763	0.0525
416.085	0.0515
416.406	0.0526
416.727	0.0528
417.048	0.0516
417.369	0.0518
417.69	0.0514
418.011	0.0512
418.331	0.0518
418.652	0.0525
418.973	0.0518
419.293	0.0522
419.614	0.0516
419.934	0.0528
420.254	0.0517
420.574	0.0525
420.895	0.052
421.215	0.052
421.535	0.0522
421.855	0.051
422.174	0.0513
422.494	0.0514
422.814	0.0515
423.134	0.0515
423.453	0.0514
423.773	0.0515
424.092	0.0514
424.411	0.0513
424.731	0.0512
425.05	0.0514
425.369	0.0514
425.688	0.0519
426.007	0.051
426.326	0.0515
426.644	0.0515
426.963	0.052
427.282	0.0515
427.6	0.0512
427.919	0.0516
428.237	0.0515
428.556	0.0512
428.874	0.0518
429.192	0.0523
429.51	0.0523
429.828	0.0518
430.146	0.0524
430.464	0.0508
430.782	0.0515
431.1	0.0517
431.418	0.0508
431.735	0.0516
432.053	0.052
432.37	0.052
432.688	0.0513
433.005	0.0514
433.322	0.0517
433.639	0.0513
433.957	0.052
434.274	0.0515
434.591	0.0515
434.907	0.0511
435.224	0.0514
435.541	0.0514
435.858	0.0526
436.174	0.0519
436.491	0.0511
436.807	0.0504
437.124	0.051
437.44	0.0514
437.756	0.0506
438.072	0.0519
438.388	0.0525
438.704	0.0514
439.02	0.0514
439.336	0.0514
439.652	0.0507
439.968	0.0497
440.283	0.0493
440.599	0.0498
440.914	0.0515
441.23	0.0506
441.545	0.0506
441.86	0.05
442.175	0.05
442.491	0.0511
442.806	0.0503
443.121	0.0501
443.435	0.0498
443.75	0.0501
444.065	0.0502
444.38	0.0499
444.694	0.0495
445.009	0.0501
445.323	0.0496
445.638	0.0488
445.952	0.0488
446.266	0.0496
446.58	0.0489
446.894	0.0492
447.208	0.0493
447.522	0.0494
447.836	0.049
448.15	0.0483
448.464	0.0489
448.777	0.0481
449.091	0.0477
449.404	0.0481
449.718	0.0483
450.031	0.0477
450.345	0.0475
450.658	0.0478
450.971	0.0475
451.284	0.0471
451.597	0.0465
451.91	0.0472
452.223	0.0468
452.535	0.0465
452.848	0.0469
453.161	0.0459
453.473	0.0467
453.786	0.0454
454.098	0.0463
454.411	0.0463
454.723	0.0454
455.035	0.0454
455.347	0.0451
455.659	0.0451
455.971	0.0458
456.283	0.044
456.595	0.0446
456.907	0.0448
457.218	0.0439
457.53	0.043
457.841	0.0438
458.153	0.0435
458.464	0.0437
458.776	0.0431
459.087	0.0426
459.398	0.0433
459.709	0.0424
460.02	0.0424
460.331	0.0416
460.642	0.0417
460.953	0.0416
461.263	0.0414
461.574	0.0411
461.885	0.0412
462.195	0.0407
462.506	0.0408
462.816	0.0401
463.126	0.0398
463.437	0.04
463.747	0.0393
464.057	0.039
464.367	0.0391
464.677	0.039
464.987	0.0383
465.296	0.0389
465.606	0.0374
465.916	0.0384
466.225	0.0373
466.535	0.038
466.844	0.0377
467.154	0.0374
467.463	0.0358
467.772	0.0368
468.081	0.0369
468.39	0.036
468.699	0.0357
469.008	0.0357
469.317	0.0348
469.626	0.0339
469.935	0.0347
470.243	0.0345
470.552	0.0345
470.86	0.0341
471.169	0.0337
471.477	0.0333
471.785	0.0334
472.093	0.0327
472.402	0.0324
472.71	0.0333
473.018	0.0313
473.326	0.0322
473.633	0.0324
473.941	0.0322
474.249	0.0317
474.556	0.0324
474.864	0.0316
475.171	0.0313
475.479	0.0306
475.786	0.0302
476.094	0.0301
476.401	0.0296
476.708	0.0287
477.015	0.0291
477.322	0.0294
477.629	0.029
477.936	0.0289
478.242	0.0275
478.549	0.0276
478.856	0.0281
479.162	0.0277
479.469	0.0274
479.775	0.0275
480.081	0.0269
480.388	0.0262
480.694	0.0259
481	0.0266
481.306	0.0253
481.612	0.0259
481.918	0.0251
482.224	0.0253
482.53	0.0248
482.835	0.0258
483.141	0.0243
483.446	0.0239
483.752	0.0242
484.057	0.0238
484.363	0.0236
484.668	0.0234
484.973	0.0222
485.278	0.0228
485.583	0.0224
485.888	0.0231
486.193	0.0212
486.498	0.0212
486.803	0.0218
487.107	0.0213
487.412	0.0209
487.717	0.0207
488.021	0.0207
488.325	0.0217
488.63	0.0208
488.934	0.0208
489.238	0.02
489.542	0.0181
489.846	0.0193
490.15	0.0192
490.454	0.0199
490.758	0.0185
491.062	0.0181
491.366	0.0188
491.669	0.018
491.973	0.0193
492.276	0.0174
492.58	0.0176
492.883	0.0168
493.186	0.0166
493.489	0.0166
493.792	0.016
494.096	0.0156
494.399	0.0156
494.701	0.0159
495.004	0.0153
495.307	0.0158
495.61	0.0143
495.912	0.0157
496.215	0.0141
496.517	0.0142
496.82	0.0147
497.122	0.0134
497.424	0.0142
497.727	0.0134
498.029	0.0122
498.331	0.0137
498.633	0.0141
498.935	0.0128
499.237	0.0126
499.538	0.0126
499.84	0.0132
500.142	0.012
500.443	0.0117
500.745	0.0106
501.046	0.0102
501.348	0.0109
501.649	0.0102
501.95	0.0105
502.251	0.0106
502.552	0.0103
502.853	0.0093
503.154	0.0095
503.455	0.01
503.756	0.01
504.057	0.0107
504.357	0.0091
504.658	0.0096
504.958	0.0096
505.259	0.0094
505.559	0.0084
505.859	0.009
506.16	0.0087
506.46	0.0092
506.76	0.0095
507.06	0.0085
507.36	0.0078
507.66	0.0079
507.96	0.0088
508.259	0.0079
508.559	0.0086
508.859	0.008
509.158	0.0073
509.457	0.0073
509.757	0.0066
510.056	0.0071
510.355	0.0077
510.655	0.0059
510.954	0.0073
511.253	0.0069
511.552	0.0063
511.851	0.0062
512.149	0.0053
512.448	0.0063
512.747	0.0061
513.045	0.0059
513.344	0.0053
513.642	0.0045
513.941	0.0049
514.239	0.0045
514.537	0.0041
514.836	0.0044
515.134	0.0029
515.432	0.0064
515.73	0.0037
516.028	0.0043
516.326	0.0044
516.623	0.0047
516.921	0.0033
517.219	0.003
517.516	0.0042
517.814	0.0039
518.111	0.0044
518.409	0.0025
518.706	0.0034
519.003	0.0047
519.3	0.003
519.597	0.0032
519.894	0.0038
520.191	0.0033
520.488	0.0038
520.785	0.0025
521.082	0.0025
521.378	0.0023
521.675	0.0027
521.971	0.0017
522.268	0.0028
522.564	0.002
522.861	0.0028
523.157	0.0023
523.453	0.0033
523.749	0.0022
524.045	0.0028
524.341	0.0036
524.637	0.0015
524.933	0.0012
525.229	0.003
525.524	0.001
525.82	0.0014
526.115	0.0003
526.411	0.0011
526.706	0.0019
527.002	0.0032
527.297	0.0016
527.592	0.0019
527.887	0.0021
528.182	0.0021
528.477	0.002
528.772	0.0017
529.067	0.0013
529.362	0.0014
529.657	0.0019
529.951	0.0017
530.246	0.0003
530.54	0.0016
530.835	0.0008
531.129	0.0003
531.423	0.0008
531.718	0.0015
532.012	0.0013
532.306	0.0012
532.6	0.0001
532.894	0.001
533.188	0.0018
533.482	0.001
533.775	0.0012
534.069	0.0004
534.363	-0.0013
534.656	-0.0013
534.95	0.0005
535.243	-0.0002
535.536	-0.0003
535.83	-0.0008
536.123	-0.0002
536.416	0.0004
536.709	-0.0002
537.002	-0.0005
537.295	-0.0003
537.588	0.0001
537.881	-0.0007
538.173	-0.0002
538.466	-0.0002
538.759	-0.0004
539.051	0.0004
539.344	-0.0002
539.636	-0.0006
539.928	0.0001
540.22	0.0006
540.513	0.0002
540.805	0.0008
541.097	-0.0004
541.389	-0.0008
541.681	-0.0003
541.972	0.0003
542.264	0.0008
542.556	0.0006
542.847	0.0014
543.139	0.0006
543.431	0.0004
543.722	0.0005
544.013	0.0008
544.305	0.0004
544.596	-0.0004
544.887	0.0015
545.178	0.0013
545.469	-0.001
545.76	-0.0006
546.051	0.0008
546.342	0.0003
546.632	-0
546.923	-0.0012
547.214	-0.0002
547.504	-0.0007
547.795	-0.0001
548.085	-0.0018
548.375	-0.0006
548.666	-0.001
548.956	-0.0012
549.246	-0.0006
549.536	-0.0008
549.826	-0.0007
550.116	0.0001
550.406	-0.0018
550.695	-0.0023
550.985	0.0005
551.275	-0.0007
551.564	-0.0006
551.854	-0.0003
552.143	-0.0004
552.433	-0.0017
552.722	-0.0027
553.011	0.0005
553.3	-0.0006
553.589	-0
553.879	-0.0006
554.167	-0.0005
554.456	0.0006
554.745	0.0002
555.034	-0.0011
555.323	0.0012
555.611	-0
555.9	0.0002
556.188	-0.0008
556.477	-0.0007
556.765	-0.0023
557.053	-0.002
557.342	-0.0009
557.63	-0.0012
557.918	-0.0003
558.206	0.0002
558.494	0.0002
558.782	-0.0001
559.069	0.0009
559.357	0.0006
559.645	-0.0009
559.932	-0.0006
560.22	-0.0001
560.507	-0.0014
560.795	-0.001
561.082	-0.0006
561.37	-0.0001
561.657	-0.0009
561.944	-0.001
562.231	-0.0006
562.518	-0.0002
562.805	-0.0007
563.092	0.0003
563.379	0.0005
563.665	0.0009
563.952	0.0006
564.239	0.0001
564.525	-0.0007
564.811	0.0009
565.098	0.0007
565.384	-0.0003
565.67	0.0008
565.957	0.0003
566.243	0.0018
566.529	0.0007
566.815	0.0005
567.101	0.0013
567.387	-0.0001
567.672	0.0007
567.958	0.0013
568.244	0.001
568.529	0.0004
568.815	-0.0003
569.1	-0.0011
569.386	-0.0006
569.671	-0.0001
569.956	0.0003
570.242	-0.0001
570.527	-0.0004
570.812	0.0003
571.097	0.0012
571.382	-0.0006
571.666	0.0013
571.951	0.0001
572.236	-0.0002
572.521	0.0001
572.805	0.0004
573.09	0.0003
573.374	-0.0006
573.659	-0.0001
573.943	-0
574.227	-0.0003
574.511	-0.0009
574.795	-0.0002
575.079	0.0001
575.363	-0.0007
575.647	0
575.931	0.0003
576.215	-0.001
576.499	-0.0008
576.782	-0.0006
577.066	-0.001
577.349	-0.0003
577.633	-0.0005
577.916	-0.0008
578.2	-0.0003
578.483	-0.0009
578.766	-0.0001
579.049	-0.0003
579.332	0.0004
579.615	-0.0002
579.898	-0.0002
580.181	0.0007
580.464	0.0007
580.746	0.0004
581.029	-0
581.312	-0.0006
581.594	-0.0002
581.877	-0.0003
582.159	-0.0007
582.441	-0.0007
582.724	-0.0001
583.006	-0.0001
583.288	0.0006
583.57	0.0008
583.852	0.0005
584.134	0.0004
584.416	0.0002
584.697	0.0002
584.979	-0.0009
585.261	-0.0011
585.542	-0.0011
585.824	-0.0003
586.105	-0.0009
586.387	-0.0016
586.668	-0.0005
586.949	-0.0003
587.231	-0.0002
587.512	-0.0003
587.793	0.0001
588.074	-0.0008
588.355	0
588.636	-0.0006
588.916	-0.0013
589.197	-0.0001
589.478	-0.0004
589.758	-0.0002
590.039	0.0003
590.319	0
590.6	0.0001
590.88	0.0006
591.16	0.0008
591.441	0.001
591.721	-0.0004
592.001	-0.0003
592.281	0.0004
592.561	0.0002
592.841	-0.0005
593.12	-0.002
593.4	-0.0011
593.68	-0.0014
593.959	-0.0014
594.239	-0.0012
594.518	-0.0017
594.798	-0.0008
595.077	-0.0008
595.356	-0.001
595.636	-0.0012
595.915	-0.0003
596.194	0.0003
596.473	-0.0004
596.752	0.0003
597.031	-0.0003
597.31	-0.0002
597.588	-0.001
597.867	-0.0002
598.146	-0.0006
598.424	-0.0006
598.703	-0.0004
598.981	-0.0016
599.259	-0.0012
599.538	-0.0009
599.816	-0.0001
600.094	-0.0008
600.372	-0.0017
600.65	-0.0013
600.928	-0.0006
601.206	-0.0007
601.484	-0.0005
601.762	0
602.04	-0.0008
602.317	-0.0005
602.595	-0.0005
602.872	0.0005
603.15	0.0008
603.427	-0.0007
603.704	-0.0013
603.982	-0.0005
604.259	-0.0009
604.536	-0.0003
604.813	-0.0013
605.09	-0.0012
605.367	-0.001
605.644	-0.0028
605.921	-0.0015
606.197	-0.0016
606.474	-0.0004
606.751	-0.0004
607.027	-0.0012
607.304	-0.001
607.58	-0.0008
607.856	-0.0014
608.133	-0.0004
608.409	-0.0004
608.685	-0.0005
608.961	-0.0007
609.237	-0.0001
609.513	-0.0006
609.789	-0.0011
610.065	-0.0013
610.341	-0.0007
610.616	-0.001
610.892	0.0002
611.167	0.0016
611.443	0.0005
611.718	0.0008
611.994	0.0007
612.269	-0.0004
612.544	-0.0004
612.819	-0.0012
613.095	-0.0013
613.37	0.0003
613.645	-0.0003
613.919	-0.0005
614.194	0.0005
614.469	0.0004
614.744	0.0001
615.019	-0.0007
615.293	-0.0008
615.568	-0.0008
615.842	-0.0002
616.116	-0.0001
616.391	0.0009
616.665	0.0013
616.939	0.0005
617.213	0.0013
617.488	0.0008
617.762	-0.0013
618.035	-0.0005
618.309	-0.0009
618.583	0.0005
618.857	0.0003
619.131	0.0013
619.404	0.0004
619.678	0.0005
619.951	-0.0005
620.225	-0.0003
620.498	-0.0003
620.771	-0
621.045	-0.0006
621.318	-0.0016
621.591	-0.0018
621.864	-0.002
622.137	-0.0025
622.41	-0.0022
622.683	-0.0018
622.956	-0.0009
623.228	-0.0006
623.501	-0.0001
623.774	-0.0011
624.046	0.0001
624.319	-0.0008
624.591	-0.0009
624.863	-0.0009
625.136	0.0006
625.408	0.0009
625.68	0.0001
625.952	0.0007
626.224	0.0009
626.496	-0.0004
626.768	0
627.04	-0.0008
627.311	-0.0001
627.583	-0.0004
627.855	0.0008
628.126	0.0021
628.398	0.0022
628.669	0.0022
628.941	0.0021
629.212	0.0016
629.483	0.0013
629.755	0.0001
630.026	0.0002
630.297	0.0008
630.568	-0
630.839	0.0004
631.11	0.0001
631.38	0.0006
631.651	0.001
631.922	0.001
632.192	0.0003
632.463	-0.0001
632.733	-0.0002
633.004	0.0002
633.274	-0.0006
633.545	0.0006
633.815	0
634.085	-0.0005
634.355	-0.0015
634.625	-0.0011
634.895	-0.001
635.165	-0.0008
635.435	-0.0019
635.705	-0.0006
635.974	-0.0019
636.244	-0.0008
636.514	-0.0001
636.783	0.0001
637.053	-0.0012
637.322	-0.001
637.591	-0.0003
637.861	-0.0021
638.13	-0.0014
638.399	-0.002
638.668	-0.0027
638.937	-0.0026
639.206	-0.0033
639.475	-0.0024
639.744	-0.0022
640.013	-0.0017
640.281	-0.0012
640.55	-0.0025
640.819	-0.0022
641.087	-0.0022
641.356	-0.0021
641.624	-0.0014
641.892	-0.0009
642.161	-0.0012
642.429	-0.0008
642.697	-0.0008
642.965	-0.0001
643.233	-0.0015
643.501	-0.0012
643.769	-0.0006
644.037	-0.0003
644.305	-0.0013
644.572	-0.0021
644.84	-0.0017
645.108	-0.0032
645.375	-0.0035
645.643	-0.0028
645.91	-0.0026
646.177	-0.0018
646.445	-0.0012
646.712	0.0004
646.979	0.0011
647.246	0.0021
647.513	0.0018
647.78	0.0006
648.047	-0.0009
648.314	-0.003
648.58	-0.0027
648.847	-0.0019
649.114	-0.0006
649.38	-0.0006
649.647	-0.0014
649.913	-0.0019
650.18	-0.0015
650.446	-0.001
650.712	-0.0027
650.978	-0.0019
651.245	-0.002
651.511	-0.0019
651.777	-0.0018
652.043	-0.0015
652.309	-0.0017
652.574	-0.0005
652.84	0.0002
653.106	0
653.371	0.0005
653.637	0.0001
653.903	0.0007
654.168	0.0013
654.433	0.0021
654.699	0.0019
654.964	0.002
655.229	0.0009
655.494	-0.0005
655.759	-0.0024
656.024	0.0001
656.289	-0
656.554	-0.0005
656.819	-0.0017
657.084	-0.0005
657.349	-0.0008
657.613	-0.0004
657.878	-0.0004
658.142	-0.0011
658.407	-0.0013
658.671	-0.0006
658.936	-0.0003
659.2	-0
659.464	0.0004
659.728	-0.0007
659.992	-0.0012
660.256	-0.0013
660.52	-0.0021
660.784	-0.002
661.048	-0.0008
661.312	-0.0009
661.575	0.0004
661.839	0.0001
662.103	-0.0004
662.366	-0.0002
662.63	-0.0009
662.893	-0.0009
663.156	-0.0017
663.42	-0.0019
663.683	-0.0028
663.946	-0.0037
664.209	-0.0024
664.472	-0.0028
664.735	-0.002
664.998	-0.0022
665.261	-0.0023
665.524	-0.002
665.786	-0.0017
666.049	-0.0017
666.312	-0.001
666.574	-0.0021
666.837	-0.0008
667.099	-0.0011
667.361	-0.0014
667.624	-0.0017
667.886	-0.0031
668.148	-0.0023
668.41	-0.0012
668.672	-0.0024
668.934	-0.0008
669.196	-0.0009
669.458	-0.0001
669.72	0.0005
669.982	0.0003
670.243	0.0007
670.505	-0.0007
670.766	0.0007
671.028	-0.0003
671.289	-0.0022
671.551	-0.0012
671.812	-0.003
672.073	-0.0018
672.334	-0.0025
672.596	-0.0024
672.857	-0.0026
673.118	-0.0023
673.379	-0.0029
673.639	-0.0031
673.9	-0.0027
674.161	-0.003
674.422	-0.0037
674.682	-0.0036
674.943	-0.0028
675.203	-0.0031
675.464	-0.0039
675.724	-0.0044
675.985	-0.005
676.245	-0.004
676.505	-0.0039
676.765	-0.0045
677.025	-0.0036
677.285	-0.0035
677.545	-0.0026
677.805	-0.0018
678.065	-0.0017
678.325	-0.0009
678.585	-0.002
678.844	-0.0034
679.104	-0.0034
679.363	-0.0049
679.623	-0.0037
679.882	-0.0029
680.142	-0.0022
680.401	-0.003
680.66	-0.002
680.919	-0.0009
681.178	-0.0017
681.437	-0.0016
681.696	-0.0019
681.955	-0.0012
682.214	-0.0015
682.473	-0.0021
682.732	-0.0022
682.99	-0.002
683.249	-0.0016
683.508	-0.002
683.766	-0.0021
684.024	-0.0019
684.283	-0.0012
684.541	-0.0015
684.799	-0.0013
685.058	-0.0013
685.316	-0.0026
685.574	-0.0021
685.832	-0.0024
686.09	-0.0035
686.348	-0.0043
686.606	-0.0043
686.863	-0.0032
687.121	-0.0028
687.379	-0.0018
687.636	-0.0028
687.894	-0.002
688.151	-0.0016
688.409	-0.0007
688.666	-0.0024
688.923	-0.0031
689.181	-0.0035
689.438	-0.0034
689.695	-0.0038
689.952	-0.0044
690.209	-0.0031
690.466	-0.0044
690.723	-0.0029
690.979	-0.0026
691.236	-0.0035
691.493	-0.0015
691.75	-0.0018
692.006	-0.0023
692.263	-0.0027
692.519	-0.0033
692.775	-0.0027
693.032	-0.0035
693.288	-0.0026
693.544	-0.0019
693.8	-0.0014
694.056	-0.002
694.313	-0.0012
694.568	-0.0013
694.824	-0.0022
695.08	-0.002
695.336	-0.0042
695.592	-0.0033
695.847	-0.0019
696.103	-0.0017
696.359	-0.0028
696.614	-0.0028
696.869	-0.003
697.125	-0.0037
697.38	-0.0033
697.635	-0.0027
697.891	-0.0028
698.146	-0.0015
698.401	-0.0012
698.656	-0.0019
698.911	-0.0015
699.166	-0.0018
699.42	-0.001
699.675	-0.0016
699.93	-0.0016
700.185	-0.0021
700.439	-0.0023
700.694	-0.0016
700.948	-0.0021
701.203	-0.0021
701.457	-0.0025
701.711	-0.0036
701.965	-0.0043
702.22	-0.0041
702.474	-0.004
702.728	-0.0035
702.982	-0.0027
703.236	-0.0023
703.49	-0.001
703.743	-0.0017
703.997	-0.0013
704.251	-0.0019
704.504	-0.002
704.758	-0.003
705.012	-0.0019
705.265	-0.0015
705.518	-0
705.772	-0.0011
706.025	-0.0014
706.278	-0.0016
706.531	-0.002
706.785	-0.0014
707.038	-0.0025
707.291	-0.0025
707.543	-0.0025
707.796	-0.0031
708.049	-0.0034
708.302	-0.004
708.555	-0.0043
708.807	-0.0042
709.06	-0.005
709.312	-0.0038
709.565	-0.0038
709.817	-0.0052
710.069	-0.0049
710.322	-0.0051
710.574	-0.005
710.826	-0.0047
711.078	-0.0045
711.33	-0.0042
711.582	-0.0055
711.834	-0.0052
712.086	-0.0059
712.338	-0.0063
712.59	-0.0054
712.841	-0.0059
713.093	-0.0059
713.344	-0.0062
713.596	-0.0057
713.847	-0.0046
714.099	-0.0047
714.35	-0.0047
714.601	-0.004
714.853	-0.0031
715.104	-0.0037
715.355	-0.0034
715.606	-0.0039
715.857	-0.0031
716.108	-0.0041
716.359	-0.0042
716.609	-0.0049
716.86	-0.0044
717.111	-0.0041
717.361	-0.0035
717.612	-0.0027
717.863	-0.0023
718.113	-0.0012
718.363	-0.0019
718.614	-0.0007
718.864	-0.0006
719.114	-0.0013
719.364	-0.0008
719.614	-0.0009
719.865	-0.0005
720.114	-0.0003
720.364	-0.0005
720.614	0.0004
720.864	0.0003
721.114	-0.0005
721.364	-0.0006
721.613	-0.0008
721.863	-0.0013
722.112	-0.0018
722.362	-0.0024
722.611	-0.0029
722.86	-0.0022
723.11	-0.0023
723.359	-0.0018
723.608	-0.0024
723.857	-0.0019
724.106	-0.0011
724.355	-0.001
724.604	-0.0012
724.853	-0.0019
725.102	-0.0032
725.351	-0.0028
725.599	-0.0038
725.848	-0.0039
726.097	-0.0025
726.345	-0.0037
726.594	-0.0041
726.842	-0.0041
727.09	-0.0052
727.339	-0.0062
727.587	-0.0054
727.835	-0.0061
728.083	-0.0046
728.331	-0.0052
728.579	-0.0041
728.827	-0.0037
729.075	-0.0028
729.323	-0.0037
729.571	-0.003
729.818	-0.0032
730.066	-0.0033
730.314	-0.0024
730.561	-0.0011
730.809	-0.0008
731.056	-0.0013
731.303	-0.0002
731.551	-0.0009
731.798	-0.0007
732.045	-0.0016
732.292	0.0004
732.539	-0.0002
732.786	0.0002
733.033	-0.0002
733.28	-0.0001
733.527	-0.0004
733.774	-0.0011
734.021	-0.0027
734.267	-0.0031
734.514	-0.003
734.76	-0.0037
735.007	-0.0032
735.253	-0.0043
735.5	-0.0029
735.746	-0.0031
735.992	-0.0022
736.238	-0.0025
736.485	-0.0021
736.731	-0.0025
736.977	-0.0022
737.223	-0.0022
737.469	-0.0017
737.715	-0.0021
737.96	-0.0025
738.206	-0.0031
738.452	-0.0023
738.697	-0.0021
738.943	-0.0017
739.189	-0.0021
739.434	-0.0016
739.679	-0.0022
739.925	-0.0026
740.17	-0.0044
740.415	-0.0049
740.66	-0.0054
740.906	-0.0061
741.151	-0.0048
741.396	-0.0056
741.641	-0.0052
741.886	-0.0046
742.13	-0.0029
742.375	-0.0023
742.62	-0.0028
742.865	-0.0027
743.109	-0.0014
743.354	-0.0002
743.598	0.0004
743.843	-0.0001
744.087	0.0001
744.331	0.0006
744.576	0.0006
744.82	0.0019
745.064	0.002
745.308	0.002
745.552	0.0017
745.796	0.0008
746.04	0.0008
746.284	0.0003
746.528	0.0008
746.771	0.0022
747.015	0.0021
747.259	0.0006
747.502	0.0002
747.746	-0.0001
747.989	-0.001
748.233	-0.0008
748.476	0.0001
748.719	0.001
748.963	0.0016
749.206	0.0012
749.449	0.0004
749.692	0.0006
749.935	0.0009
750.178	0.0003
750.421	-0.0005
750.664	-0.0001
750.906	0.001
751.149	0.0008
751.392	0.0005
751.635	-0.0006
751.877	-0.0002
752.12	-0.0003
752.362	-0.001
752.604	-0.0006
752.847	0.0015
753.089	0.0013
753.331	0.0018
753.573	0.0011
753.816	-0.0008
754.058	-0.0017
754.3	-0.0034
754.542	-0.0031
754.783	-0.0041
755.025	-0.0033
755.267	-0.0024
755.509	-0.0032
755.75	-0.0036
755.992	-0.0028
756.234	-0.0036
756.475	-0.0043
756.716	-0.0035
756.958	-0.0025
757.199	-0.0026
757.44	-0.0016
757.682	-0.001
757.923	0.0002
758.164	0.0006
758.405	0.0006
758.646	0.0016
758.887	0.0015
759.128	0.0013
759.369	0.001
759.609	0.0013
759.85	0.0007
760.091	0.0011
760.331	0.0001
760.572	-0.0014
760.812	-0.001
761.053	-0.0012
761.293	-0.0007
761.533	-0.0007
761.774	0.0016
762.014	0.0022
762.254	0.0011
762.494	0.0002
762.734	0.0014
762.974	-0.0006
763.214	-0
763.454	-0.0008
763.694	-0.0015
763.933	-0.0024
764.173	-0.0034
764.413	-0.0042
764.652	-0.0044
764.892	-0.003
765.131	-0.0033
765.371	-0.0036
765.61	-0.0036
765.849	-0.0034
766.089	-0.0036
766.328	-0.0023
766.567	-0.0036
766.806	-0.0032
767.045	-0.0025
767.284	-0.0029
767.523	-0.0036
767.762	-0.003
768.001	-0.0026
768.239	-0.0033
768.478	-0.0025
768.717	-0.0017
768.955	-0.0019
769.194	-0.0023
769.432	-0.0011
769.671	0.0003
769.909	-0.0001
770.148	0.0001
770.386	0.0003
770.624	0.0011
770.862	0.0017
771.1	0.0026
771.338	0.0018
771.576	0.0007
771.814	0.0012
772.052	0.0017
772.29	0.0029
772.528	0.0033
772.765	0.0047
773.003	0.004
773.24	0.0043
773.478	0.0025
773.716	0.0026
773.953	0.002
774.19	0.002
774.428	0.0031
774.665	0.0026
774.902	0.0033
775.139	0.0033
775.376	0.0023
775.613	0.0026
775.85	0.0024
776.087	0.0023
776.324	0.0016
776.561	0.0012
776.798	0.0011
777.034	0.0009
777.271	0.0021
777.508	0.0027
777.744	0.0022
777.981	0.0031
778.217	0.0037
778.454	0.0027
778.69	0.0018
778.926	0.0002
779.162	0.0005
779.399	0.0009
779.635	0.0004
779.871	0.0007
780.107	0.0004
780.343	-0.0007
780.579	0.0001
780.814	-0
781.05	0.0001
781.286	-0.0007
781.522	-0.0006
781.757	-0.0007
781.993	-0.0005
782.228	-0.0015
782.464	-0.0007
782.699	-0.0011
782.934	-0.0017
783.17	-0.0016
783.405	-0.0017
783.64	-0.002
783.875	-0.003
784.11	-0.0032
784.345	-0.0016
784.58	-0.0014
784.815	-0.0009
785.05	-0.0017
785.285	-0.003
785.52	-0.0018
785.754	-0.0022
785.989	-0.0026
786.223	-0.0041
786.458	-0.0038
786.692	-0.0033
786.927	-0.0038
787.161	-0.002
787.396	-0.0031
787.63	-0.004
787.864	-0.0049
788.098	-0.0055
788.332	-0.0057
788.566	-0.0043
788.8	-0.0042
789.034	-0.0032
789.268	-0.0033
789.502	-0.0029
789.736	-0.0028
789.969	-0.003
790.203	-0.003
790.437	-0.0045
790.67	-0.0051
790.904	-0.0062
791.137	-0.0071
791.37	-0.0068
791.604	-0.0082
791.837	-0.0069
792.07	-0.0058
792.303	-0.0062
792.537	-0.0055
792.77	-0.0051
793.003	-0.005
793.236	-0.0037
793.469	-0.0039
793.701	-0.0026
793.934	-0.0017
794.167	-0.0012
794.4	-0.0014
794.632	-0.0005
794.865	-0.0002
795.097	-0.0001
795.33	-0.0018
795.562	-0.0009
795.795	0.0005
796.027	0.001
796.259	0.0009
796.491	0.0004
796.724	0.0003
796.956	0.0004
797.188	0.0002
797.42	-0.0004
797.652	-0.0007
797.883	-0.0004
798.115	0.0006
798.347	-0.0005
798.579	0.0015
798.81	0.0004
799.042	0.0008
799.274	0.0004
799.505	-0.0007
799.737	0.0003
799.968	-0.0008
800.199	-0.0014
800.431	-0.001
800.662	-0.0021
800.893	-0.0027
801.124	-0.0023
801.355	-0.0026
801.586	-0.002
801.817	-0.0034
802.048	-0.0038
802.279	-0.0034
802.51	-0.0024
802.741	-0.0011
802.971	0.0004
803.202	-0.0001
803.433	-0.0007
803.663	-0.0027
803.894	-0.0031
804.124	-0.0045
804.354	-0.0035
804.585	-0.0042
804.815	-0.0036
805.045	-0.0038
805.275	-0.0032
805.506	-0.0835
805.736	0.0692
805.966	0.1589
806.196	0.1002
