Data from 03 0.5 mM K2Cr2O7 0.3 mM BQDS 1 M H2SO4 5 min_Absorbance_0071.txt Node
Date: Mon Dec 13 23:34:46 EST 2021
User: kwabilab-user
Spectrometer: HDX00518
Trigger mode: 0
Integration Time (sec): 5.000000E-2
Scans to average: 50
Nonlinearity correction enabled: false
Boxcar width: 0
Storing dark spectrum: false
XAxis mode: Wavelengths
Number of Pixels in Spectrum: 2068
>>>>>Begin Spectral Data<<<<<
195.27	0.0896
195.642	0.2177
196.014	0.156
196.386	0.1803
196.758	-0.0147
197.129	-0.0102
197.501	0.0026
197.872	0.013
198.244	0.0325
198.615	0.0523
198.986	0.0373
199.357	0.0464
199.728	0.046
200.099	0.0404
200.47	0.0224
200.841	0.0314
201.212	0.046
201.582	0.0571
201.953	0.0454
202.323	0.0696
202.694	0.0306
203.064	0.0384
203.434	0.0454
203.804	0.0266
204.174	0.0537
204.544	0.0475
204.914	0.0467
205.284	0.0629
205.653	0.0309
206.023	0.025
206.393	0.0201
206.762	0.0434
207.131	0.0498
207.501	0.0313
207.87	0.0572
208.239	0.0567
208.608	0.0416
208.977	0.0386
209.346	0.0408
209.715	0.0299
210.083	0.0361
210.452	0.038
210.82	0.0576
211.189	0.0191
211.557	0.0374
211.925	0.034
212.294	0.0476
212.662	0.0446
213.03	0.054
213.398	0.0534
213.766	0.0483
214.133	0.0447
214.501	0.0506
214.869	0.0413
215.236	0.0399
215.604	0.0525
215.971	0.0409
216.338	0.0789
216.705	0.0779
217.072	0.0872
217.439	0.0522
217.806	0.0611
218.173	0.056
218.54	0.0787
218.907	0.0787
219.273	0.0883
219.64	0.0778
220.006	0.104
220.373	0.1019
220.739	0.1248
221.105	0.1559
221.471	0.1684
221.837	0.1741
222.203	0.1912
222.569	0.1769
222.935	0.2267
223.3	0.2345
223.666	0.2833
224.031	0.3019
224.397	0.2915
224.762	0.3244
225.127	0.3439
225.493	0.3668
225.858	0.4013
226.223	0.4149
226.588	0.447
226.952	0.4667
227.317	0.4848
227.682	0.4882
228.046	0.5084
228.411	0.5372
228.775	0.5441
229.14	0.5493
229.504	0.5688
229.868	0.5849
230.232	0.5815
230.596	0.6004
230.96	0.6289
231.324	0.623
231.688	0.6253
232.052	0.6535
232.415	0.6561
232.779	0.6703
233.142	0.673
233.505	0.673
233.869	0.6912
234.232	0.6931
234.595	0.6937
234.958	0.6887
235.321	0.6982
235.684	0.7018
236.047	0.6839
236.409	0.6937
236.772	0.6946
237.134	0.7066
237.497	0.7012
237.859	0.7044
238.222	0.6932
238.584	0.6817
238.946	0.6919
239.308	0.6884
239.67	0.6899
240.032	0.6901
240.393	0.6954
240.755	0.6823
241.117	0.6851
241.478	0.686
241.84	0.6793
242.201	0.6726
242.562	0.671
242.924	0.6642
243.285	0.6586
243.646	0.6687
244.007	0.6676
244.368	0.6666
244.728	0.6701
245.089	0.6642
245.45	0.6647
245.81	0.6675
246.171	0.6718
246.531	0.6575
246.891	0.657
247.252	0.6599
247.612	0.6633
247.972	0.6603
248.332	0.6585
248.692	0.6602
249.051	0.6632
249.411	0.6655
249.771	0.6447
250.13	0.6644
250.49	0.6548
250.849	0.6647
251.208	0.6587
251.568	0.6604
251.927	0.6559
252.286	0.6652
252.645	0.6605
253.004	0.659
253.363	0.6549
253.721	0.6562
254.08	0.6614
254.439	0.6507
254.797	0.6487
255.155	0.649
255.514	0.6546
255.872	0.6539
256.23	0.6516
256.588	0.6523
256.946	0.6465
257.304	0.65
257.662	0.6492
258.02	0.6503
258.377	0.6438
258.735	0.6436
259.093	0.6425
259.45	0.6449
259.807	0.6416
260.165	0.6454
260.522	0.6399
260.879	0.6345
261.236	0.6354
261.593	0.6391
261.95	0.6351
262.306	0.6305
262.663	0.6232
263.02	0.6237
263.376	0.6211
263.733	0.6203
264.089	0.6199
264.445	0.614
264.802	0.6135
265.158	0.6151
265.514	0.6112
265.87	0.6087
266.226	0.6094
266.581	0.6104
266.937	0.5993
267.293	0.5991
267.648	0.5932
268.004	0.592
268.359	0.5906
268.714	0.5862
269.07	0.5798
269.425	0.5792
269.78	0.5751
270.135	0.5736
270.49	0.5749
270.844	0.5734
271.199	0.5651
271.554	0.5635
271.908	0.5559
272.263	0.5609
272.617	0.551
272.972	0.5513
273.326	0.5453
273.68	0.546
274.034	0.5383
274.388	0.5401
274.742	0.5313
275.096	0.5312
275.45	0.5294
275.803	0.5231
276.157	0.5183
276.51	0.5132
276.864	0.5084
277.217	0.5066
277.571	0.5063
277.924	0.4992
278.277	0.4956
278.63	0.4874
278.983	0.4849
279.336	0.4818
279.688	0.4767
280.041	0.4716
280.394	0.4679
280.746	0.4655
281.099	0.4567
281.451	0.4533
281.803	0.4478
282.156	0.4406
282.508	0.4401
282.86	0.4348
283.212	0.4303
283.564	0.4251
283.916	0.4245
284.267	0.4142
284.619	0.4129
284.971	0.4082
285.322	0.4031
285.673	0.3982
286.025	0.3955
286.376	0.3896
286.727	0.384
287.078	0.3801
287.429	0.3765
287.78	0.3711
288.131	0.3672
288.482	0.3648
288.833	0.3573
289.183	0.3523
289.534	0.3505
289.884	0.3436
290.235	0.3396
290.585	0.3352
290.935	0.3324
291.285	0.3275
291.635	0.3261
291.985	0.3186
292.335	0.314
292.685	0.3122
293.035	0.3084
293.384	0.3015
293.734	0.2978
294.083	0.2949
294.433	0.2899
294.782	0.2859
295.131	0.2813
295.48	0.2766
295.829	0.2735
296.179	0.2693
296.527	0.2661
296.876	0.2625
297.225	0.2584
297.574	0.2536
297.922	0.2513
298.271	0.2464
298.619	0.2434
298.968	0.2399
299.316	0.2356
299.664	0.2325
300.012	0.2298
300.36	0.2266
300.708	0.2239
301.056	0.2195
301.404	0.2175
301.752	0.2148
302.099	0.2108
302.447	0.2091
302.794	0.206
303.142	0.2029
303.489	0.2
303.836	0.1983
304.183	0.1955
304.531	0.1941
304.878	0.1925
305.224	0.1902
305.571	0.1872
305.918	0.185
306.265	0.1839
306.611	0.1813
306.958	0.1806
307.304	0.1785
307.651	0.1773
307.997	0.1761
308.343	0.1763
308.689	0.1732
309.035	0.1725
309.381	0.1716
309.727	0.1704
310.073	0.1697
310.419	0.1693
310.764	0.1673
311.11	0.1673
311.455	0.1677
311.801	0.1668
312.146	0.1659
312.491	0.1658
312.837	0.1645
313.182	0.1646
313.527	0.1652
313.872	0.1642
314.216	0.1648
314.561	0.1646
314.906	0.1646
315.251	0.1652
315.595	0.1652
315.94	0.1657
316.284	0.1665
316.628	0.1663
316.972	0.1667
317.317	0.1678
317.661	0.1684
318.005	0.1689
318.348	0.1701
318.692	0.1704
319.036	0.1706
319.38	0.1714
319.723	0.1733
320.067	0.1749
320.41	0.1753
320.754	0.1764
321.097	0.1767
321.44	0.1784
321.783	0.1805
322.126	0.1818
322.469	0.1822
322.812	0.1838
323.155	0.1846
323.498	0.1863
323.84	0.1885
324.183	0.1901
324.525	0.1914
324.868	0.1926
325.21	0.1939
325.552	0.1965
325.894	0.1971
326.236	0.1986
326.578	0.1996
326.92	0.2022
327.262	0.2037
327.604	0.2057
327.946	0.2075
328.287	0.2091
328.629	0.2112
328.97	0.2128
329.312	0.2149
329.653	0.216
329.994	0.2177
330.335	0.2192
330.676	0.222
331.017	0.2237
331.358	0.2262
331.699	0.2273
332.04	0.2292
332.38	0.2311
332.721	0.2321
333.061	0.2345
333.402	0.2356
333.742	0.2378
334.083	0.2403
334.423	0.2405
334.763	0.2429
335.103	0.2447
335.443	0.2461
335.783	0.2477
336.123	0.2494
336.462	0.2508
336.802	0.2528
337.141	0.254
337.481	0.2549
337.82	0.2566
338.16	0.2572
338.499	0.2601
338.838	0.2604
339.177	0.2628
339.516	0.2644
339.855	0.2653
340.194	0.2669
340.533	0.2681
340.872	0.2695
341.21	0.2699
341.549	0.2718
341.887	0.2723
342.226	0.2731
342.564	0.2739
342.902	0.275
343.24	0.2746
343.578	0.2757
343.916	0.2768
344.254	0.2771
344.592	0.2778
344.93	0.2781
345.268	0.2777
345.605	0.2778
345.943	0.2783
346.28	0.28
346.618	0.2789
346.955	0.2798
347.292	0.2806
347.629	0.2807
347.966	0.2807
348.303	0.2805
348.64	0.2806
348.977	0.2812
349.314	0.282
349.65	0.2812
349.987	0.281
350.324	0.2816
350.66	0.2798
350.996	0.2807
351.333	0.2805
351.669	0.2796
352.005	0.2786
352.341	0.2781
352.677	0.2772
353.013	0.2759
353.349	0.2757
353.685	0.2739
354.02	0.2722
354.356	0.2701
354.691	0.2695
355.027	0.2694
355.362	0.2686
355.697	0.2678
356.033	0.2661
356.368	0.2651
356.703	0.2643
357.038	0.2633
357.373	0.2621
357.707	0.2608
358.042	0.2599
358.377	0.2593
358.711	0.258
359.046	0.2568
359.38	0.2553
359.715	0.254
360.049	0.2532
360.383	0.252
360.717	0.2506
361.051	0.249
361.385	0.2475
361.719	0.2442
362.053	0.2437
362.387	0.2417
362.72	0.2395
363.054	0.2374
363.387	0.2367
363.721	0.2342
364.054	0.231
364.387	0.2295
364.721	0.2276
365.054	0.2251
365.387	0.2241
365.72	0.2216
366.053	0.2206
366.385	0.2175
366.718	0.216
367.051	0.2151
367.383	0.2137
367.716	0.2125
368.048	0.2107
368.381	0.2088
368.713	0.2075
369.045	0.2068
369.377	0.2049
369.709	0.203
370.041	0.2012
370.373	0.2
370.705	0.1981
371.037	0.1964
371.368	0.1942
371.7	0.1936
372.031	0.1906
372.363	0.1887
372.694	0.1864
373.025	0.1836
373.356	0.1819
373.688	0.1799
374.019	0.1774
374.35	0.1753
374.68	0.173
375.011	0.1703
375.342	0.1686
375.673	0.1666
376.003	0.1642
376.334	0.1625
376.664	0.1604
376.995	0.1583
377.325	0.1563
377.655	0.1554
377.985	0.1536
378.315	0.1515
378.645	0.1501
378.975	0.1483
379.305	0.1464
379.635	0.1466
379.964	0.1447
380.294	0.1424
380.623	0.1426
380.953	0.1402
381.282	0.1381
381.611	0.1369
381.941	0.1352
382.27	0.1334
382.599	0.1317
382.928	0.1301
383.257	0.1286
383.585	0.1269
383.914	0.1254
384.243	0.123
384.571	0.1215
384.9	0.119
385.228	0.1174
385.557	0.1164
385.885	0.114
386.213	0.1116
386.541	0.1103
386.869	0.109
387.197	0.1066
387.525	0.1053
387.853	0.1037
388.181	0.102
388.508	0.0997
388.836	0.0983
389.164	0.0969
389.491	0.0956
389.818	0.0938
390.146	0.0928
390.473	0.0916
390.8	0.0903
391.127	0.0883
391.454	0.0874
391.781	0.0865
392.108	0.0854
392.435	0.0841
392.761	0.0823
393.088	0.0823
393.415	0.0808
393.741	0.0804
394.067	0.0789
394.394	0.0786
394.72	0.0763
395.046	0.0758
395.372	0.0755
395.698	0.0748
396.024	0.0734
396.35	0.0718
396.676	0.0703
397.001	0.07
397.327	0.0691
397.653	0.0679
397.978	0.0664
398.303	0.0653
398.629	0.0643
398.954	0.0634
399.279	0.0629
399.604	0.0619
399.929	0.0614
400.254	0.0608
400.579	0.0601
400.904	0.0592
401.229	0.0583
401.553	0.0576
401.878	0.0564
402.202	0.0553
402.527	0.0557
402.851	0.0556
403.175	0.0539
403.5	0.0538
403.824	0.0531
404.148	0.053
404.472	0.0517
404.796	0.0516
405.119	0.0521
405.443	0.0512
405.767	0.0503
406.09	0.0505
406.414	0.0498
406.737	0.0499
407.061	0.0495
407.384	0.049
407.707	0.0488
408.03	0.0482
408.353	0.0489
408.676	0.0479
408.999	0.0479
409.322	0.048
409.645	0.0478
409.968	0.0479
410.29	0.0469
410.613	0.0471
410.935	0.0469
411.258	0.0464
411.58	0.046
411.902	0.0468
412.224	0.046
412.546	0.0462
412.868	0.0462
413.19	0.046
413.512	0.0463
413.834	0.0447
414.156	0.0459
414.477	0.0462
414.799	0.0453
415.121	0.0459
415.442	0.0459
415.763	0.0451
416.085	0.0455
416.406	0.0455
416.727	0.0459
417.048	0.045
417.369	0.0454
417.69	0.0445
418.011	0.045
418.331	0.0452
418.652	0.0459
418.973	0.045
419.293	0.0451
419.614	0.0452
419.934	0.0453
420.254	0.0454
420.574	0.0454
420.895	0.0457
421.215	0.0448
421.535	0.0451
421.855	0.0451
422.174	0.0451
422.494	0.0443
422.814	0.0451
423.134	0.045
423.453	0.0447
423.773	0.0448
424.092	0.0453
424.411	0.0448
424.731	0.0454
425.05	0.0448
425.369	0.0448
425.688	0.0456
426.007	0.0447
426.326	0.0451
426.644	0.0452
426.963	0.0456
427.282	0.0454
427.6	0.045
427.919	0.045
428.237	0.0456
428.556	0.0452
428.874	0.0455
429.192	0.0464
429.51	0.0457
429.828	0.0456
430.146	0.0457
430.464	0.045
430.782	0.0459
431.1	0.0459
431.418	0.0455
431.735	0.0453
432.053	0.0456
432.37	0.0453
432.688	0.0453
433.005	0.0449
433.322	0.046
433.639	0.0459
433.957	0.0464
434.274	0.0452
434.591	0.0455
434.907	0.0454
435.224	0.0456
435.541	0.0449
435.858	0.0457
436.174	0.0458
436.491	0.045
436.807	0.0441
437.124	0.045
437.44	0.0449
437.756	0.0449
438.072	0.0462
438.388	0.0456
438.704	0.0448
439.02	0.045
439.336	0.0444
439.652	0.0446
439.968	0.0445
440.283	0.0434
440.599	0.0442
440.914	0.0455
441.23	0.0452
441.545	0.0444
441.86	0.0445
442.175	0.0447
442.491	0.0446
442.806	0.0445
443.121	0.0438
443.435	0.0441
443.75	0.0438
444.065	0.0441
444.38	0.0436
444.694	0.0441
445.009	0.0441
445.323	0.0435
445.638	0.0428
445.952	0.0438
446.266	0.0436
446.58	0.0435
446.894	0.0431
447.208	0.0431
447.522	0.0433
447.836	0.0433
448.15	0.0425
448.464	0.0432
448.777	0.0428
449.091	0.0427
449.404	0.0423
449.718	0.042
450.031	0.0419
450.345	0.042
450.658	0.0426
450.971	0.0419
451.284	0.0418
451.597	0.0416
451.91	0.0412
452.223	0.0406
452.535	0.0414
452.848	0.0411
453.161	0.0405
453.473	0.0412
453.786	0.0399
454.098	0.0407
454.411	0.0411
454.723	0.0399
455.035	0.0399
455.347	0.0388
455.659	0.04
455.971	0.0402
456.283	0.0391
456.595	0.0394
456.907	0.0396
457.218	0.0387
457.53	0.038
457.841	0.0388
458.153	0.0383
458.464	0.0383
458.776	0.0382
459.087	0.0382
459.398	0.0384
459.709	0.0381
460.02	0.0378
460.331	0.0373
460.642	0.0372
460.953	0.0368
461.263	0.0364
461.574	0.0363
461.885	0.0367
462.195	0.0355
462.506	0.0358
462.816	0.0353
463.126	0.0359
463.437	0.0355
463.747	0.0344
464.057	0.0345
464.367	0.0345
464.677	0.0338
464.987	0.034
465.296	0.0339
465.606	0.0326
465.916	0.0337
466.225	0.0336
466.535	0.0334
466.844	0.0337
467.154	0.0329
467.463	0.0322
467.772	0.0319
468.081	0.0319
468.39	0.0316
468.699	0.0316
469.008	0.031
469.317	0.0308
469.626	0.0294
469.935	0.0301
470.243	0.0298
470.552	0.0302
470.86	0.0297
471.169	0.0296
471.477	0.0296
471.785	0.0293
472.093	0.0298
472.402	0.028
472.71	0.0293
473.018	0.0278
473.326	0.0279
473.633	0.0287
473.941	0.0281
474.249	0.0271
474.556	0.0282
474.864	0.0275
475.171	0.0277
475.479	0.0265
475.786	0.0265
476.094	0.0268
476.401	0.0258
476.708	0.0254
477.015	0.0258
477.322	0.0252
477.629	0.0248
477.936	0.0248
478.242	0.024
478.549	0.0243
478.856	0.025
479.162	0.024
479.469	0.0236
479.775	0.0243
480.081	0.0237
480.388	0.0227
480.694	0.0231
481	0.023
481.306	0.0223
481.612	0.022
481.918	0.022
482.224	0.0223
482.53	0.022
482.835	0.0216
483.141	0.0214
483.446	0.021
483.752	0.0201
484.057	0.02
484.363	0.0201
484.668	0.0198
484.973	0.0191
485.278	0.0195
485.583	0.0193
485.888	0.0186
486.193	0.0175
486.498	0.019
486.803	0.0181
487.107	0.0186
487.412	0.0179
487.717	0.0174
488.021	0.0169
488.325	0.0186
488.63	0.0179
488.934	0.0175
489.238	0.0171
489.542	0.016
489.846	0.0161
490.15	0.016
490.454	0.0161
490.758	0.0154
491.062	0.0153
491.366	0.0154
491.669	0.0156
491.973	0.0159
492.276	0.0146
492.58	0.0141
492.883	0.014
493.186	0.0136
493.489	0.0137
493.792	0.0128
494.096	0.0136
494.399	0.0132
494.701	0.0141
495.004	0.0126
495.307	0.0131
495.61	0.0122
495.912	0.0133
496.215	0.0114
496.517	0.0116
496.82	0.0117
497.122	0.0114
497.424	0.0125
497.727	0.0114
498.029	0.0105
498.331	0.0113
498.633	0.0106
498.935	0.0099
499.237	0.0103
499.538	0.0098
499.84	0.0096
500.142	0.0097
500.443	0.0097
500.745	0.0094
501.046	0.0088
501.348	0.0088
501.649	0.0087
501.95	0.0084
502.251	0.0084
502.552	0.0083
502.853	0.0076
503.154	0.008
503.455	0.0083
503.756	0.0081
504.057	0.0092
504.357	0.007
504.658	0.0081
504.958	0.0078
505.259	0.0083
505.559	0.0068
505.859	0.0065
506.16	0.0075
506.46	0.0071
506.76	0.0067
507.06	0.0066
507.36	0.0066
507.66	0.0066
507.96	0.0071
508.259	0.0061
508.559	0.007
508.859	0.0056
509.158	0.0058
509.457	0.0059
509.757	0.0054
510.056	0.0058
510.355	0.0052
510.655	0.006
510.954	0.0053
511.253	0.0056
511.552	0.0054
511.851	0.0049
512.149	0.004
512.448	0.0041
512.747	0.0043
513.045	0.0042
513.344	0.0041
513.642	0.0037
513.941	0.0037
514.239	0.0034
514.537	0.003
514.836	0.0045
515.134	0.0027
515.432	0.0039
515.73	0.0039
516.028	0.0029
516.326	0.0033
516.623	0.0035
516.921	0.0015
517.219	0.0027
517.516	0.003
517.814	0.0026
518.111	0.0028
518.409	0.0019
518.706	0.0025
519.003	0.0025
519.3	0.0028
519.597	0.0012
519.894	0.0027
520.191	0.0018
520.488	0.0029
520.785	0.0008
521.082	0.0021
521.378	0.0008
521.675	0.0014
521.971	0.0013
522.268	0.0021
522.564	0.0013
522.861	0.002
523.157	0.0015
523.453	0.003
523.749	0.0018
524.045	0.002
524.341	0.0017
524.637	0.0011
524.933	0.0012
525.229	0.0012
525.524	0.0003
525.82	0.0002
526.115	0.0002
526.411	0.0006
526.706	-0.0006
527.002	0.002
527.297	0.0001
527.592	0.0015
527.887	0.0023
528.182	0.0006
528.477	0.0015
528.772	0.0019
529.067	0.0004
529.362	0.0015
529.657	0.0012
529.951	0.0007
530.246	0.0001
530.54	0.0018
530.835	-0.0004
531.129	0.0002
531.423	0.0002
531.718	0.0001
532.012	0.0004
532.306	0.0004
532.6	-0.0005
532.894	0.0004
533.188	0.0008
533.482	0
533.775	0.0005
534.069	0.0006
534.363	-0.0019
534.656	-0.0015
534.95	-0.0005
535.243	-0.0007
535.536	0.0013
535.83	-0.0015
536.123	-0.0004
536.416	0.0005
536.709	-0.001
537.002	-0.0008
537.295	0.0002
537.588	-0.0003
537.881	-0.0012
538.173	-0.0005
538.466	-0.0006
538.759	-0.0006
539.051	0.0001
539.344	-0.0011
539.636	-0.001
539.928	-0.0005
540.22	0
540.513	-0.0001
540.805	-0
541.097	-0.0013
541.389	-0.0006
541.681	-0.0007
541.972	0.0002
542.264	-0.0002
542.556	-0.0009
542.847	0.0005
543.139	0.0001
543.431	-0.0013
543.722	-0.0004
544.013	-0.0004
544.305	-0.0004
544.596	-0.0012
544.887	0.0004
545.178	0.0001
545.469	-0.0011
545.76	-0.0014
546.051	-0.0002
546.342	-0.0015
546.632	-0.0009
546.923	-0.0008
547.214	-0.0007
547.504	-0.0011
547.795	-0.0014
548.085	-0.0017
548.375	-0.0008
548.666	-0.0007
548.956	-0.0011
549.246	-0.0009
549.536	-0.0001
549.826	-0.0011
550.116	-0.0008
550.406	-0.0013
550.695	-0.003
550.985	0.0001
551.275	-0.0016
551.564	-0.0016
551.854	-0.0009
552.143	-0.0014
552.433	-0.0024
552.722	-0.0017
553.011	-0.0006
553.3	-0.0008
553.589	0.0003
553.879	-0.0015
554.167	-0.0013
554.456	0.0012
554.745	-0.0003
555.034	-0.0009
555.323	0.0008
555.611	-0.0004
555.9	-0.0011
556.188	-0.0013
556.477	-0.0009
556.765	-0.0023
557.053	-0.001
557.342	-0.0008
557.63	-0.0011
557.918	-0.0003
558.206	0.0005
558.494	-0.0004
558.782	-0.001
559.069	0.0015
559.357	0.0008
559.645	-0.0001
559.932	-0.0001
560.22	-0.0004
560.507	-0.0014
560.795	-0.001
561.082	-0.0017
561.37	0.0008
561.657	-0.0007
561.944	-0.0005
562.231	-0.0004
562.518	0.0008
562.805	0.0001
563.092	-0.0002
563.379	0.0005
563.665	0.0006
563.952	0.0003
564.239	0.0008
564.525	-0.0005
564.811	0.0015
565.098	0.0002
565.384	-0.0003
565.67	0.0005
565.957	0.0014
566.243	0.0008
566.529	0
566.815	0.0015
567.101	0.0015
567.387	0.0002
567.672	0.0002
567.958	0.0007
568.244	-0.0002
568.529	0.0003
568.815	-0.0005
569.1	-0.0006
569.386	-0.0013
569.671	0.0004
569.956	-0.0003
570.242	0.0001
570.527	-0.0007
570.812	-0
571.097	-0.0004
571.382	0.0001
571.666	0.0008
571.951	0.0005
572.236	0.0005
572.521	0.0005
572.805	-0.0003
573.09	0.0001
573.374	-0.001
573.659	-0.0005
573.943	-0.0008
574.227	-0.0002
574.511	-0.0004
574.795	0.0006
575.079	-0.0002
575.363	-0.0005
575.647	-0.0007
575.931	0.0005
576.215	-0.0004
576.499	-0.0011
576.782	-0.0016
577.066	-0.0004
577.349	-0.0003
577.633	-0.0008
577.916	-0.0006
578.2	-0.0001
578.483	-0.0002
578.766	-0.0001
579.049	-0.0004
579.332	0.0009
579.615	-0.0001
579.898	-0.0007
580.181	0.0003
580.464	0.0007
580.746	0.0002
581.029	-0.0005
581.312	-0.0011
581.594	-0.0009
581.877	-0.0008
582.159	-0.0008
582.441	-0.0012
582.724	-0.0003
583.006	0.0005
583.288	-0.0001
583.57	0.0011
583.852	0.0011
584.134	0.0015
584.416	-0.0001
584.697	0.0002
584.979	-0.0011
585.261	-0.0012
585.542	-0.0012
585.824	-0.0005
586.105	-0.0014
586.387	-0.0004
586.668	-0.0009
586.949	-0.0002
587.231	0.0003
587.512	-0.0002
587.793	0.0001
588.074	-0.0003
588.355	0.0008
588.636	-0.0006
588.916	-0.0003
589.197	0.0002
589.478	0
589.758	-0.0006
590.039	0.0003
590.319	0.0005
590.6	0.0003
590.88	0.0008
591.16	0.0011
591.441	0.0011
591.721	0.0003
592.001	-0.0004
592.281	-0.0009
592.561	-0.0002
592.841	-0.0006
593.12	-0.0019
593.4	-0.0008
593.68	-0.0018
593.959	-0.0015
594.239	-0.0005
594.518	0.0005
594.798	0.0002
595.077	-0.0007
595.356	-0.0002
595.636	-0.0006
595.915	-0.0009
596.194	0.0005
596.473	0.0003
596.752	0.0008
597.031	-0.0001
597.31	0.0005
597.588	-0.0004
597.867	-0.0007
598.146	-0.0006
598.424	-0.0004
598.703	-0.0003
598.981	-0.0019
599.259	-0.0012
599.538	-0.0002
599.816	0.0002
600.094	-0.0004
600.372	-0.0019
600.65	-0.0011
600.928	-0.0005
601.206	-0.0006
601.484	-0.0003
601.762	0.0005
602.04	-0.0007
602.317	-0.0005
602.595	-0.0002
602.872	-0.0004
603.15	0.0004
603.427	-0.0017
603.704	-0.0005
603.982	-0.0006
604.259	-0.0006
604.536	0.0002
604.813	-0.0003
605.09	-0.0008
605.367	-0.0009
605.644	-0.0013
605.921	-0.0003
606.197	-0.0008
606.474	-0.0006
606.751	-0.0007
607.027	-0.0007
607.304	-0.0008
607.58	-0.0009
607.856	-0.0018
608.133	-0.0013
608.409	-0.0002
608.685	-0.0014
608.961	-0.0008
609.237	-0.0006
609.513	-0.0006
609.789	-0.0002
610.065	-0.0005
610.341	-0.0008
610.616	-0.0003
610.892	0
611.167	0.0001
611.443	-0.0004
611.718	-0.0008
611.994	-0.0003
612.269	-0.001
612.544	-0.0016
612.819	-0.0014
613.095	-0.0016
613.37	-0.0001
613.645	-0.0006
613.919	-0.0003
614.194	-0
614.469	-0.0003
614.744	-0.0009
615.019	-0.0015
615.293	-0.0008
615.568	-0.0011
615.842	-0.0004
616.116	0.0005
616.391	0.0009
616.665	-0
616.939	0.0003
617.213	0.0008
617.488	0.0012
617.762	-0.0002
618.035	-0.0008
618.309	-0.0005
618.583	0.0002
618.857	0.0008
619.131	0.0014
619.404	0
619.678	0.0007
619.951	-0.0006
620.225	-0.0008
620.498	-0.001
620.771	-0.0009
621.045	-0.0011
621.318	-0.0019
621.591	-0.0021
621.864	-0.0018
622.137	-0.0014
622.41	-0.0018
622.683	-0.0018
622.956	-0.0014
623.228	-0.0004
623.501	-0.0009
623.774	-0.0011
624.046	-0.0009
624.319	-0.0015
624.591	-0.0021
624.863	-0.0013
625.136	-0.0006
625.408	-0.0004
625.68	-0.0004
625.952	0.0004
626.224	-0.0004
626.496	0.0004
626.768	-0.0003
627.04	-0.0004
627.311	-0.0008
627.583	-0.0011
627.855	0.0008
628.126	0.0015
628.398	0.0011
628.669	0.0028
628.941	0.0014
629.212	0.0009
629.483	0.0012
629.755	0.0001
630.026	0.0006
630.297	-0
630.568	-0
630.839	0.0006
631.11	-0.0003
631.38	0.0004
631.651	0.0009
631.922	0.0009
632.192	-0.0003
632.463	0.0001
632.733	-0.001
633.004	-0.0006
633.274	0.0005
633.545	0.0002
633.815	0.0003
634.085	-0.0014
634.355	-0.0021
634.625	-0.0011
634.895	-0.0011
635.165	-0.0017
635.435	-0.0015
635.705	-0.0003
635.974	-0.0028
636.244	-0.0011
636.514	-0.0006
636.783	-0.001
637.053	-0.0009
637.322	0.0001
637.591	-0.0003
637.861	-0.0014
638.13	-0.0013
638.399	-0.0026
638.668	-0.0022
638.937	-0.0031
639.206	-0.003
639.475	-0.0036
639.744	-0.0032
640.013	-0.0026
640.281	-0.0015
640.55	-0.0014
640.819	-0.0021
641.087	-0.0016
641.356	-0.0015
641.624	-0.0001
641.892	0
642.161	-0.0004
642.429	-0.0008
642.697	-0.0015
642.965	-0.0009
643.233	-0.0014
643.501	-0.0019
643.769	-0.0003
644.037	-0.001
644.305	-0.0011
644.572	-0.0006
644.84	-0.0013
645.108	-0.0021
645.375	-0.0011
645.643	-0.0004
645.91	0.001
646.177	0.0009
646.445	0.0007
646.712	0.003
646.979	0.0039
647.246	0.0031
647.513	0.0034
647.78	0.0019
648.047	0.0001
648.314	-0.0012
648.58	-0.001
648.847	-0.0004
649.114	0.0001
649.38	0.0001
649.647	0
649.913	0
650.18	-0.0011
650.446	0.0001
650.712	-0.001
650.978	-0.0013
651.245	-0.0025
651.511	-0.0012
651.777	-0.0005
652.043	-0.0004
652.309	0.0001
652.574	0.0022
652.84	0.002
653.106	0.0006
653.371	0.0014
653.637	0.0018
653.903	0.0023
654.168	0.0032
654.433	0.0035
654.699	0.0024
654.964	0.0043
655.229	0.0015
655.494	0.0002
655.759	-0.003
656.024	0.0002
656.289	-0
656.554	0.0011
656.819	0.0008
657.084	0.0005
657.349	0.0012
657.613	0.0003
657.878	-0.0005
658.142	-0.0009
658.407	0.0011
658.671	0.001
658.936	0.0009
659.2	0.0014
659.464	0.0017
659.728	0.0008
659.992	0.0002
660.256	0.001
660.52	0.0007
660.784	-0.0006
661.048	0.0005
661.312	0.0012
661.575	0.0008
661.839	0.0012
662.103	-0.0001
662.366	-0.0005
662.63	-0.001
662.893	-0.0009
663.156	-0.001
663.42	-0.0011
663.683	-0.0023
663.946	-0.0028
664.209	-0.0023
664.472	-0.0021
664.735	-0.0016
664.998	-0.0003
665.261	-0.0004
665.524	-0.001
665.786	-0.0007
666.049	-0.0011
666.312	0.0001
666.574	-0.0009
666.837	0.0003
667.099	0.0001
667.361	-0.0005
667.624	-0.0008
667.886	-0.0029
668.148	-0.0015
668.41	-0.0009
668.672	-0.0016
668.934	-0.0003
669.196	0.0008
669.458	0.0016
669.72	0.0018
669.982	0.0014
670.243	0.0018
670.505	0.0007
670.766	0.001
671.028	0
671.289	-0.0001
671.551	-0.0005
671.812	-0.0012
672.073	-0.0005
672.334	-0.0009
672.596	-0.0008
672.857	-0.0016
673.118	-0.0015
673.379	-0.0025
673.639	-0.0032
673.9	-0.0026
674.161	-0.0021
674.422	-0.0028
674.682	-0.002
674.943	-0.0014
675.203	-0.0019
675.464	-0.0023
675.724	-0.0041
675.985	-0.0033
676.245	-0.0027
676.505	-0.0028
676.765	-0.002
677.025	-0.0015
677.285	-0.0019
677.545	-0.0012
677.805	-0.0008
678.065	-0.0005
678.325	0.0002
678.585	-0.0004
678.844	-0.0026
679.104	-0.0022
679.363	-0.003
679.623	-0.0033
679.882	-0.0024
680.142	-0.0016
680.401	-0.0024
680.66	-0.001
680.919	0.0006
681.178	-0.0002
681.437	-0.0008
681.696	-0.0011
681.955	-0.0005
682.214	-0.0003
682.473	-0.0014
682.732	-0.0011
682.99	-0.0015
683.249	-0.0011
683.508	-0.0019
683.766	-0.0019
684.024	-0.0019
684.283	-0.0007
684.541	-0.001
684.799	-0.0008
685.058	-0
685.316	-0.0016
685.574	-0.0014
685.832	-0.0012
686.09	-0.0019
686.348	-0.0035
686.606	-0.0031
686.863	-0.0031
687.121	-0.0019
687.379	-0.0013
687.636	-0.0019
687.894	-0.0006
688.151	0.0001
688.409	-0.0008
688.666	-0.0016
688.923	-0.0024
689.181	-0.0025
689.438	-0.0026
689.695	-0.0031
689.952	-0.0033
690.209	-0.0032
690.466	-0.0039
690.723	-0.0029
690.979	-0.0019
691.236	-0.0027
691.493	-0.0021
691.75	-0.0011
692.006	-0.0016
692.263	-0.0016
692.519	-0.0024
692.775	-0.001
693.032	-0.0016
693.288	-0.0017
693.544	-0.0008
693.8	-0.0003
694.056	-0.0011
694.313	-0.0012
694.568	-0.0008
694.824	-0.0012
695.08	-0.0014
695.336	-0.0031
695.592	-0.0035
695.847	-0.0022
696.103	-0.0016
696.359	-0.0016
696.614	-0.0021
696.869	-0.0027
697.125	-0.0037
697.38	-0.0023
697.635	-0.0014
697.891	-0.0006
698.146	-0.0003
698.401	-0.002
698.656	-0.0018
698.911	-0.0016
699.166	-0.001
699.42	0.0002
699.675	-0.0008
699.93	-0.0009
700.185	-0.0004
700.439	-0.0006
700.694	-0.0018
700.948	-0.0011
701.203	-0.0018
701.457	-0.0027
701.711	-0.0029
701.965	-0.003
702.22	-0.0018
702.474	-0.0018
702.728	-0.0017
702.982	-0.0018
703.236	-0.0009
703.49	-0.0005
703.743	-0.0013
703.997	-0.0013
704.251	-0.0021
704.504	-0.0014
704.758	-0.0013
705.012	-0.002
705.265	-0.0018
705.518	-0.0008
705.772	-0.0007
706.025	-0.0005
706.278	-0.0018
706.531	-0.0031
706.785	-0.0029
707.038	-0.0031
707.291	-0.0032
707.543	-0.0034
707.796	-0.0027
708.049	-0.0034
708.302	-0.0031
708.555	-0.0033
708.807	-0.0021
709.06	-0.0023
709.312	-0.0019
709.565	-0.0016
709.817	-0.0025
710.069	-0.0022
710.322	-0.0025
710.574	-0.0044
710.826	-0.0041
711.078	-0.0029
711.33	-0.003
711.582	-0.0043
711.834	-0.0039
712.086	-0.0047
712.338	-0.0049
712.59	-0.0047
712.841	-0.0055
713.093	-0.0054
713.344	-0.0053
713.596	-0.0051
713.847	-0.0036
714.099	-0.0044
714.35	-0.0046
714.601	-0.0034
714.853	-0.0035
715.104	-0.0042
715.355	-0.0031
715.606	-0.003
715.857	-0.0022
716.108	-0.003
716.359	-0.0028
716.609	-0.0035
716.86	-0.0025
717.111	-0.0029
717.361	-0.0013
717.612	-0.0006
717.863	0.0008
718.113	0.0011
718.363	0.0005
718.614	0.0013
718.864	0.0015
719.114	0.0007
719.364	0.0008
719.614	0.0006
719.865	0.0013
720.114	0.002
720.364	0.0014
720.614	0.0021
720.864	0.0017
721.114	0.002
721.364	0.0015
721.613	0.0015
721.863	0.0015
722.112	0.0014
722.362	-0.0001
722.611	-0.0005
722.86	-0.0019
723.11	-0.0006
723.359	-0.0009
723.608	-0.0013
723.857	-0.0014
724.106	-0.0005
724.355	-0.0008
724.604	0.0002
724.853	-0.0007
725.102	-0.0025
725.351	-0.0018
725.599	-0.003
725.848	-0.0034
726.097	-0.0021
726.345	-0.0029
726.594	-0.0034
726.842	-0.003
727.09	-0.0038
727.339	-0.0043
727.587	-0.005
727.835	-0.0049
728.083	-0.0047
728.331	-0.005
728.579	-0.0031
728.827	-0.0022
729.075	-0.0028
729.323	-0.0032
729.571	-0.0037
729.818	-0.0031
730.066	-0.0023
730.314	-0.0019
730.561	-0.0008
730.809	-0.0012
731.056	-0.0013
731.303	0.0001
731.551	-0.0007
731.798	-0.0008
732.045	-0.0008
732.292	0.0001
732.539	0.0002
732.786	0.0013
733.033	0.0005
733.28	0.0012
733.527	0.0008
733.774	0.0004
734.021	-0.0018
734.267	-0.0026
734.514	-0.0024
734.76	-0.0033
735.007	-0.0036
735.253	-0.0039
735.5	-0.0035
735.746	-0.0038
735.992	-0.002
736.238	-0.0021
736.485	-0.0015
736.731	-0.0014
736.977	-0.0032
737.223	-0.0024
737.469	-0.0023
737.715	-0.0013
737.96	-0.0021
738.206	-0.0032
738.452	-0.0028
738.697	-0.0025
738.943	-0.0031
739.189	-0.0031
739.434	-0.0025
739.679	-0.0031
739.925	-0.0032
740.17	-0.005
740.415	-0.0061
740.66	-0.0063
740.906	-0.0068
741.151	-0.0055
741.396	-0.0056
741.641	-0.0061
741.886	-0.0063
742.13	-0.0041
742.375	-0.0034
742.62	-0.0039
742.865	-0.0034
743.109	-0.0015
743.354	-0.0011
743.598	0.0001
743.843	0.0001
744.087	0.0012
744.331	0.0008
744.576	0.0015
744.82	0.0027
745.064	0.0028
745.308	0.0025
745.552	0.0017
745.796	0.0007
746.04	0.0003
746.284	0.001
746.528	0.001
746.771	0.0021
747.015	0.0022
747.259	0.0015
747.502	0.0003
747.746	0.0006
747.989	0.0003
748.233	-0.0007
748.476	0.001
748.719	0.0017
748.963	0.0031
749.206	0.0021
749.449	0.0006
749.692	0.001
749.935	0.0007
750.178	-0.0005
750.421	-0.0009
750.664	-0.0008
750.906	0.0004
751.149	0.0007
751.392	-0.0006
751.635	-0.0017
751.877	-0.0011
752.12	-0.0011
752.362	-0.0014
752.604	-0.0006
752.847	0
753.089	0.0008
753.331	0.0007
753.573	0.0005
753.816	-0.0008
754.058	-0.0013
754.3	-0.0024
754.542	-0.0024
754.783	-0.0032
755.025	-0.002
755.267	-0.0016
755.509	-0.002
755.75	-0.0024
755.992	-0.0013
756.234	-0.0028
756.475	-0.0023
756.716	-0.0029
756.958	-0.0024
757.199	-0.0019
757.44	-0.0018
757.682	-0.0021
757.923	-0.0008
758.164	-0.0006
758.405	-0.0005
758.646	0.0005
758.887	0.0001
759.128	-0
759.369	-0.0001
759.609	0.0009
759.85	0.0002
760.091	0.0008
760.331	0.0001
760.572	-0.0011
760.812	-0.001
761.053	-0.0007
761.293	-0.0007
761.533	-0.0005
761.774	0.0013
762.014	0.0002
762.254	0.0001
762.494	-0.0013
762.734	-0.0019
762.974	-0.0029
763.214	-0.0025
763.454	-0.002
763.694	-0.0021
763.933	-0.0027
764.173	-0.0044
764.413	-0.0059
764.652	-0.0052
764.892	-0.0046
765.131	-0.004
765.371	-0.0034
765.61	-0.0032
765.849	-0.0031
766.089	-0.002
766.328	-0.0022
766.567	-0.0017
766.806	-0.0022
767.045	-0.0008
767.284	-0.002
767.523	-0.0019
767.762	-0.0027
768.001	-0.0019
768.239	-0.0015
768.478	-0.0006
768.717	-0.0004
768.955	-0.0003
769.194	-0.0004
769.432	0.0014
769.671	0.0011
769.909	0.0014
770.148	0.001
770.386	0.0014
770.624	0.0012
770.862	0.0009
771.1	0.0017
771.338	0.0009
771.576	-0.0002
771.814	0.0007
772.052	0.0024
772.29	0.0019
772.528	0.0029
772.765	0.0035
773.003	0.0034
773.24	0.0038
773.478	0.0022
773.716	0.0011
773.953	0.0012
774.19	0.0013
774.428	0.0025
774.665	0.0028
774.902	0.0031
775.139	0.0028
775.376	0.0026
775.613	0.0017
775.85	0.0016
776.087	0.0014
776.324	0.0006
776.561	0.0011
776.798	0.0001
777.034	-0.0001
777.271	0.0015
777.508	0.0009
777.744	0.0015
777.981	0.0021
778.217	0.0029
778.454	0.0011
778.69	-0.0003
778.926	-0.0011
779.162	-0.0014
779.399	-0.0013
779.635	-0.0015
779.871	-0.0017
780.107	-0.0012
780.343	-0.0022
780.579	-0.0016
780.814	-0.0019
781.05	-0.0022
781.286	-0.003
781.522	-0.0016
781.757	-0.0014
781.993	-0.0011
782.228	-0.0025
782.464	-0.0011
782.699	-0.003
782.934	-0.0026
783.17	-0.0023
783.405	-0.0022
783.64	-0.0033
783.875	-0.004
784.11	-0.0042
784.345	-0.0031
784.58	-0.0028
784.815	-0.0023
785.05	-0.0034
785.285	-0.0038
785.52	-0.0037
785.754	-0.0051
785.989	-0.0061
786.223	-0.0069
786.458	-0.0064
786.692	-0.005
786.927	-0.0055
787.161	-0.0042
787.396	-0.0043
787.63	-0.0046
787.864	-0.0058
788.098	-0.0058
788.332	-0.0049
788.566	-0.0037
788.8	-0.004
789.034	-0.0025
789.268	-0.0031
789.502	-0.0024
789.736	-0.003
789.969	-0.0024
790.203	-0.0032
790.437	-0.0049
790.67	-0.0054
790.904	-0.0054
791.137	-0.0065
791.37	-0.0067
791.604	-0.0076
791.837	-0.0074
792.07	-0.0064
792.303	-0.0065
792.537	-0.0064
792.77	-0.0065
793.003	-0.0057
793.236	-0.0055
793.469	-0.0057
793.701	-0.0043
793.934	-0.0037
794.167	-0.0027
794.4	-0.0033
794.632	-0.0018
794.865	-0.0016
795.097	-0.0015
795.33	-0.003
795.562	-0.0015
795.795	-0.0012
796.027	-0.0003
796.259	-0.0006
796.491	-0.0008
796.724	-0.0002
796.956	0.0008
797.188	0.0006
797.42	-0.0005
797.652	-0.0006
797.883	-0.0001
798.115	0.0007
798.347	0.0005
798.579	0.0023
798.81	0.0014
799.042	0.0023
799.274	0.0017
799.505	0.001
799.737	0.0011
799.968	0.0004
800.199	-0.001
800.431	-0.0004
800.662	-0.0005
800.893	-0.0008
801.124	-0.0013
801.355	-0.0015
801.586	-0.0013
801.817	-0.0025
802.048	-0.004
802.279	-0.0036
802.51	-0.0024
802.741	-0.0008
802.971	-0.0001
803.202	0.0007
803.433	0.0006
803.663	-0.0009
803.894	-0.0011
804.124	-0.0019
804.354	-0.0012
804.585	-0.0013
804.815	-0.0009
805.045	-0.0005
805.275	-0.0011
805.506	-0.0615
805.736	0.0746
805.966	-0.0401
806.196	0.0518
