Data from 03 0.5 mM K2Cr2O7 0.3 mM BQDS 1 M H2SO4 5 min_Absorbance_0102.txt Node
Date: Tue Dec 14 02:09:46 EST 2021
User: kwabilab-user
Spectrometer: HDX00518
Trigger mode: 0
Integration Time (sec): 5.000000E-2
Scans to average: 50
Nonlinearity correction enabled: false
Boxcar width: 0
Storing dark spectrum: false
XAxis mode: Wavelengths
Number of Pixels in Spectrum: 2068
>>>>>Begin Spectral Data<<<<<
195.27	-0.1595
195.642	-0.0492
196.014	-0.061
196.386	0.015
196.758	-0.0598
197.129	-0.0371
197.501	-0.036
197.872	-0.0054
198.244	0.0017
198.615	0.0212
198.986	0.0136
199.357	0.017
199.728	0.0079
200.099	0.0209
200.47	-0.0071
200.841	0.0115
201.212	0.0149
201.582	0.0267
201.953	0.0173
202.323	0.0307
202.694	0.0236
203.064	0.0141
203.434	0.0181
203.804	0.0066
204.174	0.0099
204.544	0.0048
204.914	0.0005
205.284	0.0161
205.653	-0.0137
206.023	0.0092
206.393	-0.0274
206.762	0.014
207.131	0.0173
207.501	0.0071
207.87	0.0153
208.239	0.0287
208.608	0.019
208.977	-0.0085
209.346	0.0072
209.715	0.012
210.083	-0.0028
210.452	0.0034
210.82	0.0141
211.189	-0.0312
211.557	0.0198
211.925	-0.0189
212.294	-0.0022
212.662	0.0153
213.03	-0.0075
213.398	0.0259
213.766	0.02
214.133	0.0077
214.501	0.0224
214.869	0.0314
215.236	-0.0051
215.604	0.0182
215.971	0.0178
216.338	0.0265
216.705	0.032
217.072	0.0607
217.439	0.0187
217.806	0.0339
218.173	0.0215
218.54	0.0232
218.907	0.0398
219.273	0.0564
219.64	0.0348
220.006	0.0622
220.373	0.0551
220.739	0.0693
221.105	0.1073
221.471	0.1214
221.837	0.1272
222.203	0.1382
222.569	0.171
222.935	0.1934
223.3	0.1973
223.666	0.2291
224.031	0.2284
224.397	0.2686
224.762	0.2801
225.127	0.3248
225.493	0.3501
225.858	0.3633
226.223	0.3763
226.588	0.3914
226.952	0.4287
227.317	0.4477
227.682	0.4636
228.046	0.4562
228.411	0.4759
228.775	0.5142
229.14	0.5304
229.504	0.5398
229.868	0.5557
230.232	0.5623
230.596	0.5708
230.96	0.5862
231.324	0.586
231.688	0.6137
232.052	0.6173
232.415	0.6159
232.779	0.6257
233.142	0.6395
233.505	0.6404
233.869	0.6417
234.232	0.6459
234.595	0.6482
234.958	0.6589
235.321	0.6574
235.684	0.6565
236.047	0.6679
236.409	0.6531
236.772	0.6691
237.134	0.6693
237.497	0.6601
237.859	0.6677
238.222	0.6551
238.584	0.6598
238.946	0.6453
239.308	0.6498
239.67	0.6391
240.032	0.6521
240.393	0.6678
240.755	0.6477
241.117	0.6592
241.478	0.6414
241.84	0.6453
242.201	0.6516
242.562	0.639
242.924	0.646
243.285	0.6274
243.646	0.6322
244.007	0.6354
244.368	0.6394
244.728	0.6329
245.089	0.6331
245.45	0.6377
245.81	0.6244
246.171	0.6302
246.531	0.6306
246.891	0.6247
247.252	0.6218
247.612	0.6231
247.972	0.6214
248.332	0.6292
248.692	0.6293
249.051	0.6262
249.411	0.6302
249.771	0.6151
250.13	0.6176
250.49	0.6238
250.849	0.6196
251.208	0.6283
251.568	0.623
251.927	0.6229
252.286	0.6197
252.645	0.6241
253.004	0.6163
253.363	0.6132
253.721	0.6202
254.08	0.6191
254.439	0.6147
254.797	0.6086
255.155	0.6138
255.514	0.6194
255.872	0.6156
256.23	0.6107
256.588	0.6141
256.946	0.6103
257.304	0.6171
257.662	0.6145
258.02	0.6186
258.377	0.6161
258.735	0.6093
259.093	0.6086
259.45	0.6058
259.807	0.6066
260.165	0.6053
260.522	0.6078
260.879	0.5944
261.236	0.6015
261.593	0.596
261.95	0.5931
262.306	0.5935
262.663	0.5835
263.02	0.588
263.376	0.5845
263.733	0.5892
264.089	0.5837
264.445	0.5779
264.802	0.5785
265.158	0.5791
265.514	0.5694
265.87	0.5711
266.226	0.5684
266.581	0.5727
266.937	0.568
267.293	0.5629
267.648	0.5541
268.004	0.5557
268.359	0.5468
268.714	0.5498
269.07	0.5499
269.425	0.5389
269.78	0.5407
270.135	0.5371
270.49	0.5377
270.844	0.5325
271.199	0.5272
271.554	0.5265
271.908	0.5177
272.263	0.5212
272.617	0.5147
272.972	0.5178
273.326	0.5089
273.68	0.5077
274.034	0.5081
274.388	0.5035
274.742	0.4974
275.096	0.4959
275.45	0.4909
275.803	0.4879
276.157	0.4862
276.51	0.4794
276.864	0.4728
277.217	0.4708
277.571	0.4697
277.924	0.4663
278.277	0.4628
278.63	0.4554
278.983	0.4526
279.336	0.4464
279.688	0.4433
280.041	0.4362
280.394	0.4341
280.746	0.4315
281.099	0.4247
281.451	0.4217
281.803	0.4158
282.156	0.4152
282.508	0.4103
282.86	0.4064
283.212	0.3988
283.564	0.3957
283.916	0.3918
284.267	0.3872
284.619	0.3825
284.971	0.3783
285.322	0.377
285.673	0.3708
286.025	0.3644
286.376	0.3635
286.727	0.3591
287.078	0.3549
287.429	0.3502
287.78	0.3471
288.131	0.3433
288.482	0.3376
288.833	0.3325
289.183	0.3276
289.534	0.3244
289.884	0.321
290.235	0.3163
290.585	0.3124
290.935	0.3094
291.285	0.3027
291.635	0.3008
291.985	0.2942
292.335	0.2918
292.685	0.2883
293.035	0.2852
293.384	0.2815
293.734	0.277
294.083	0.273
294.433	0.2673
294.782	0.2654
295.131	0.2607
295.48	0.2574
295.829	0.2555
296.179	0.2501
296.527	0.2457
296.876	0.2424
297.225	0.2388
297.574	0.2339
297.922	0.232
298.271	0.2294
298.619	0.2256
298.968	0.2221
299.316	0.2188
299.664	0.2162
300.012	0.2131
300.36	0.2095
300.708	0.2067
301.056	0.2037
301.404	0.2013
301.752	0.199
302.099	0.1957
302.447	0.1929
302.794	0.1893
303.142	0.1887
303.489	0.1851
303.836	0.1838
304.183	0.1815
304.531	0.179
304.878	0.1768
305.224	0.1765
305.571	0.1736
305.918	0.1713
306.265	0.1697
306.611	0.1686
306.958	0.1675
307.304	0.1653
307.651	0.1651
307.997	0.1624
308.343	0.1626
308.689	0.1611
309.035	0.1601
309.381	0.1592
309.727	0.1582
310.073	0.1578
310.419	0.1571
310.764	0.1551
311.11	0.1547
311.455	0.1554
311.801	0.1558
312.146	0.1537
312.491	0.1543
312.837	0.1527
313.182	0.153
313.527	0.1534
313.872	0.153
314.216	0.1529
314.561	0.1537
314.906	0.153
315.251	0.1536
315.595	0.1546
315.94	0.1547
316.284	0.1542
316.628	0.1557
316.972	0.1563
317.317	0.1569
317.661	0.1562
318.005	0.158
318.348	0.1589
318.692	0.1592
319.036	0.1593
319.38	0.1606
319.723	0.1616
320.067	0.163
320.41	0.1636
320.754	0.1659
321.097	0.1664
321.44	0.1674
321.783	0.1687
322.126	0.1704
322.469	0.1707
322.812	0.1729
323.155	0.1734
323.498	0.1752
323.84	0.1761
324.183	0.179
324.525	0.1801
324.868	0.182
325.21	0.1826
325.552	0.1851
325.894	0.1864
326.236	0.1876
326.578	0.189
326.92	0.1906
327.262	0.1924
327.604	0.1943
327.946	0.1955
328.287	0.1977
328.629	0.1999
328.97	0.2009
329.312	0.2024
329.653	0.2038
329.994	0.2067
330.335	0.2078
330.676	0.2104
331.017	0.2113
331.358	0.2136
331.699	0.2158
332.04	0.2171
332.38	0.2185
332.721	0.2205
333.061	0.2225
333.402	0.2246
333.742	0.2263
334.083	0.2282
334.423	0.2295
334.763	0.2307
335.103	0.232
335.443	0.2344
335.783	0.2355
336.123	0.2363
336.462	0.2385
336.802	0.2398
337.141	0.2412
337.481	0.2425
337.82	0.2444
338.16	0.2449
338.499	0.2471
338.838	0.2478
339.177	0.2507
339.516	0.2525
339.855	0.2526
340.194	0.2549
340.533	0.2553
340.872	0.2566
341.21	0.2578
341.549	0.2583
341.887	0.2597
342.226	0.2605
342.564	0.2616
342.902	0.262
343.24	0.2629
343.578	0.2628
343.916	0.2636
344.254	0.2645
344.592	0.264
344.93	0.2644
345.268	0.2655
345.605	0.2656
345.943	0.2666
346.28	0.2663
346.618	0.2672
346.955	0.2674
347.292	0.267
347.629	0.2673
347.966	0.2679
348.303	0.2683
348.64	0.2683
348.977	0.2684
349.314	0.2693
349.65	0.2688
349.987	0.2687
350.324	0.2694
350.66	0.2683
350.996	0.2672
351.333	0.2673
351.669	0.2666
352.005	0.2662
352.341	0.2655
352.677	0.2645
353.013	0.2641
353.349	0.2632
353.685	0.2622
354.02	0.2607
354.356	0.2583
354.691	0.2579
355.027	0.2576
355.362	0.2573
355.697	0.2553
356.033	0.2542
356.368	0.2536
356.703	0.2529
357.038	0.2513
357.373	0.25
357.707	0.2488
358.042	0.2482
358.377	0.2478
358.711	0.2466
359.046	0.2451
359.38	0.2446
359.715	0.2433
360.049	0.2417
360.383	0.2407
360.717	0.239
361.051	0.2382
361.385	0.2364
361.719	0.2346
362.053	0.2326
362.387	0.2313
362.72	0.2285
363.054	0.2271
363.387	0.2255
363.721	0.2234
364.054	0.2218
364.387	0.2191
364.721	0.218
365.054	0.2157
365.387	0.2134
365.72	0.2123
366.053	0.2106
366.385	0.2079
366.718	0.2072
367.051	0.2053
367.383	0.2044
367.716	0.2023
368.048	0.2014
368.381	0.1991
368.713	0.1983
369.045	0.1971
369.377	0.1944
369.709	0.1941
370.041	0.1927
370.373	0.1909
370.705	0.1888
371.037	0.1867
371.368	0.1857
371.7	0.1849
372.031	0.1819
372.363	0.1801
372.694	0.1776
373.025	0.1754
373.356	0.1736
373.688	0.1717
374.019	0.1692
374.35	0.1669
374.68	0.1651
375.011	0.1632
375.342	0.1601
375.673	0.1586
376.003	0.1566
376.334	0.1548
376.664	0.1527
376.995	0.1511
377.325	0.1479
377.655	0.1477
377.985	0.1458
378.315	0.1438
378.645	0.1426
378.975	0.1408
379.305	0.1401
379.635	0.1384
379.964	0.1386
380.294	0.1356
380.623	0.135
380.953	0.1336
381.282	0.1313
381.611	0.13
381.941	0.1285
382.27	0.127
382.599	0.1254
382.928	0.1239
383.257	0.1228
383.585	0.1203
383.914	0.1199
384.243	0.117
384.571	0.1155
384.9	0.1134
385.228	0.1118
385.557	0.109
385.885	0.1075
386.213	0.1059
386.541	0.1048
386.869	0.1028
387.197	0.1009
387.525	0.0993
387.853	0.0982
388.181	0.0961
388.508	0.0946
388.836	0.0928
389.164	0.0908
389.491	0.0903
389.818	0.0888
390.146	0.088
390.473	0.0868
390.8	0.085
391.127	0.0839
391.454	0.0827
391.781	0.0814
392.108	0.0806
392.435	0.0792
392.761	0.0778
393.088	0.0772
393.415	0.076
393.741	0.0763
394.067	0.0746
394.394	0.0733
394.72	0.0727
395.046	0.0722
395.372	0.071
395.698	0.07
396.024	0.0691
396.35	0.0683
396.676	0.0667
397.001	0.0655
397.327	0.0648
397.653	0.0641
397.978	0.0626
398.303	0.0615
398.629	0.0599
398.954	0.0592
399.279	0.0585
399.604	0.0584
399.929	0.0571
400.254	0.057
400.579	0.0566
400.904	0.0553
401.229	0.0546
401.553	0.0543
401.878	0.0539
402.202	0.0524
402.527	0.0521
402.851	0.0518
403.175	0.0511
403.5	0.0501
403.824	0.0499
404.148	0.05
404.472	0.049
404.796	0.0487
405.119	0.0484
405.443	0.0481
405.767	0.0476
406.09	0.0471
406.414	0.047
406.737	0.0462
407.061	0.0469
407.384	0.0461
407.707	0.0457
408.03	0.0456
408.353	0.0459
408.676	0.0451
408.999	0.0446
409.322	0.0456
409.645	0.0447
409.968	0.0441
410.29	0.0442
410.613	0.0445
410.935	0.0444
411.258	0.0442
411.58	0.0438
411.902	0.0437
412.224	0.0435
412.546	0.0434
412.868	0.0431
413.19	0.0426
413.512	0.0435
413.834	0.0428
414.156	0.0424
414.477	0.0431
414.799	0.043
415.121	0.0429
415.442	0.0425
415.763	0.043
416.085	0.0427
416.406	0.0427
416.727	0.0432
417.048	0.0427
417.369	0.0423
417.69	0.0422
418.011	0.0422
418.331	0.0424
418.652	0.0429
418.973	0.0423
419.293	0.0426
419.614	0.0425
419.934	0.0434
420.254	0.0428
420.574	0.0427
420.895	0.0421
421.215	0.0427
421.535	0.0422
421.855	0.042
422.174	0.0419
422.494	0.0425
422.814	0.0422
423.134	0.042
423.453	0.0428
423.773	0.0429
424.092	0.0432
424.411	0.042
424.731	0.0424
425.05	0.0424
425.369	0.0428
425.688	0.0422
426.007	0.0418
426.326	0.043
426.644	0.0423
426.963	0.0435
427.282	0.0428
427.6	0.0425
427.919	0.0423
428.237	0.0427
428.556	0.0424
428.874	0.0425
429.192	0.0434
429.51	0.0434
429.828	0.0429
430.146	0.0433
430.464	0.0418
430.782	0.0425
431.1	0.043
431.418	0.0426
431.735	0.0425
432.053	0.0432
432.37	0.0431
432.688	0.043
433.005	0.0425
433.322	0.0429
433.639	0.0425
433.957	0.0427
434.274	0.0429
434.591	0.0423
434.907	0.0424
435.224	0.0431
435.541	0.0428
435.858	0.0435
436.174	0.0433
436.491	0.0423
436.807	0.0417
437.124	0.0431
437.44	0.0431
437.756	0.0429
438.072	0.0425
438.388	0.0427
438.704	0.0426
439.02	0.043
439.336	0.0428
439.652	0.0418
439.968	0.0417
440.283	0.0418
440.599	0.0423
440.914	0.0428
441.23	0.0426
441.545	0.0418
441.86	0.0417
442.175	0.0419
442.491	0.0421
442.806	0.0418
443.121	0.0414
443.435	0.0416
443.75	0.0419
444.065	0.0414
444.38	0.0416
444.694	0.0415
445.009	0.0412
445.323	0.0415
445.638	0.0405
445.952	0.0407
446.266	0.041
446.58	0.041
446.894	0.0411
447.208	0.0407
447.522	0.0408
447.836	0.0406
448.15	0.0393
448.464	0.0401
448.777	0.0409
449.091	0.0391
449.404	0.0397
449.718	0.0395
450.031	0.0392
450.345	0.0394
450.658	0.039
450.971	0.0395
451.284	0.0392
451.597	0.0382
451.91	0.0389
452.223	0.0387
452.535	0.0385
452.848	0.0387
453.161	0.0377
453.473	0.0379
453.786	0.0379
454.098	0.0381
454.411	0.0387
454.723	0.0369
455.035	0.0371
455.347	0.0364
455.659	0.0371
455.971	0.0376
456.283	0.037
456.595	0.0368
456.907	0.0371
457.218	0.0366
457.53	0.0355
457.841	0.0364
458.153	0.036
458.464	0.0358
458.776	0.0355
459.087	0.0353
459.398	0.0354
459.709	0.0356
460.02	0.0357
460.331	0.0339
460.642	0.0343
460.953	0.0344
461.263	0.0337
461.574	0.0339
461.885	0.034
462.195	0.0337
462.506	0.0334
462.816	0.033
463.126	0.0333
463.437	0.0332
463.747	0.0327
464.057	0.0322
464.367	0.0327
464.677	0.0315
464.987	0.0316
465.296	0.0317
465.606	0.0309
465.916	0.0313
466.225	0.0316
466.535	0.0309
466.844	0.0308
467.154	0.0307
467.463	0.0296
467.772	0.0305
468.081	0.0293
468.39	0.0295
468.699	0.0297
469.008	0.0291
469.317	0.0285
469.626	0.0277
469.935	0.0275
470.243	0.0279
470.552	0.0279
470.86	0.0282
471.169	0.0273
471.477	0.0274
471.785	0.0271
472.093	0.0268
472.402	0.0263
472.71	0.0274
473.018	0.0257
473.326	0.0253
473.633	0.0262
473.941	0.0264
474.249	0.0254
474.556	0.0261
474.864	0.0253
475.171	0.0247
475.479	0.0247
475.786	0.0245
476.094	0.0245
476.401	0.0239
476.708	0.0244
477.015	0.0241
477.322	0.0237
477.629	0.0231
477.936	0.0232
478.242	0.0225
478.549	0.0222
478.856	0.0224
479.162	0.0219
479.469	0.0223
479.775	0.0224
480.081	0.0216
480.388	0.0213
480.694	0.0222
481	0.0213
481.306	0.0211
481.612	0.0205
481.918	0.0208
482.224	0.0199
482.53	0.0204
482.835	0.0203
483.141	0.0197
483.446	0.0194
483.752	0.0187
484.057	0.0188
484.363	0.0182
484.668	0.0179
484.973	0.0172
485.278	0.018
485.583	0.018
485.888	0.0176
486.193	0.0167
486.498	0.0166
486.803	0.0168
487.107	0.0165
487.412	0.016
487.717	0.016
488.021	0.0151
488.325	0.0167
488.63	0.0163
488.934	0.0158
489.238	0.0161
489.542	0.0147
489.846	0.015
490.15	0.0148
490.454	0.0148
490.758	0.0142
491.062	0.0139
491.366	0.0145
491.669	0.0129
491.973	0.0144
492.276	0.0134
492.58	0.0132
492.883	0.0125
493.186	0.0133
493.489	0.0126
493.792	0.0117
494.096	0.0134
494.399	0.011
494.701	0.013
495.004	0.0109
495.307	0.012
495.61	0.0105
495.912	0.0119
496.215	0.0098
496.517	0.0108
496.82	0.0107
497.122	0.0094
497.424	0.0106
497.727	0.0106
498.029	0.0091
498.331	0.01
498.633	0.0108
498.935	0.0094
499.237	0.0099
499.538	0.0094
499.84	0.0092
500.142	0.0076
500.443	0.0076
500.745	0.0084
501.046	0.0076
501.348	0.0078
501.649	0.0071
501.95	0.007
502.251	0.0064
502.552	0.0069
502.853	0.0072
503.154	0.0068
503.455	0.0073
503.756	0.0065
504.057	0.0069
504.357	0.0056
504.658	0.0065
504.958	0.0073
505.259	0.006
505.559	0.0057
505.859	0.0056
506.16	0.006
506.46	0.005
506.76	0.0058
507.06	0.0056
507.36	0.0049
507.66	0.0055
507.96	0.006
508.259	0.0056
508.559	0.0059
508.859	0.0051
509.158	0.005
509.457	0.0037
509.757	0.0053
510.056	0.0046
510.355	0.0037
510.655	0.0033
510.954	0.0043
511.253	0.0039
511.552	0.004
511.851	0.0045
512.149	0.0023
512.448	0.0043
512.747	0.0033
513.045	0.0033
513.344	0.0019
513.642	0.0021
513.941	0.0029
514.239	0.0032
514.537	0.0016
514.836	0.0029
515.134	0.0018
515.432	0.0039
515.73	0.002
516.028	0.0022
516.326	0.0024
516.623	0.0031
516.921	0.0009
517.219	0.0024
517.516	0.0025
517.814	0.0027
518.111	0.0019
518.409	0.0008
518.706	0.001
519.003	0.0016
519.3	0.0014
519.597	0.001
519.894	0.0017
520.191	0.0016
520.488	0.0014
520.785	-0.0002
521.082	0.0011
521.378	0.0001
521.675	0.001
521.971	-0.0002
522.268	0.0013
522.564	0.0014
522.861	-0.0001
523.157	0.0013
523.453	0.0016
523.749	0.0009
524.045	0.0007
524.341	0.0013
524.637	-0.0002
524.933	0.0001
525.229	0.0016
525.524	-0.0003
525.82	-0.0003
526.115	0.0003
526.411	0.0008
526.706	0.0004
527.002	0.0002
527.297	-0.001
527.592	0.0005
527.887	0.0009
528.182	0.0002
528.477	0.0008
528.772	0.0008
529.067	-0.0001
529.362	0.0009
529.657	0.0002
529.951	-0.0005
530.246	-0.0006
530.54	0.0007
530.835	-0.0008
531.129	0.0001
531.423	-0.0013
531.718	0
532.012	-0.0009
532.306	-0.0003
532.6	-0.0007
532.894	-0.0004
533.188	0.0005
533.482	-0.0011
533.775	-0.0009
534.069	-0.001
534.363	-0.0014
534.656	-0.0019
534.95	0.0002
535.243	-0.0008
535.536	0.0003
535.83	-0.0018
536.123	-0.0008
536.416	0.0001
536.709	-0.0016
537.002	-0.0018
537.295	-0.0013
537.588	-0.002
537.881	-0.0011
538.173	-0.0015
538.466	-0.0009
538.759	-0.0004
539.051	-0.0012
539.344	-0.0015
539.636	-0.0008
539.928	-0.0006
540.22	-0.0004
540.513	-0.0008
540.805	-0.0001
541.097	-0.0018
541.389	-0.0011
541.681	0.0005
541.972	-0.0004
542.264	-0.001
542.556	-0.0002
542.847	0.0012
543.139	-0.0004
543.431	0.0004
543.722	-0.0006
544.013	-0.0001
544.305	-0.0013
544.596	-0.0003
544.887	0.0008
545.178	-0.0005
545.469	-0.0011
545.76	-0.0009
546.051	0.0004
546.342	-0.0007
546.632	-0.0016
546.923	-0.0015
547.214	-0.0005
547.504	-0.0018
547.795	-0.0011
548.085	-0.0015
548.375	-0.0009
548.666	-0.0019
548.956	-0.0012
549.246	-0.0007
549.536	-0.0013
549.826	-0.0018
550.116	-0.0014
550.406	-0.0013
550.695	-0.0023
550.985	-0.0004
551.275	-0.0007
551.564	-0.0013
551.854	-0.0001
552.143	-0.0009
552.433	-0.0022
552.722	-0.0027
553.011	-0.0011
553.3	-0.0013
553.589	-0.0012
553.879	-0.0004
554.167	-0.0004
554.456	-0.0001
554.745	0.0003
555.034	-0.0017
555.323	0.0004
555.611	-0.0004
555.9	-0.001
556.188	-0.0016
556.477	-0.0003
556.765	-0.0035
557.053	-0.0015
557.342	-0.0015
557.63	-0.0018
557.918	0
558.206	-0
558.494	-0.0007
558.782	-0.0004
559.069	0.0002
559.357	-0.0001
559.645	-0.0003
559.932	-0.001
560.22	-0.0008
560.507	-0.0016
560.795	-0.0014
561.082	-0.0021
561.37	-0.0004
561.657	-0.0013
561.944	-0.0016
562.231	-0.0012
562.518	-0.0008
562.805	-0.0012
563.092	0.0002
563.379	-0.0009
563.665	0
563.952	0.0003
564.239	-0.0003
564.525	0.0001
564.811	0.0008
565.098	-0.0009
565.384	-0.0003
565.67	-0.001
565.957	0.0009
566.243	0.0012
566.529	0.0002
566.815	0.0004
567.101	0.0004
567.387	-0.0002
567.672	-0.0004
567.958	0.0005
568.244	0
568.529	0.0001
568.815	-0.0009
569.1	-0.0011
569.386	-0.0015
569.671	0.0002
569.956	-0.0001
570.242	-0.0009
570.527	-0.0008
570.812	-0.0003
571.097	-0
571.382	-0.001
571.666	0.0006
571.951	-0.0011
572.236	-0.0009
572.521	-0.0003
572.805	-0.0007
573.09	-0.0009
573.374	-0.0018
573.659	-0.0003
573.943	-0.0011
574.227	-0.0011
574.511	-0.001
574.795	-0.0009
575.079	-0.0002
575.363	-0.0012
575.647	-0.0014
575.931	-0.0001
576.215	-0.0007
576.499	-0.0017
576.782	-0.0019
577.066	-0.0011
577.349	-0.0001
577.633	-0.0014
577.916	-0.0007
578.2	-0.0008
578.483	-0.0009
578.766	-0
579.049	-0.0005
579.332	0.0009
579.615	0.0002
579.898	-0.0009
580.181	0.0003
580.464	0.0012
580.746	0.0001
581.029	-0.0006
581.312	-0.0006
581.594	-0.0016
581.877	-0.0016
582.159	-0.0015
582.441	-0.0013
582.724	-0.0013
583.006	0.0003
583.288	0.0004
583.57	0.0003
583.852	0.0004
584.134	-0.0002
584.416	-0.0002
584.697	-0.0001
584.979	-0.0019
585.261	-0.002
585.542	-0.0013
585.824	-0.0013
586.105	-0.0014
586.387	-0.0016
586.668	-0.0011
586.949	0
587.231	-0.0001
587.512	-0.0006
587.793	-0.0001
588.074	-0.001
588.355	-0.0001
588.636	-0.0009
588.916	-0.0005
589.197	-0.0008
589.478	-0.0007
589.758	-0.0012
590.039	0.0005
590.319	-0.0001
590.6	0.0002
590.88	0.0006
591.16	0.0007
591.441	0.0012
591.721	-0.0005
592.001	0.0001
592.281	0
592.561	-0.0002
592.841	-0.001
593.12	-0.0027
593.4	-0.0017
593.68	-0.0023
593.959	-0.0017
594.239	-0.0014
594.518	-0.0006
594.798	-0.0007
595.077	-0.0013
595.356	-0.0005
595.636	-0.0016
595.915	-0.0002
596.194	0.0003
596.473	0.0007
596.752	0.001
597.031	-0.0003
597.31	-0
597.588	-0.0007
597.867	-0.0009
598.146	-0.0011
598.424	-0.0002
598.703	-0.0004
598.981	-0.0017
599.259	-0.0014
599.538	-0.0014
599.816	-0.0003
600.094	-0.0012
600.372	-0.0018
600.65	-0.0014
600.928	-0.0005
601.206	-0.0003
601.484	-0.0014
601.762	-0.0001
602.04	-0.0002
602.317	-0.0007
602.595	-0.0011
602.872	-0
603.15	0.001
603.427	-0.0014
603.704	-0.0017
603.982	-0.0011
604.259	-0.0006
604.536	-0.0004
604.813	-0.0005
605.09	-0.0014
605.367	-0.0016
605.644	-0.001
605.921	-0.0012
606.197	-0.0012
606.474	-0.001
606.751	-0.0005
607.027	-0.001
607.304	-0.0007
607.58	-0.0006
607.856	-0.002
608.133	-0.0023
608.409	-0.0007
608.685	-0.0008
608.961	-0.0015
609.237	-0.0006
609.513	-0.0012
609.789	-0.0015
610.065	-0.001
610.341	-0.0015
610.616	-0.0005
610.892	0.0005
611.167	0.0012
611.443	0.0005
611.718	-0.0001
611.994	-0.0007
612.269	0
612.544	-0.0005
612.819	-0.0009
613.095	-0.0008
613.37	0.0001
613.645	-0.0013
613.919	-0.0006
614.194	-0.0004
614.469	0.0005
614.744	-0.0004
615.019	-0.0016
615.293	-0.0009
615.568	-0.0007
615.842	-0.0005
616.116	0.001
616.391	0.0008
616.665	0.0005
616.939	-0.0006
617.213	0.0004
617.488	0.0008
617.762	-0.0008
618.035	-0.0007
618.309	-0.0014
618.583	-0.0004
618.857	0.0007
619.131	0.0001
619.404	0.0006
619.678	0.0005
619.951	-0.001
620.225	-0.0008
620.498	-0
620.771	-0.0006
621.045	-0.0017
621.318	-0.0018
621.591	-0.0021
621.864	-0.0023
622.137	-0.0017
622.41	-0.002
622.683	-0.0008
622.956	-0.0011
623.228	-0.0006
623.501	-0.0001
623.774	0.0003
624.046	-0.0003
624.319	-0.0012
624.591	-0.0016
624.863	-0.0012
625.136	-0
625.408	-0
625.68	0
625.952	0.0008
626.224	0.001
626.496	0.0009
626.768	0.0005
627.04	-0.0009
627.311	-0.0005
627.583	-0.0009
627.855	0.0009
628.126	0.0004
628.398	0.0013
628.669	0.0024
628.941	0.0023
629.212	0.0012
629.483	0.001
629.755	0.0008
630.026	-0.0002
630.297	0.0011
630.568	0.0005
630.839	0.0014
631.11	0.0001
631.38	0.0022
631.651	0.0018
631.922	0.0005
632.192	0.0004
632.463	0
632.733	0.0008
633.004	0.0008
633.274	0.0012
633.545	0.0015
633.815	0.0014
634.085	-0.0012
634.355	-0.0022
634.625	-0.0017
634.895	-0.0006
635.165	-0.0003
635.435	-0.0013
635.705	-0.0017
635.974	-0.0019
636.244	-0.0008
636.514	0.0007
636.783	-0.001
637.053	-0.0007
637.322	0.0004
637.591	0.0003
637.861	-0.0008
638.13	-0.0012
638.399	-0.0011
638.668	-0.0014
638.937	-0.0027
639.206	-0.0024
639.475	-0.0024
639.744	-0.0015
640.013	-0.0006
640.281	-0.0005
640.55	-0
640.819	-0.0005
641.087	0.0001
641.356	0.0014
641.624	0.0029
641.892	0.0021
642.161	0.002
642.429	0.0008
642.697	-0.0005
642.965	0.0005
643.233	-0.0009
643.501	-0.0008
643.769	-0.0009
644.037	-0.0006
644.305	-0.0005
644.572	-0.0004
644.84	-0.0013
645.108	-0.0013
645.375	-0.0019
645.643	-0.0007
645.91	0.0007
646.177	0.0018
646.445	0.0014
646.712	0.0033
646.979	0.0039
647.246	0.0035
647.513	0.0037
647.78	0.0022
648.047	0.0015
648.314	-0.0008
648.58	-0.0002
648.847	0.0006
649.114	0.0015
649.38	0.0001
649.647	0.0001
649.913	0.0004
650.18	0.0006
650.446	-0.0002
650.712	-0.0002
650.978	-0.0004
651.245	-0.0017
651.511	-0
651.777	-0.0004
652.043	-0.0001
652.309	0.0009
652.574	0.0026
652.84	0.002
653.106	0.0024
653.371	0.0014
653.637	0.0019
653.903	0.0025
654.168	0.0028
654.433	0.0034
654.699	0.0039
654.964	0.0041
655.229	0.0029
655.494	0.0019
655.759	-0.0022
656.024	0.0001
656.289	-0
656.554	0.0002
656.819	-0.0002
657.084	0.0008
657.349	0.0013
657.613	0.0009
657.878	0.0002
658.142	0.0001
658.407	0.0005
658.671	0.0002
658.936	0.0009
659.2	0.0009
659.464	0.0007
659.728	0.0009
659.992	0.0001
660.256	0.0002
660.52	-0.0002
660.784	-0.0001
661.048	-0
661.312	-0.0003
661.575	0.0005
661.839	0.0011
662.103	0.0002
662.366	0
662.63	-0.0007
662.893	-0.001
663.156	-0.0005
663.42	-0.0013
663.683	-0.0022
663.946	-0.0026
664.209	-0.0025
664.472	-0.0032
664.735	-0.0021
664.998	-0.0013
665.261	-0.0011
665.524	-0.0015
665.786	-0.0013
666.049	-0.0018
666.312	-0.0003
666.574	-0.0007
666.837	-0.0005
667.099	-0
667.361	0.0006
667.624	-0.0001
667.886	-0.0015
668.148	-0.0012
668.41	0
668.672	-0.001
668.934	0.0006
669.196	0.0006
669.458	0.0012
669.72	0.0012
669.982	0.001
670.243	0.0012
670.505	0.0002
670.766	0.0021
671.028	0.0011
671.289	-0.0007
671.551	-0.0003
671.812	-0.0015
672.073	-0.0002
672.334	-0.0002
672.596	-0.0013
672.857	-0.0013
673.118	-0.0006
673.379	-0.0015
673.639	-0.0023
673.9	-0.0013
674.161	-0.0018
674.422	-0.0018
674.682	-0.0012
674.943	-0.0002
675.203	-0.0004
675.464	-0.0009
675.724	-0.0025
675.985	-0.0017
676.245	-0.002
676.505	-0.0017
676.765	-0.0028
677.025	-0.0013
677.285	-0.0006
677.545	0.0009
677.805	-0.0001
678.065	-0.0001
678.325	0.0005
678.585	0.0002
678.844	-0.0021
679.104	-0.0023
679.363	-0.0026
679.623	-0.0022
679.882	-0.0015
680.142	-0.001
680.401	-0.0015
680.66	-0
680.919	0.0019
681.178	0.0019
681.437	0.0009
681.696	-0.0002
681.955	0.0001
682.214	0.0006
682.473	-0.0005
682.732	-0.0018
682.99	-0.0005
683.249	0.0004
683.508	-0.0006
683.766	-0.001
684.024	-0.0009
684.283	-0.0007
684.541	-0.0015
684.799	-0.0007
685.058	-0.0001
685.316	-0.0008
685.574	-0.0008
685.832	-0.0013
686.09	-0.0013
686.348	-0.003
686.606	-0.0018
686.863	-0.0019
687.121	-0.0002
687.379	-0.0003
687.636	-0.001
687.894	0.0007
688.151	0.0002
688.409	0.0001
688.666	-0.0015
688.923	-0.0015
689.181	-0.0014
689.438	-0.0019
689.695	-0.0015
689.952	-0.0029
690.209	-0.002
690.466	-0.0029
690.723	-0.0015
690.979	-0.001
691.236	-0.0013
691.493	-0.0008
691.75	0.0002
692.006	-0
692.263	-0.0008
692.519	-0.0013
692.775	-0.0003
693.032	-0.0007
693.288	-0
693.544	-0.0003
693.8	-0.0008
694.056	-0.0014
694.313	-0.0013
694.568	-0.0008
694.824	-0.001
695.08	-0.0014
695.336	-0.0027
695.592	-0.0034
695.847	-0.0016
696.103	-0.0014
696.359	-0.0013
696.614	-0.0024
696.869	-0.0022
697.125	-0.0039
697.38	-0.0028
697.635	-0.0015
697.891	-0.0012
698.146	0.0001
698.401	-0.0007
698.656	-0.0009
698.911	-0.0004
699.166	-0.0006
699.42	0.0011
699.675	0.0001
699.93	0.0004
700.185	-0.0006
700.439	-0.0001
700.694	-0.0005
700.948	-0.001
701.203	-0.0008
701.457	-0.002
701.711	-0.0019
701.965	-0.0022
702.22	-0.0022
702.474	-0.0028
702.728	-0.0018
702.982	-0.0028
703.236	-0.0015
703.49	-0.0011
703.743	-0.0023
703.997	-0.0016
704.251	-0.0018
704.504	-0.0019
704.758	-0.003
705.012	-0.0018
705.265	-0.0005
705.518	0.0006
705.772	0.0003
706.025	-0.0002
706.278	-0.0011
706.531	-0.002
706.785	-0.0024
707.038	-0.0027
707.291	-0.0021
707.543	-0.0019
707.796	-0.0021
708.049	-0.0026
708.302	-0.0032
708.555	-0.0033
708.807	-0.0019
709.06	-0.0031
709.312	-0.0022
709.565	-0.0028
709.817	-0.0032
710.069	-0.0036
710.322	-0.0038
710.574	-0.0039
710.826	-0.0041
711.078	-0.0032
711.33	-0.0027
711.582	-0.0035
711.834	-0.004
712.086	-0.0038
712.338	-0.0045
712.59	-0.0034
712.841	-0.0053
713.093	-0.005
713.344	-0.0051
713.596	-0.005
713.847	-0.0025
714.099	-0.0026
714.35	-0.0026
714.601	-0.0032
714.853	-0.0023
715.104	-0.0026
715.355	-0.0026
715.606	-0.0022
715.857	-0.0019
716.108	-0.0017
716.359	-0.0024
716.609	-0.0018
716.86	-0.0026
717.111	-0.0016
717.361	-0.0016
717.612	0
717.863	0.0003
718.113	0.0019
718.363	-0
718.614	0.0024
718.864	0.0022
719.114	0.0012
719.364	0.0015
719.614	0.001
719.865	0.0014
720.114	0.0029
720.364	0.0018
720.614	0.0028
720.864	0.0016
721.114	0.0016
721.364	0.0012
721.613	0.0018
721.863	0.0007
722.112	0.0006
722.362	-0.0004
722.611	-0.0007
722.86	-0.0009
723.11	-0.0003
723.359	-0.0018
723.608	-0.0009
723.857	-0.0007
724.106	0.0002
724.355	0.001
724.604	0.0004
724.853	0
725.102	-0.0009
725.351	-0.001
725.599	-0.0024
725.848	-0.0019
726.097	-0.0013
726.345	-0.0015
726.594	-0.003
726.842	-0.0024
727.09	-0.0044
727.339	-0.0049
727.587	-0.005
727.835	-0.0046
728.083	-0.0042
728.331	-0.0043
728.579	-0.0028
728.827	-0.0024
729.075	-0.0014
729.323	-0.002
729.571	-0.0017
729.818	-0.0015
730.066	-0.0013
730.314	-0.0013
730.561	0.0008
730.809	0.0001
731.056	-0.0004
731.303	0.0008
731.551	-0.0001
731.798	-0
732.045	-0.0005
732.292	0.0005
732.539	0.0004
732.786	0.0015
733.033	0.0001
733.28	0.0001
733.527	-0.0005
733.774	-0.0006
734.021	-0.0018
734.267	-0.0029
734.514	-0.0032
734.76	-0.0037
735.007	-0.0035
735.253	-0.0043
735.5	-0.0039
735.746	-0.0034
735.992	-0.002
736.238	-0.0023
736.485	-0.0011
736.731	-0.001
736.977	-0.0022
737.223	-0.002
737.469	-0.0016
737.715	-0.0011
737.96	-0.0017
738.206	-0.002
738.452	-0.0021
738.697	-0.0013
738.943	-0.0018
739.189	-0.0017
739.434	-0.0012
739.679	-0.0023
739.925	-0.0019
740.17	-0.0028
740.415	-0.0032
740.66	-0.0044
740.906	-0.0035
741.151	-0.0041
741.396	-0.0044
741.641	-0.0046
741.886	-0.0049
742.13	-0.0029
742.375	-0.0023
742.62	-0.0037
742.865	-0.0035
743.109	-0.002
743.354	-0.0011
743.598	-0.0001
743.843	0.0006
744.087	0.001
744.331	0.0019
744.576	0.0018
744.82	0.0037
745.064	0.0032
745.308	0.0039
745.552	0.0024
745.796	0.0009
746.04	0.0008
746.284	0.0001
746.528	0.0017
746.771	0.0023
747.015	0.0029
747.259	0.0023
747.502	0.0011
747.746	0.0005
747.989	0.0013
748.233	0.0001
748.476	0.0012
748.719	0.0017
748.963	0.0034
749.206	0.0031
749.449	0.0012
749.692	0.0013
749.935	0.0022
750.178	0.0002
750.421	-0.0004
750.664	0.0001
750.906	0.0018
751.149	0.0013
751.392	0.0011
751.635	-0.0004
751.877	-0.0005
752.12	-0.0009
752.362	-0.0012
752.604	-0.0013
752.847	0.0006
753.089	0.0014
753.331	0.0024
753.573	0.0011
753.816	-0.0001
754.058	0.0001
754.3	-0.0022
754.542	-0.0016
754.783	-0.0028
755.025	-0.0021
755.267	-0.0014
755.509	-0.0016
755.75	-0.0019
755.992	-0.0013
756.234	-0.002
756.475	-0.0018
756.716	-0.0031
756.958	-0.0024
757.199	-0.0026
757.44	-0.0023
757.682	-0.0021
757.923	-0.0011
758.164	0
758.405	-0.0007
758.646	0.0014
758.887	0.0003
759.128	0.0003
759.369	0
759.609	0.0005
759.85	0.0006
760.091	0.0013
760.331	0.0004
760.572	-0.0013
760.812	-0.001
761.053	-0.0012
761.293	-0.0019
761.533	-0.001
761.774	0.001
762.014	0.0005
762.254	-0.0002
762.494	-0.0019
762.734	-0.0015
762.974	-0.0021
763.214	-0.0023
763.454	-0.0019
763.694	-0.0027
763.933	-0.003
764.173	-0.0049
764.413	-0.0055
764.652	-0.0055
764.892	-0.0047
765.131	-0.0044
765.371	-0.0039
765.61	-0.0038
765.849	-0.0036
766.089	-0.0028
766.328	-0.0015
766.567	-0.0023
766.806	-0.0017
767.045	-0.0013
767.284	-0.0026
767.523	-0.0023
767.762	-0.0033
768.001	-0.0022
768.239	-0.0027
768.478	-0.0016
768.717	-0.0015
768.955	-0.0023
769.194	-0.0019
769.432	0
769.671	0.0002
769.909	0.0004
770.148	0.0002
770.386	0.0008
770.624	0.0018
770.862	0.0023
771.1	0.0024
771.338	0.0027
771.576	0.0014
771.814	0.0023
772.052	0.002
772.29	0.0034
772.528	0.0036
772.765	0.0045
773.003	0.0048
773.24	0.0044
773.478	0.0027
773.716	0.0041
773.953	0.0028
774.19	0.0037
774.428	0.0041
774.665	0.0047
774.902	0.0051
775.139	0.0043
775.376	0.0037
775.613	0.0038
775.85	0.0016
776.087	0.0015
776.324	0.0015
776.561	-0.0001
776.798	0.0006
777.034	0.0002
777.271	0.001
777.508	0.0007
777.744	0.0018
777.981	0.0025
778.217	0.0027
778.454	0.0015
778.69	0.0002
778.926	-0.0006
779.162	-0.0005
779.399	0.0005
779.635	0.0001
779.871	-0
780.107	0.0005
780.343	-0.0001
780.579	0.0005
780.814	0.0003
781.05	0.0007
781.286	-0.0007
781.522	0.0006
781.757	0.0005
781.993	0.0012
782.228	0.0005
782.464	0.0012
782.699	0.0004
782.934	-0.0008
783.17	-0.0003
783.405	-0.0005
783.64	-0.001
783.875	-0.0017
784.11	-0.0023
784.345	-0.0001
784.58	0.0007
784.815	0.0006
785.05	-0.001
785.285	-0.0014
785.52	-0.002
785.754	-0.0028
785.989	-0.0032
786.223	-0.005
786.458	-0.0044
786.692	-0.0036
786.927	-0.0039
787.161	-0.0017
787.396	-0.0027
787.63	-0.0024
787.864	-0.0032
788.098	-0.0043
788.332	-0.0046
788.566	-0.0033
788.8	-0.0039
789.034	-0.0021
789.268	-0.0029
789.502	-0.0021
789.736	-0.002
789.969	-0.002
790.203	-0.0016
790.437	-0.0032
790.67	-0.0037
790.904	-0.0045
791.137	-0.0042
791.37	-0.0052
791.604	-0.007
791.837	-0.006
792.07	-0.0058
792.303	-0.0054
792.537	-0.0059
792.77	-0.006
793.003	-0.0051
793.236	-0.0048
793.469	-0.0055
793.701	-0.0043
793.934	-0.0033
794.167	-0.0026
794.4	-0.0027
794.632	-0.0016
794.865	-0.0017
795.097	-0.0008
795.33	-0.0023
795.562	-0.0013
795.795	-0.0007
796.027	-0.0012
796.259	-0.0012
796.491	-0.0003
796.724	-0.001
796.956	0.0003
797.188	-0.0004
797.42	0.0004
797.652	-0.0003
797.883	0.0003
798.115	0.0013
798.347	0.0016
798.579	0.0028
798.81	0.0036
799.042	0.0042
799.274	0.0024
799.505	0.0016
799.737	0.0014
799.968	0.0005
800.199	-0.0003
800.431	-0.0005
800.662	-0.0001
800.893	-0.0001
801.124	0.0008
801.355	0.0002
801.586	-0.0003
801.817	-0.0005
802.048	-0.0028
802.279	-0.0021
802.51	-0.0012
802.741	-0.0008
802.971	0.0001
803.202	0.0004
803.433	0.0012
803.663	-0.001
803.894	0.0001
804.124	-0.0003
804.354	-0.0001
804.585	0.0001
804.815	0.0013
805.045	0.0002
805.275	0.0005
805.506	-0.0051
805.736	-0.0557
805.966	-0.0922
806.196	-0.0329
