Data from 03 0.5 mM K2Cr2O7 0.3 mM BQDS 1 M H2SO4 5 min_Absorbance_0021.txt Node
Date: Mon Dec 13 19:24:44 EST 2021
User: kwabilab-user
Spectrometer: HDX00518
Trigger mode: 0
Integration Time (sec): 5.000000E-2
Scans to average: 50
Nonlinearity correction enabled: false
Boxcar width: 0
Storing dark spectrum: false
XAxis mode: Wavelengths
Number of Pixels in Spectrum: 2068
>>>>>Begin Spectral Data<<<<<
195.27	0.1073
195.642	0.2344
196.014	0.2071
196.386	0.19
196.758	0.0201
197.129	0.0037
197.501	0.0206
197.872	0.0392
198.244	0.0558
198.615	0.0581
198.986	0.0551
199.357	0.0688
199.728	0.0505
200.099	0.073
200.47	0.0412
200.841	0.0596
201.212	0.0629
201.582	0.0733
201.953	0.0523
202.323	0.0702
202.694	0.0504
203.064	0.0509
203.434	0.0598
203.804	0.0417
204.174	0.0751
204.544	0.061
204.914	0.0583
205.284	0.0894
205.653	0.0752
206.023	0.048
206.393	0.0459
206.762	0.0767
207.131	0.0736
207.501	0.0572
207.87	0.0693
208.239	0.0602
208.608	0.0682
208.977	0.0622
209.346	0.0528
209.715	0.0645
210.083	0.0422
210.452	0.0616
210.82	0.0663
211.189	0.0561
211.557	0.0666
211.925	0.0479
212.294	0.0638
212.662	0.0735
213.03	0.0743
213.398	0.0941
213.766	0.075
214.133	0.0702
214.501	0.1031
214.869	0.0972
215.236	0.0672
215.604	0.069
215.971	0.0773
216.338	0.066
216.705	0.1084
217.072	0.1047
217.439	0.078
217.806	0.0931
218.173	0.1034
218.54	0.1052
218.907	0.1046
219.273	0.1399
219.64	0.1153
220.006	0.1306
220.373	0.1317
220.739	0.1357
221.105	0.1658
221.471	0.1754
221.837	0.1896
222.203	0.2156
222.569	0.2012
222.935	0.2485
223.3	0.2457
223.666	0.2896
224.031	0.3041
224.397	0.3219
224.762	0.3578
225.127	0.3819
225.493	0.4024
225.858	0.4109
226.223	0.456
226.588	0.4623
226.952	0.4872
227.317	0.52
227.682	0.5277
228.046	0.5243
228.411	0.568
228.775	0.5851
229.14	0.5867
229.504	0.6102
229.868	0.6227
230.232	0.6304
230.596	0.6435
230.96	0.6778
231.324	0.6722
231.688	0.6879
232.052	0.7034
232.415	0.706
232.779	0.7129
233.142	0.7449
233.505	0.7335
233.869	0.7309
234.232	0.746
234.595	0.7472
234.958	0.7448
235.321	0.7392
235.684	0.7538
236.047	0.7502
236.409	0.7323
236.772	0.7638
237.134	0.77
237.497	0.7625
237.859	0.7811
238.222	0.7603
238.584	0.7558
238.946	0.7683
239.308	0.7563
239.67	0.7584
240.032	0.7454
240.393	0.7602
240.755	0.7565
241.117	0.7688
241.478	0.7549
241.84	0.7543
242.201	0.7333
242.562	0.7437
242.924	0.7492
243.285	0.7398
243.646	0.75
244.007	0.7477
244.368	0.7483
244.728	0.7359
245.089	0.7442
245.45	0.7323
245.81	0.7333
246.171	0.7429
246.531	0.7359
246.891	0.7335
247.252	0.7282
247.612	0.7287
247.972	0.7348
248.332	0.7426
248.692	0.7396
249.051	0.7376
249.411	0.7403
249.771	0.742
250.13	0.7343
250.49	0.7357
250.849	0.7423
251.208	0.7393
251.568	0.7396
251.927	0.7339
252.286	0.7591
252.645	0.7414
253.004	0.7401
253.363	0.7429
253.721	0.7422
254.08	0.7417
254.439	0.7318
254.797	0.7363
255.155	0.7331
255.514	0.732
255.872	0.7397
256.23	0.7355
256.588	0.7485
256.946	0.7423
257.304	0.7371
257.662	0.7435
258.02	0.7404
258.377	0.7349
258.735	0.7312
259.093	0.7285
259.45	0.7352
259.807	0.7326
260.165	0.7308
260.522	0.7357
260.879	0.7312
261.236	0.7303
261.593	0.7267
261.95	0.7299
262.306	0.7261
262.663	0.7182
263.02	0.7185
263.376	0.7243
263.733	0.7233
264.089	0.7136
264.445	0.7152
264.802	0.7135
265.158	0.7135
265.514	0.7137
265.87	0.7067
266.226	0.7022
266.581	0.7059
266.937	0.707
267.293	0.7055
267.648	0.688
268.004	0.693
268.359	0.6938
268.714	0.6838
269.07	0.6904
269.425	0.6808
269.78	0.6761
270.135	0.6734
270.49	0.6763
270.844	0.6741
271.199	0.6685
271.554	0.6682
271.908	0.6595
272.263	0.6633
272.617	0.6612
272.972	0.6528
273.326	0.6507
273.68	0.6424
274.034	0.6433
274.388	0.6481
274.742	0.6357
275.096	0.6374
275.45	0.6273
275.803	0.6265
276.157	0.6246
276.51	0.6192
276.864	0.6127
277.217	0.6072
277.571	0.6075
277.924	0.5983
278.277	0.5984
278.63	0.5919
278.983	0.5847
279.336	0.5797
279.688	0.5781
280.041	0.5696
280.394	0.5686
280.746	0.5615
281.099	0.5578
281.451	0.5529
281.803	0.5431
282.156	0.5401
282.508	0.5385
282.86	0.5367
283.212	0.5243
283.564	0.5173
283.916	0.5157
284.267	0.5106
284.619	0.5058
284.971	0.5008
285.322	0.4947
285.673	0.4881
286.025	0.4831
286.376	0.4806
286.727	0.4726
287.078	0.4702
287.429	0.4648
287.78	0.4616
288.131	0.4559
288.482	0.4478
288.833	0.4401
289.183	0.4368
289.534	0.4328
289.884	0.4266
290.235	0.4209
290.585	0.4157
290.935	0.4121
291.285	0.4048
291.635	0.3997
291.985	0.3947
292.335	0.3903
292.685	0.3867
293.035	0.3811
293.384	0.3755
293.734	0.3709
294.083	0.3652
294.433	0.3594
294.782	0.3545
295.131	0.3491
295.48	0.3433
295.829	0.3392
296.179	0.3346
296.527	0.3311
296.876	0.3259
297.225	0.3207
297.574	0.3162
297.922	0.3116
298.271	0.3074
298.619	0.3026
298.968	0.2986
299.316	0.2939
299.664	0.2905
300.012	0.2868
300.36	0.2822
300.708	0.2776
301.056	0.2746
301.404	0.2692
301.752	0.2666
302.099	0.2632
302.447	0.26
302.794	0.2565
303.142	0.2532
303.489	0.2484
303.836	0.2471
304.183	0.244
304.531	0.2405
304.878	0.238
305.224	0.2361
305.571	0.2338
305.918	0.2304
306.265	0.2283
306.611	0.226
306.958	0.225
307.304	0.2215
307.651	0.2201
307.997	0.2185
308.343	0.2173
308.689	0.2148
309.035	0.2133
309.381	0.2127
309.727	0.2106
310.073	0.2106
310.419	0.2088
310.764	0.2065
311.11	0.2063
311.455	0.2058
311.801	0.2048
312.146	0.2035
312.491	0.2038
312.837	0.2019
313.182	0.2018
313.527	0.2016
313.872	0.2018
314.216	0.2013
314.561	0.2015
314.906	0.2014
315.251	0.2011
315.595	0.2011
315.94	0.2015
316.284	0.2024
316.628	0.2026
316.972	0.2032
317.317	0.2033
317.661	0.2029
318.005	0.2043
318.348	0.2053
318.692	0.2057
319.036	0.206
319.38	0.2066
319.723	0.2074
320.067	0.2089
320.41	0.2096
320.754	0.2114
321.097	0.2123
321.44	0.2132
321.783	0.2138
322.126	0.2158
322.469	0.2163
322.812	0.2182
323.155	0.2199
323.498	0.2202
323.84	0.2227
324.183	0.2243
324.525	0.2264
324.868	0.2278
325.21	0.2288
325.552	0.2318
325.894	0.2324
326.236	0.2332
326.578	0.2347
326.92	0.2374
327.262	0.2389
327.604	0.2396
327.946	0.2423
328.287	0.2442
328.629	0.2465
328.97	0.2482
329.312	0.2494
329.653	0.2502
329.994	0.2528
330.335	0.2546
330.676	0.2573
331.017	0.2591
331.358	0.2608
331.699	0.2636
332.04	0.2645
332.38	0.2662
332.721	0.2678
333.061	0.2706
333.402	0.2727
333.742	0.2748
334.083	0.2763
334.423	0.2773
334.763	0.2792
335.103	0.2809
335.443	0.2818
335.783	0.2841
336.123	0.2858
336.462	0.2869
336.802	0.2895
337.141	0.2899
337.481	0.2913
337.82	0.2932
338.16	0.2935
338.499	0.2967
338.838	0.2983
339.177	0.2998
339.516	0.3012
339.855	0.3032
340.194	0.3043
340.533	0.3052
340.872	0.3057
341.21	0.3078
341.549	0.3089
341.887	0.3095
342.226	0.3112
342.564	0.3116
342.902	0.3123
343.24	0.3127
343.578	0.3129
343.916	0.3143
344.254	0.3139
344.592	0.3143
344.93	0.3153
345.268	0.3146
345.605	0.3157
345.943	0.3163
346.28	0.3166
346.618	0.3165
346.955	0.3161
347.292	0.3165
347.629	0.3175
347.966	0.3178
348.303	0.3175
348.64	0.3187
348.977	0.3175
349.314	0.3188
349.65	0.3181
349.987	0.3177
350.324	0.319
350.66	0.3181
350.996	0.3167
351.333	0.3156
351.669	0.3158
352.005	0.3148
352.341	0.3131
352.677	0.3127
353.013	0.3124
353.349	0.3114
353.685	0.3094
354.02	0.3083
354.356	0.3062
354.691	0.3054
355.027	0.3041
355.362	0.3033
355.697	0.3019
356.033	0.3003
356.368	0.2994
356.703	0.298
357.038	0.298
357.373	0.2952
357.707	0.2953
358.042	0.2934
358.377	0.2937
358.711	0.2908
359.046	0.2899
359.38	0.2883
359.715	0.2879
360.049	0.2862
360.383	0.2847
360.717	0.283
361.051	0.2809
361.385	0.2802
361.719	0.2769
362.053	0.2754
362.387	0.2728
362.72	0.2702
363.054	0.2684
363.387	0.2675
363.721	0.2644
364.054	0.262
364.387	0.26
364.721	0.258
365.054	0.2554
365.387	0.2531
365.72	0.251
366.053	0.2496
366.385	0.2469
366.718	0.245
367.051	0.2437
367.383	0.2416
367.716	0.2397
368.048	0.2385
368.381	0.2364
368.713	0.2351
369.045	0.2341
369.377	0.2313
369.709	0.2294
370.041	0.2287
370.373	0.2269
370.705	0.2235
371.037	0.2221
371.368	0.2203
371.7	0.2194
372.031	0.2163
372.363	0.2139
372.694	0.2115
373.025	0.2088
373.356	0.2065
373.688	0.2046
374.019	0.2014
374.35	0.1997
374.68	0.1973
375.011	0.1945
375.342	0.1911
375.673	0.1896
376.003	0.1873
376.334	0.1852
376.664	0.1826
376.995	0.1807
377.325	0.1782
377.655	0.1768
377.985	0.1746
378.315	0.1728
378.645	0.1712
378.975	0.1697
379.305	0.1681
379.635	0.1668
379.964	0.1653
380.294	0.1632
380.623	0.162
380.953	0.1596
381.282	0.1582
381.611	0.1564
381.941	0.1544
382.27	0.1529
382.599	0.1504
382.928	0.149
383.257	0.1482
383.585	0.145
383.914	0.1445
384.243	0.1407
384.571	0.1393
384.9	0.1362
385.228	0.1351
385.557	0.1333
385.885	0.1308
386.213	0.1282
386.541	0.1269
386.869	0.1256
387.197	0.1223
387.525	0.1208
387.853	0.1185
388.181	0.1177
388.508	0.1157
388.836	0.1132
389.164	0.1115
389.491	0.1107
389.818	0.1088
390.146	0.1064
390.473	0.106
390.8	0.1044
391.127	0.1024
391.454	0.1011
391.781	0.0999
392.108	0.0988
392.435	0.098
392.761	0.0953
393.088	0.0952
393.415	0.094
393.741	0.0931
394.067	0.0919
394.394	0.091
394.72	0.089
395.046	0.088
395.372	0.0879
395.698	0.0861
396.024	0.085
396.35	0.0842
396.676	0.0825
397.001	0.0816
397.327	0.0806
397.653	0.0788
397.978	0.0775
398.303	0.0767
398.629	0.0746
398.954	0.0743
399.279	0.0734
399.604	0.0725
399.929	0.071
400.254	0.0706
400.579	0.0703
400.904	0.0689
401.229	0.0678
401.553	0.0675
401.878	0.0671
402.202	0.0657
402.527	0.0651
402.851	0.0647
403.175	0.0639
403.5	0.063
403.824	0.0632
404.148	0.0615
404.472	0.0614
404.796	0.061
405.119	0.0603
405.443	0.0599
405.767	0.0593
406.09	0.0592
406.414	0.0589
406.737	0.0578
407.061	0.0581
407.384	0.0581
407.707	0.0578
408.03	0.057
408.353	0.0573
408.676	0.0559
408.999	0.0565
409.322	0.0559
409.645	0.0556
409.968	0.0554
410.29	0.0547
410.613	0.0557
410.935	0.0553
411.258	0.0549
411.58	0.0544
411.902	0.0548
412.224	0.054
412.546	0.0532
412.868	0.0539
413.19	0.0539
413.512	0.0539
413.834	0.053
414.156	0.0534
414.477	0.0532
414.799	0.053
415.121	0.0537
415.442	0.053
415.763	0.0533
416.085	0.0529
416.406	0.054
416.727	0.0533
417.048	0.0529
417.369	0.0526
417.69	0.0522
418.011	0.0522
418.331	0.0524
418.652	0.0527
418.973	0.0529
419.293	0.0528
419.614	0.0528
419.934	0.0531
420.254	0.0528
420.574	0.0534
420.895	0.0527
421.215	0.0529
421.535	0.053
421.855	0.0522
422.174	0.0524
422.494	0.052
422.814	0.0519
423.134	0.0523
423.453	0.0525
423.773	0.0523
424.092	0.0525
424.411	0.0525
424.731	0.0527
425.05	0.052
425.369	0.0519
425.688	0.0525
426.007	0.0523
426.326	0.0527
426.644	0.0522
426.963	0.053
427.282	0.0521
427.6	0.052
427.919	0.0524
428.237	0.0527
428.556	0.0523
428.874	0.0523
429.192	0.0524
429.51	0.0528
429.828	0.0524
430.146	0.0526
430.464	0.052
430.782	0.0522
431.1	0.0525
431.418	0.0522
431.735	0.0521
432.053	0.0524
432.37	0.0523
432.688	0.0526
433.005	0.0524
433.322	0.053
433.639	0.0521
433.957	0.053
434.274	0.0526
434.591	0.0522
434.907	0.0517
435.224	0.0522
435.541	0.0522
435.858	0.0529
436.174	0.0528
436.491	0.0521
436.807	0.0513
437.124	0.0523
437.44	0.0521
437.756	0.0516
438.072	0.0528
438.388	0.0525
438.704	0.052
439.02	0.0523
439.336	0.0513
439.652	0.0506
439.968	0.0509
440.283	0.0499
440.599	0.0506
440.914	0.0512
441.23	0.0515
441.545	0.0515
441.86	0.0505
442.175	0.0507
442.491	0.0523
442.806	0.0505
443.121	0.0509
443.435	0.0507
443.75	0.0504
444.065	0.0506
444.38	0.0504
444.694	0.0506
445.009	0.0504
445.323	0.05
445.638	0.0493
445.952	0.0503
446.266	0.0509
446.58	0.0504
446.894	0.0499
447.208	0.0495
447.522	0.0497
447.836	0.0498
448.15	0.0492
448.464	0.0491
448.777	0.0487
449.091	0.0488
449.404	0.0492
449.718	0.0484
450.031	0.0481
450.345	0.0479
450.658	0.0486
450.971	0.0482
451.284	0.0483
451.597	0.0476
451.91	0.0476
452.223	0.0474
452.535	0.0468
452.848	0.0478
453.161	0.0466
453.473	0.0468
453.786	0.0466
454.098	0.046
454.411	0.0471
454.723	0.0454
455.035	0.0458
455.347	0.0454
455.659	0.045
455.971	0.0459
456.283	0.0446
456.595	0.0442
456.907	0.045
457.218	0.0451
457.53	0.0443
457.841	0.0441
458.153	0.0439
458.464	0.0442
458.776	0.0442
459.087	0.0436
459.398	0.0435
459.709	0.043
460.02	0.0435
460.331	0.0425
460.642	0.043
460.953	0.0428
461.263	0.0417
461.574	0.0411
461.885	0.0411
462.195	0.0411
462.506	0.0418
462.816	0.0399
463.126	0.0407
463.437	0.041
463.747	0.0404
464.057	0.0396
464.367	0.0395
464.677	0.0394
464.987	0.0385
465.296	0.0391
465.606	0.0384
465.916	0.0381
466.225	0.039
466.535	0.0386
466.844	0.0384
467.154	0.0382
467.463	0.0369
467.772	0.0371
468.081	0.0371
468.39	0.0363
468.699	0.0367
469.008	0.0357
469.317	0.0361
469.626	0.0344
469.935	0.0346
470.243	0.0346
470.552	0.035
470.86	0.0345
471.169	0.0346
471.477	0.0336
471.785	0.034
472.093	0.0329
472.402	0.0333
472.71	0.0338
473.018	0.033
473.326	0.0322
473.633	0.0323
473.941	0.0317
474.249	0.031
474.556	0.0327
474.864	0.0319
475.171	0.0311
475.479	0.0307
475.786	0.0306
476.094	0.0304
476.401	0.0303
476.708	0.0299
477.015	0.0301
477.322	0.0294
477.629	0.029
477.936	0.0292
478.242	0.0283
478.549	0.0281
478.856	0.0283
479.162	0.0277
479.469	0.0277
479.775	0.0275
480.081	0.0275
480.388	0.0271
480.694	0.0271
481	0.0264
481.306	0.0273
481.612	0.0262
481.918	0.0256
482.224	0.0254
482.53	0.0254
482.835	0.0249
483.141	0.0253
483.446	0.0246
483.752	0.0244
484.057	0.0239
484.363	0.0235
484.668	0.024
484.973	0.0229
485.278	0.0237
485.583	0.0236
485.888	0.0234
486.193	0.022
486.498	0.0216
486.803	0.0222
487.107	0.0223
487.412	0.021
487.717	0.0213
488.021	0.0204
488.325	0.0216
488.63	0.0212
488.934	0.0203
489.238	0.0213
489.542	0.0185
489.846	0.0203
490.15	0.0199
490.454	0.0186
490.758	0.0196
491.062	0.0185
491.366	0.0194
491.669	0.0185
491.973	0.0186
492.276	0.0181
492.58	0.0182
492.883	0.0169
493.186	0.0179
493.489	0.0167
493.792	0.0155
494.096	0.017
494.399	0.0157
494.701	0.0159
495.004	0.0153
495.307	0.016
495.61	0.0144
495.912	0.0159
496.215	0.0145
496.517	0.0145
496.82	0.015
497.122	0.0136
497.424	0.0143
497.727	0.0135
498.029	0.012
498.331	0.0142
498.633	0.0136
498.935	0.0137
499.237	0.0126
499.538	0.0126
499.84	0.012
500.142	0.0121
500.443	0.0114
500.745	0.0115
501.046	0.0114
501.348	0.0109
501.649	0.0112
501.95	0.0113
502.251	0.0105
502.552	0.0105
502.853	0.01
503.154	0.0101
503.455	0.0106
503.756	0.0103
504.057	0.0103
504.357	0.009
504.658	0.0098
504.958	0.0098
505.259	0.01
505.559	0.0089
505.859	0.0085
506.16	0.0089
506.46	0.0085
506.76	0.0099
507.06	0.0088
507.36	0.0084
507.66	0.0085
507.96	0.0095
508.259	0.0073
508.559	0.0088
508.859	0.0083
509.158	0.007
509.457	0.0081
509.757	0.0075
510.056	0.0077
510.355	0.0075
510.655	0.0067
510.954	0.007
511.253	0.0069
511.552	0.0056
511.851	0.0072
512.149	0.0056
512.448	0.0058
512.747	0.0055
513.045	0.005
513.344	0.005
513.642	0.0058
513.941	0.005
514.239	0.0057
514.537	0.0039
514.836	0.0056
515.134	0.0031
515.432	0.0052
515.73	0.0055
516.028	0.0051
516.326	0.0053
516.623	0.0046
516.921	0.0037
517.219	0.0039
517.516	0.0044
517.814	0.0036
518.111	0.005
518.409	0.0036
518.706	0.0038
519.003	0.0039
519.3	0.0035
519.597	0.0027
519.894	0.0038
520.191	0.0032
520.488	0.0032
520.785	0.0019
521.082	0.0028
521.378	0.0031
521.675	0.0024
521.971	0.0016
522.268	0.0029
522.564	0.0027
522.861	0.0026
523.157	0.0024
523.453	0.0039
523.749	0.0019
524.045	0.0031
524.341	0.0026
524.637	0.0017
524.933	0.0013
525.229	0.002
525.524	0.0007
525.82	0.0017
526.115	0.0012
526.411	0.0016
526.706	0.0031
527.002	0.0023
527.297	0.001
527.592	0.0021
527.887	0.0029
528.182	0.0025
528.477	0.0029
528.772	0.0023
529.067	0.0018
529.362	0.0017
529.657	0.0016
529.951	0.0019
530.246	0.0007
530.54	0.0014
530.835	0.0002
531.129	0.0006
531.423	0.0009
531.718	0.0014
532.012	0.001
532.306	0.0018
532.6	-0.0006
532.894	0.0009
533.188	0.0013
533.482	0.0011
533.775	0.0006
534.069	0.0011
534.363	-0.0002
534.656	-0.0011
534.95	0.0008
535.243	-0.0006
535.536	-0.0002
535.83	-0.0009
536.123	0.0001
536.416	-0.0016
536.709	0.0002
537.002	-0.0003
537.295	-0.0009
537.588	-0.0008
537.881	-0.0002
538.173	0.0008
538.466	0.0005
538.759	-0.0004
539.051	0.0011
539.344	-0.0003
539.636	0.0011
539.928	0.0005
540.22	-0.0004
540.513	-0.0002
540.805	0.0009
541.097	-0.0006
541.389	-0.0004
541.681	0.0008
541.972	0.0014
542.264	0.001
542.556	0.0004
542.847	0.0024
543.139	0.0011
543.431	0.0003
543.722	0.0009
544.013	0.0008
544.305	0.0003
544.596	-0.0004
544.887	0.0007
545.178	0.0008
545.469	-0.0004
545.76	0
546.051	0.0014
546.342	0.001
546.632	-0.0009
546.923	-0.0003
547.214	-0.0002
547.504	-0.0007
547.795	-0.001
548.085	-0.0007
548.375	-0.0013
548.666	-0.0012
548.956	-0.0002
549.246	-0.0001
549.536	-0.0013
549.826	-0.0005
550.116	-0.0005
550.406	-0.0007
550.695	-0.0025
550.985	-0.0006
551.275	-0.0013
551.564	-0.0004
551.854	-0.0002
552.143	-0.0008
552.433	-0.002
552.722	-0.0026
553.011	0.0001
553.3	-0.0007
553.589	-0.0011
553.879	-0.0008
554.167	-0.0007
554.456	0.0013
554.745	0
555.034	-0.0004
555.323	0.0005
555.611	0.0004
555.9	-0.0005
556.188	-0.0017
556.477	-0.0006
556.765	-0.0023
557.053	-0.0011
557.342	-0.0007
557.63	-0.0001
557.918	0.0009
558.206	-0.0003
558.494	0.0005
558.782	-0.0006
559.069	0.0005
559.357	0.0004
559.645	0.0001
559.932	0.0008
560.22	0.0002
560.507	-0.0013
560.795	-0.0016
561.082	-0.0024
561.37	0.0003
561.657	-0.0015
561.944	-0.0014
562.231	-0.0005
562.518	-0.0005
562.805	-0.0001
563.092	0.0003
563.379	0.0006
563.665	0.0003
563.952	-0.0009
564.239	0.0003
564.525	0.0003
564.811	0.0007
565.098	-0.0001
565.384	0.0002
565.67	0.0007
565.957	0.0014
566.243	0.0022
566.529	0
566.815	0.0002
567.101	0.0013
567.387	0.0006
567.672	0.0002
567.958	0.0011
568.244	-0
568.529	0.0002
568.815	0.0002
569.1	-0.0003
569.386	-0.0014
569.671	0.0008
569.956	-0
570.242	-0
570.527	-0.0006
570.812	0.0005
571.097	0
571.382	-0.0002
571.666	0.0008
571.951	0
572.236	0.0005
572.521	0.0007
572.805	-0.0008
573.09	-0.0002
573.374	-0.0004
573.659	-0
573.943	-0.0001
574.227	-0.0005
574.511	-0.0014
574.795	-0.0002
575.079	-0.0001
575.363	-0.0007
575.647	-0.0005
575.931	0.0003
576.215	-0.0009
576.499	-0.0015
576.782	-0.0012
577.066	-0.0003
577.349	-0
577.633	-0.0009
577.916	-0.0005
578.2	-0.0006
578.483	-0.001
578.766	-0.0004
579.049	-0.0007
579.332	0.0005
579.615	0.0002
579.898	-0.0003
580.181	-0.0003
580.464	0.0006
580.746	0
581.029	0.0003
581.312	-0.0008
581.594	-0.0004
581.877	-0.0006
582.159	-0.0005
582.441	-0.0016
582.724	-0.0009
583.006	0.0002
583.288	0
583.57	0.0008
583.852	-0.0003
584.134	0.0002
584.416	0
584.697	0.0002
584.979	-0.0011
585.261	-0.0013
585.542	-0.0014
585.824	-0.0004
586.105	-0.0013
586.387	-0.001
586.668	-0.0008
586.949	-0.0008
587.231	0.0003
587.512	0.0002
587.793	0.0009
588.074	-0.0009
588.355	-0.0006
588.636	-0.0004
588.916	-0.0001
589.197	-0.0006
589.478	-0.0004
589.758	0.0002
590.039	-0.0001
590.319	0.0001
590.6	0.0007
590.88	-0.0001
591.16	0.0006
591.441	0.0008
591.721	0.0005
592.001	-0.0005
592.281	-0.0005
592.561	0.0007
592.841	-0.0008
593.12	-0.0014
593.4	-0.001
593.68	-0.0016
593.959	-0.0011
594.239	-0.0011
594.518	-0.0012
594.798	-0.0006
595.077	-0.0006
595.356	-0.0002
595.636	-0.0013
595.915	-0.0016
596.194	0.0003
596.473	0.0005
596.752	0.0002
597.031	-0.0001
597.31	-0.0002
597.588	-0.0007
597.867	-0.0006
598.146	-0.0006
598.424	-0.0011
598.703	0.0003
598.981	-0.0014
599.259	-0.0013
599.538	-0.0004
599.816	-0.0002
600.094	-0.0011
600.372	-0.0014
600.65	-0.0012
600.928	-0.0007
601.206	-0.0006
601.484	0.0001
601.762	0.0001
602.04	-0.0004
602.317	-0.0002
602.595	-0.0005
602.872	0.0003
603.15	0.0006
603.427	-0.0012
603.704	-0.0017
603.982	-0.0013
604.259	-0.0011
604.536	-0.0003
604.813	-0.0008
605.09	-0.001
605.367	-0.001
605.644	-0.0015
605.921	-0.0008
606.197	-0.0015
606.474	-0.0004
606.751	-0.0003
607.027	-0.0008
607.304	-0.0003
607.58	-0.0012
607.856	-0.0012
608.133	-0.002
608.409	-0.0004
608.685	-0.0006
608.961	-0.0013
609.237	-0.0007
609.513	-0.0011
609.789	-0.0009
610.065	-0.0008
610.341	-0.0014
610.616	-0.0004
610.892	0.0006
611.167	0.0011
611.443	0.0008
611.718	0.0008
611.994	-0.0001
612.269	-0.0007
612.544	0.0001
612.819	-0.0007
613.095	-0.0006
613.37	0.0004
613.645	-0.0016
613.919	-0.0008
614.194	0.0001
614.469	0.001
614.744	0.0003
615.019	-0.0004
615.293	-0.0013
615.568	-0.0003
615.842	-0.0003
616.116	0.0006
616.391	0.0012
616.665	0.0008
616.939	0.0006
617.213	0.0013
617.488	0.0004
617.762	-0.0014
618.035	-0.0006
618.309	-0.0009
618.583	-0.0003
618.857	0.0012
619.131	0.0011
619.404	0.0011
619.678	0.0001
619.951	-0.0006
620.225	0.0003
620.498	-0.0001
620.771	-0.0004
621.045	-0.0009
621.318	-0.0015
621.591	-0.0027
621.864	-0.002
622.137	-0.0014
622.41	-0.0007
622.683	-0.0007
622.956	-0.0005
623.228	-0.0001
623.501	0.0003
623.774	-0.0007
624.046	-0.0009
624.319	-0.0007
624.591	-0.0012
624.863	-0.0011
625.136	0.0002
625.408	0.0003
625.68	-0
625.952	0.0008
626.224	-0.0001
626.496	0.0001
626.768	-0.0005
627.04	-0.0002
627.311	-0.0003
627.583	-0.0002
627.855	0.001
628.126	0.0015
628.398	0.0013
628.669	0.0028
628.941	0.0012
629.212	0.0012
629.483	0.0006
629.755	0.0003
630.026	0.0002
630.297	0.0005
630.568	0.0001
630.839	0.0006
631.11	-0.0001
631.38	0.0007
631.651	0.0011
631.922	0.0006
632.192	-0
632.463	-0.0002
632.733	0.0002
633.004	-0.001
633.274	0.0003
633.545	0.0001
633.815	0.0004
634.085	-0.0017
634.355	-0.0016
634.625	-0.0016
634.895	-0.0016
635.165	-0.0006
635.435	-0.0017
635.705	-0.0003
635.974	-0.0017
636.244	-0.0006
636.514	-0.0001
636.783	-0.0013
637.053	-0.0011
637.322	-0.0006
637.591	-0.0008
637.861	-0.0018
638.13	-0.0016
638.399	-0.0021
638.668	-0.0015
638.937	-0.003
639.206	-0.0029
639.475	-0.0025
639.744	-0.0032
640.013	-0.0015
640.281	-0.0019
640.55	-0.0024
640.819	-0.0019
641.087	-0.0016
641.356	-0.0027
641.624	-0.0017
641.892	-0.0003
642.161	-0
642.429	-0.0012
642.697	-0.0022
642.965	-0.0005
643.233	-0.001
643.501	-0.0012
643.769	-0.0004
644.037	-0.0009
644.305	-0.0021
644.572	-0.0012
644.84	-0.0016
645.108	-0.0028
645.375	-0.003
645.643	-0.0019
645.91	-0.0018
646.177	-0.0011
646.445	-0.002
646.712	-0.0002
646.979	0.0001
647.246	0.0015
647.513	0.002
647.78	0.0008
648.047	-0.0012
648.314	-0.0024
648.58	-0.0018
648.847	-0.0016
649.114	-0.0002
649.38	-0.0009
649.647	-0.0013
649.913	-0.0017
650.18	-0.0016
650.446	-0.0007
650.712	-0.0011
650.978	-0.002
651.245	-0.0024
651.511	-0.0017
651.777	-0.0015
652.043	-0.0025
652.309	-0.0018
652.574	-0.0007
652.84	-0.0002
653.106	-0.0005
653.371	0.0002
653.637	0.0003
653.903	0.0007
654.168	0.001
654.433	0.0014
654.699	0.0007
654.964	0.0022
655.229	0.0011
655.494	-0.0003
655.759	-0.0022
656.024	-0.0005
656.289	-0
656.554	-0.0006
656.819	-0.0013
657.084	-0.0008
657.349	-0.0004
657.613	0.0002
657.878	0.0002
658.142	-0.001
658.407	-0.0009
658.671	-0.0003
658.936	0.0005
659.2	-0.0005
659.464	-0.0006
659.728	-0.0008
659.992	-0.0019
660.256	-0.0011
660.52	-0.0024
660.784	-0.0017
661.048	-0.0013
661.312	-0.0006
661.575	-0.0004
661.839	0.0002
662.103	-0.001
662.366	-0.0004
662.63	-0.0013
662.893	-0.0017
663.156	-0.0017
663.42	-0.0017
663.683	-0.0023
663.946	-0.0026
664.209	-0.0027
664.472	-0.0033
664.735	-0.0026
664.998	-0.0014
665.261	-0.0025
665.524	-0.0018
665.786	-0.0018
666.049	-0.0018
666.312	-0.0019
666.574	-0.0023
666.837	-0.0021
667.099	-0.0014
667.361	-0.0021
667.624	-0.0014
667.886	-0.0018
668.148	-0.002
668.41	-0.0016
668.672	-0.0026
668.934	-0.0016
669.196	-0.001
669.458	0.0003
669.72	0.0007
669.982	-0.0004
670.243	0.0013
670.505	0.0004
670.766	-0.0003
671.028	-0.001
671.289	-0.0022
671.551	-0.001
671.812	-0.0031
672.073	-0.0018
672.334	-0.0027
672.596	-0.0031
672.857	-0.0029
673.118	-0.0019
673.379	-0.0028
673.639	-0.0033
673.9	-0.0026
674.161	-0.0021
674.422	-0.003
674.682	-0.0023
674.943	-0.0028
675.203	-0.0037
675.464	-0.0028
675.724	-0.0045
675.985	-0.004
676.245	-0.0037
676.505	-0.0032
676.765	-0.0036
677.025	-0.0032
677.285	-0.0029
677.545	-0.002
677.805	-0.002
678.065	-0.0016
678.325	-0.0017
678.585	-0.0023
678.844	-0.0033
679.104	-0.0033
679.363	-0.0035
679.623	-0.003
679.882	-0.0022
680.142	-0.0021
680.401	-0.0025
680.66	-0.0018
680.919	-0.0009
681.178	-0.0016
681.437	-0.0009
681.696	-0.0018
681.955	-0.0013
682.214	-0.0011
682.473	-0.0019
682.732	-0.003
682.99	-0.0024
683.249	-0.0019
683.508	-0.002
683.766	-0.002
684.024	-0.0026
684.283	-0.0009
684.541	-0.0019
684.799	-0.002
685.058	-0.0013
685.316	-0.0036
685.574	-0.0027
685.832	-0.0037
686.09	-0.0032
686.348	-0.005
686.606	-0.0043
686.863	-0.0039
687.121	-0.0031
687.379	-0.0019
687.636	-0.0021
687.894	-0.0023
688.151	-0.0016
688.409	-0.0026
688.666	-0.002
688.923	-0.0029
689.181	-0.003
689.438	-0.0038
689.695	-0.0031
689.952	-0.0039
690.209	-0.0034
690.466	-0.0035
690.723	-0.0035
690.979	-0.0028
691.236	-0.0033
691.493	-0.0018
691.75	-0.0022
692.006	-0.0027
692.263	-0.0035
692.519	-0.0036
692.775	-0.0034
693.032	-0.0029
693.288	-0.0031
693.544	-0.0013
693.8	-0.0027
694.056	-0.0022
694.313	-0.0026
694.568	-0.0022
694.824	-0.0032
695.08	-0.003
695.336	-0.0047
695.592	-0.0037
695.847	-0.0028
696.103	-0.0034
696.359	-0.0036
696.614	-0.0038
696.869	-0.004
697.125	-0.0047
697.38	-0.0037
697.635	-0.0029
697.891	-0.0025
698.146	-0.002
698.401	-0.0022
698.656	-0.0033
698.911	-0.0026
699.166	-0.0021
699.42	-0.0015
699.675	-0.0025
699.93	-0.0018
700.185	-0.0025
700.439	-0.0025
700.694	-0.0024
700.948	-0.0022
701.203	-0.0031
701.457	-0.0036
701.711	-0.0042
701.965	-0.0044
702.22	-0.0046
702.474	-0.0051
702.728	-0.0041
702.982	-0.0036
703.236	-0.0021
703.49	-0.0016
703.743	-0.0017
703.997	-0.0018
704.251	-0.0021
704.504	-0.0026
704.758	-0.0024
705.012	-0.0023
705.265	-0.0023
705.518	-0.0012
705.772	-0.0014
706.025	-0.0007
706.278	-0.0014
706.531	-0.0018
706.785	-0.0014
707.038	-0.0024
707.291	-0.0029
707.543	-0.0019
707.796	-0.0026
708.049	-0.0037
708.302	-0.0039
708.555	-0.0051
708.807	-0.0039
709.06	-0.0049
709.312	-0.0044
709.565	-0.0043
709.817	-0.0048
710.069	-0.0057
710.322	-0.0053
710.574	-0.0059
710.826	-0.0045
711.078	-0.005
711.33	-0.0035
711.582	-0.006
711.834	-0.0052
712.086	-0.0056
712.338	-0.0056
712.59	-0.0052
712.841	-0.0058
713.093	-0.0049
713.344	-0.0049
713.596	-0.005
713.847	-0.0041
714.099	-0.0046
714.35	-0.0047
714.601	-0.0045
714.853	-0.0032
715.104	-0.0036
715.355	-0.0035
715.606	-0.0037
715.857	-0.0032
716.108	-0.0044
716.359	-0.0043
716.609	-0.0043
716.86	-0.0042
717.111	-0.0041
717.361	-0.0039
717.612	-0.0028
717.863	-0.0022
718.113	-0.0015
718.363	-0.0026
718.614	-0.0009
718.864	-0.0005
719.114	-0.0005
719.364	-0.0006
719.614	-0.0007
719.865	-0.0007
720.114	0
720.364	-0
720.614	0.0006
720.864	0.0001
721.114	-0.001
721.364	-0.0011
721.613	-0.001
721.863	-0.002
722.112	-0.0022
722.362	-0.0021
722.611	-0.0027
722.86	-0.0024
723.11	-0.002
723.359	-0.0024
723.608	-0.0017
723.857	-0.0023
724.106	-0.0011
724.355	-0.0015
724.604	-0.0014
724.853	-0.0015
725.102	-0.0033
725.351	-0.0025
725.599	-0.0038
725.848	-0.0026
726.097	-0.0022
726.345	-0.0022
726.594	-0.0038
726.842	-0.0033
727.09	-0.0043
727.339	-0.0045
727.587	-0.0051
727.835	-0.0055
728.083	-0.0044
728.331	-0.005
728.579	-0.0039
728.827	-0.0041
729.075	-0.0031
729.323	-0.0033
729.571	-0.0038
729.818	-0.0029
730.066	-0.0034
730.314	-0.0029
730.561	-0.0019
730.809	-0.001
731.056	-0.0013
731.303	-0.0005
731.551	-0.0011
731.798	-0.0013
732.045	-0.0015
732.292	0.0001
732.539	-0.0001
732.786	0.0006
733.033	-0.0006
733.28	-0.0005
733.527	-0.0004
733.774	-0.0015
734.021	-0.0032
734.267	-0.0031
734.514	-0.0032
734.76	-0.0033
735.007	-0.0027
735.253	-0.003
735.5	-0.0028
735.746	-0.0032
735.992	-0.0019
736.238	-0.0027
736.485	-0.0011
736.731	-0.002
736.977	-0.0027
737.223	-0.0015
737.469	-0.0017
737.715	-0.0014
737.96	-0.0023
738.206	-0.0031
738.452	-0.0027
738.697	-0.002
738.943	-0.0016
739.189	-0.0023
739.434	-0.0018
739.679	-0.0024
739.925	-0.0028
740.17	-0.004
740.415	-0.0045
740.66	-0.0051
740.906	-0.0047
741.151	-0.0038
741.396	-0.0044
741.641	-0.0038
741.886	-0.0037
742.13	-0.0019
742.375	-0.0016
742.62	-0.0026
742.865	-0.0024
743.109	-0.0008
743.354	0.0002
743.598	-0
743.843	0.0004
744.087	0.0006
744.331	0.0003
744.576	0.0005
744.82	0.001
745.064	0.0011
745.308	0.0021
745.552	0.0023
745.796	0.0013
746.04	0.0014
746.284	0.0005
746.528	0.0016
746.771	0.0022
747.015	0.002
747.259	0.0011
747.502	0.0002
747.746	-0.0012
747.989	-0.0007
748.233	-0.0012
748.476	0.0004
748.719	0.0004
748.963	0.0013
749.206	0.0014
749.449	-0.0003
749.692	-0.0002
749.935	0.0005
750.178	-0.0005
750.421	-0.0002
750.664	0.0001
750.906	0.0012
751.149	0.0013
751.392	0.0008
751.635	-0.0001
751.877	0.0001
752.12	-0.0005
752.362	-0.0013
752.604	-0.0005
752.847	0.0013
753.089	0.0015
753.331	0.0023
753.573	0.0017
753.816	-0.0002
754.058	-0.0015
754.3	-0.0033
754.542	-0.0027
754.783	-0.0046
755.025	-0.0036
755.267	-0.0029
755.509	-0.0032
755.75	-0.0033
755.992	-0.003
756.234	-0.004
756.475	-0.0041
756.716	-0.0032
756.958	-0.0022
757.199	-0.0015
757.44	-0.0006
757.682	-0.0009
757.923	-0
758.164	0.0007
758.405	0.0005
758.646	0.0017
758.887	0.0022
759.128	0.002
759.369	0.0011
759.609	0.0014
759.85	0.001
760.091	0.0018
760.331	0.0013
760.572	-0.0005
760.812	-0.0007
761.053	-0.0011
761.293	-0.0001
761.533	-0.0001
761.774	0.0015
762.014	0.0018
762.254	0.0021
762.494	0.0003
762.734	0.0006
762.974	0.0001
763.214	0.0004
763.454	-0.0007
763.694	-0.0012
763.933	-0.0021
764.173	-0.0037
764.413	-0.0039
764.652	-0.0036
764.892	-0.003
765.131	-0.0033
765.371	-0.0028
765.61	-0.003
765.849	-0.003
766.089	-0.0026
766.328	-0.0027
766.567	-0.0033
766.806	-0.0034
767.045	-0.0022
767.284	-0.0028
767.523	-0.003
767.762	-0.0036
768.001	-0.0029
768.239	-0.0027
768.478	-0.0026
768.717	-0.0029
768.955	-0.0024
769.194	-0.003
769.432	-0.0009
769.671	-0.0009
769.909	-0.0003
770.148	-0.0003
770.386	0.0008
770.624	0.0011
770.862	0.0015
771.1	0.0021
771.338	0.0018
771.576	0.0004
771.814	0.0008
772.052	0.0016
772.29	0.0018
772.528	0.0038
772.765	0.0044
773.003	0.0047
773.24	0.0053
773.478	0.0022
773.716	0.0031
773.953	0.0015
774.19	0.0009
774.428	0.0031
774.665	0.0023
774.902	0.0031
775.139	0.0026
775.376	0.0025
775.613	0.0025
775.85	0.0024
776.087	0.0016
776.324	0.0016
776.561	0.0011
776.798	0.0007
777.034	0.0005
777.271	0.0013
777.508	0.0021
777.744	0.0021
777.981	0.003
778.217	0.0031
778.454	0.0018
778.69	0.0011
778.926	0.0008
779.162	0.0008
779.399	0.0006
779.635	0.0011
779.871	0.0011
780.107	0.0004
780.343	-0.0005
780.579	0.0004
780.814	-0.0005
781.05	0.0003
781.286	-0.0013
781.522	-0.0008
781.757	-0.0009
781.993	-0.0009
782.228	-0.0011
782.464	-0.0002
782.699	-0.0015
782.934	-0.0021
783.17	-0.0009
783.405	-0.0017
783.64	-0.0025
783.875	-0.0031
784.11	-0.0024
784.345	-0.0025
784.58	-0.0011
784.815	-0.001
785.05	-0.0021
785.285	-0.0023
785.52	-0.0024
785.754	-0.0024
785.989	-0.0023
786.223	-0.0033
786.458	-0.0039
786.692	-0.0025
786.927	-0.0021
787.161	-0.0014
787.396	-0.0023
787.63	-0.0031
787.864	-0.004
788.098	-0.0052
788.332	-0.0045
788.566	-0.005
788.8	-0.0046
789.034	-0.0032
789.268	-0.0034
789.502	-0.0023
789.736	-0.002
789.969	-0.0024
790.203	-0.0033
790.437	-0.003
790.67	-0.0045
790.904	-0.0059
791.137	-0.0062
791.37	-0.0064
791.604	-0.0081
791.837	-0.0072
792.07	-0.0065
792.303	-0.0054
792.537	-0.0048
792.77	-0.0056
793.003	-0.0048
793.236	-0.0033
793.469	-0.0034
793.701	-0.0019
793.934	-0.002
794.167	-0.0013
794.4	-0.0014
794.632	-0.0006
794.865	-0.0007
795.097	-0.0005
795.33	-0.0021
795.562	-0.0012
795.795	-0.0005
796.027	-0.0003
796.259	-0.0001
796.491	-0.0003
796.724	-0.0001
796.956	0.0004
797.188	0.0004
797.42	-0.0001
797.652	-0.0011
797.883	-0.0008
798.115	-0.0004
798.347	-0.0008
798.579	0.0002
798.81	-0.0002
799.042	-0.0002
799.274	-0.0006
799.505	-0.0006
799.737	0.0002
799.968	-0.0015
800.199	-0.0017
800.431	-0.0024
800.662	-0.0019
800.893	-0.003
801.124	-0.0028
801.355	-0.0033
801.586	-0.0029
801.817	-0.0037
802.048	-0.004
802.279	-0.0042
802.51	-0.0023
802.741	-0.0022
802.971	-0.0011
803.202	-0.0009
803.433	-0.0021
803.663	-0.0034
803.894	-0.0042
804.124	-0.0051
804.354	-0.0048
804.585	-0.0044
804.815	-0.004
805.045	-0.0037
805.275	-0.0032
805.506	-0.0742
805.736	0.0626
805.966	0.301
806.196	0.0445
