Data from 03 0.5 mM K2Cr2O7 0.3 mM BQDS 1 M H2SO4 5 min_Absorbance_0014.txt Node
Date: Mon Dec 13 18:49:44 EST 2021
User: kwabilab-user
Spectrometer: HDX00518
Trigger mode: 0
Integration Time (sec): 5.000000E-2
Scans to average: 50
Nonlinearity correction enabled: false
Boxcar width: 0
Storing dark spectrum: false
XAxis mode: Wavelengths
Number of Pixels in Spectrum: 2068
>>>>>Begin Spectral Data<<<<<
195.27	0.0771
195.642	0.2016
196.014	0.0351
196.386	0.1677
196.758	-0.0253
197.129	-0.003
197.501	-0.0096
197.872	0.0026
198.244	0.0455
198.615	0.0763
198.986	0.0617
199.357	0.0774
199.728	0.0603
200.099	0.0682
200.47	0.0332
200.841	0.0514
201.212	0.0622
201.582	0.0787
201.953	0.0599
202.323	0.0616
202.694	0.036
203.064	0.0398
203.434	0.0499
203.804	0.0409
204.174	0.0569
204.544	0.0412
204.914	0.0611
205.284	0.0553
205.653	0.0378
206.023	0.0455
206.393	0.0457
206.762	0.0645
207.131	0.066
207.501	0.0348
207.87	0.0626
208.239	0.0608
208.608	0.0566
208.977	0.0369
209.346	0.0387
209.715	0.0622
210.083	0.0289
210.452	0.0506
210.82	0.0742
211.189	0.0141
211.557	0.0522
211.925	0.0226
212.294	0.0533
212.662	0.0565
213.03	0.0564
213.398	0.0788
213.766	0.0813
214.133	0.068
214.501	0.061
214.869	0.0679
215.236	0.0771
215.604	0.066
215.971	0.0844
216.338	0.0797
216.705	0.09
217.072	0.0951
217.439	0.0639
217.806	0.0864
218.173	0.0802
218.54	0.0929
218.907	0.0908
219.273	0.1097
219.64	0.1087
220.006	0.1197
220.373	0.1165
220.739	0.1581
221.105	0.1379
221.471	0.1717
221.837	0.195
222.203	0.2184
222.569	0.2212
222.935	0.2447
223.3	0.2456
223.666	0.301
224.031	0.314
224.397	0.329
224.762	0.3389
225.127	0.3972
225.493	0.3862
225.858	0.4246
226.223	0.4649
226.588	0.4699
226.952	0.5005
227.317	0.504
227.682	0.5171
228.046	0.5192
228.411	0.5445
228.775	0.5946
229.14	0.5964
229.504	0.6052
229.868	0.6454
230.232	0.6256
230.596	0.6547
230.96	0.6974
231.324	0.6787
231.688	0.6938
232.052	0.6964
232.415	0.6965
232.779	0.7285
233.142	0.7455
233.505	0.7404
233.869	0.753
234.232	0.7521
234.595	0.7334
234.958	0.7623
235.321	0.7439
235.684	0.7614
236.047	0.7611
236.409	0.7516
236.772	0.7635
237.134	0.7614
237.497	0.7716
237.859	0.781
238.222	0.7765
238.584	0.7708
238.946	0.764
239.308	0.7675
239.67	0.7654
240.032	0.7615
240.393	0.7653
240.755	0.7629
241.117	0.7623
241.478	0.7703
241.84	0.7732
242.201	0.7617
242.562	0.7574
242.924	0.7564
243.285	0.7543
243.646	0.763
244.007	0.7541
244.368	0.7607
244.728	0.7531
245.089	0.7525
245.45	0.7646
245.81	0.7616
246.171	0.7522
246.531	0.7519
246.891	0.7504
247.252	0.7479
247.612	0.7418
247.972	0.7617
248.332	0.7598
248.692	0.7531
249.051	0.7543
249.411	0.7612
249.771	0.7399
250.13	0.7448
250.49	0.7456
250.849	0.7513
251.208	0.756
251.568	0.7541
251.927	0.7545
252.286	0.7558
252.645	0.7531
253.004	0.7564
253.363	0.7564
253.721	0.7542
254.08	0.7557
254.439	0.7526
254.797	0.7453
255.155	0.7496
255.514	0.7539
255.872	0.7514
256.23	0.746
256.588	0.753
256.946	0.7503
257.304	0.7514
257.662	0.7583
258.02	0.7484
258.377	0.7572
258.735	0.7541
259.093	0.7486
259.45	0.7422
259.807	0.7507
260.165	0.7501
260.522	0.7477
260.879	0.7477
261.236	0.7476
261.593	0.7401
261.95	0.7441
262.306	0.7459
262.663	0.7375
263.02	0.7352
263.376	0.7408
263.733	0.7389
264.089	0.7318
264.445	0.7292
264.802	0.729
265.158	0.7341
265.514	0.7299
265.87	0.7269
266.226	0.7258
266.581	0.7346
266.937	0.7289
267.293	0.7231
267.648	0.7138
268.004	0.7162
268.359	0.7041
268.714	0.7044
269.07	0.71
269.425	0.7041
269.78	0.6995
270.135	0.6995
270.49	0.6999
270.844	0.6977
271.199	0.6962
271.554	0.6917
271.908	0.681
272.263	0.6909
272.617	0.6799
272.972	0.6708
273.326	0.6722
273.68	0.6686
274.034	0.6676
274.388	0.6689
274.742	0.6643
275.096	0.6582
275.45	0.6534
275.803	0.648
276.157	0.6461
276.51	0.6402
276.864	0.6361
277.217	0.6374
277.571	0.632
277.924	0.6287
278.277	0.6219
278.63	0.6166
278.983	0.611
279.336	0.6057
279.688	0.6029
280.041	0.5997
280.394	0.5977
280.746	0.5918
281.099	0.5863
281.451	0.5796
281.803	0.5721
282.156	0.571
282.508	0.5625
282.86	0.5606
283.212	0.5539
283.564	0.5483
283.916	0.5448
284.267	0.5404
284.619	0.5332
284.971	0.5307
285.322	0.5252
285.673	0.5165
286.025	0.514
286.376	0.5068
286.727	0.4991
287.078	0.4984
287.429	0.4913
287.78	0.4863
288.131	0.4798
288.482	0.4745
288.833	0.4689
289.183	0.4632
289.534	0.4579
289.884	0.454
290.235	0.4467
290.585	0.4416
290.935	0.4366
291.285	0.4296
291.635	0.4243
291.985	0.4194
292.335	0.4162
292.685	0.409
293.035	0.4051
293.384	0.3972
293.734	0.3949
294.083	0.3887
294.433	0.3843
294.782	0.3789
295.131	0.3723
295.48	0.3663
295.829	0.3604
296.179	0.3557
296.527	0.3521
296.876	0.3463
297.225	0.3426
297.574	0.3359
297.922	0.3331
298.271	0.3261
298.619	0.3219
298.968	0.3176
299.316	0.3123
299.664	0.3079
300.012	0.304
300.36	0.3003
300.708	0.2957
301.056	0.2921
301.404	0.288
301.752	0.2852
302.099	0.2805
302.447	0.2774
302.794	0.274
303.142	0.2691
303.489	0.2676
303.836	0.2634
304.183	0.2612
304.531	0.2575
304.878	0.2548
305.224	0.253
305.571	0.2493
305.918	0.2463
306.265	0.2446
306.611	0.242
306.958	0.2401
307.304	0.2374
307.651	0.2362
307.997	0.2339
308.343	0.2316
308.689	0.2306
309.035	0.2279
309.381	0.2272
309.727	0.2257
310.073	0.2237
310.419	0.2234
310.764	0.2215
311.11	0.2201
311.455	0.2204
311.801	0.2193
312.146	0.2181
312.491	0.2175
312.837	0.2167
313.182	0.2158
313.527	0.2155
313.872	0.2153
314.216	0.2155
314.561	0.2151
314.906	0.2153
315.251	0.2152
315.595	0.2155
315.94	0.2151
316.284	0.2152
316.628	0.2155
316.972	0.2169
317.317	0.2177
317.661	0.2168
318.005	0.2175
318.348	0.219
318.692	0.2197
319.036	0.2192
319.38	0.2202
319.723	0.221
320.067	0.2226
320.41	0.2226
320.754	0.2249
321.097	0.2259
321.44	0.2265
321.783	0.2275
322.126	0.2293
322.469	0.2302
322.812	0.2315
323.155	0.2331
323.498	0.2337
323.84	0.2363
324.183	0.2377
324.525	0.2399
324.868	0.242
325.21	0.2416
325.552	0.2435
325.894	0.2452
326.236	0.2477
326.578	0.2486
326.92	0.2505
327.262	0.2521
327.604	0.2544
327.946	0.2556
328.287	0.2578
328.629	0.2599
328.97	0.2618
329.312	0.2632
329.653	0.2649
329.994	0.2667
330.335	0.2688
330.676	0.271
331.017	0.2732
331.358	0.2745
331.699	0.277
332.04	0.2789
332.38	0.2804
332.721	0.2826
333.061	0.2852
333.402	0.2873
333.742	0.2893
334.083	0.2896
334.423	0.292
334.763	0.2937
335.103	0.2948
335.443	0.2965
335.783	0.2987
336.123	0.2999
336.462	0.3015
336.802	0.3045
337.141	0.3055
337.481	0.3059
337.82	0.3073
338.16	0.3091
338.499	0.3109
338.838	0.3122
339.177	0.3143
339.516	0.3163
339.855	0.3172
340.194	0.3181
340.533	0.3204
340.872	0.3207
341.21	0.3226
341.549	0.3232
341.887	0.3247
342.226	0.3254
342.564	0.3272
342.902	0.3274
343.24	0.3272
343.578	0.3277
343.916	0.3287
344.254	0.3289
344.592	0.3293
344.93	0.3298
345.268	0.3301
345.605	0.33
345.943	0.3309
346.28	0.3313
346.618	0.332
346.955	0.3317
347.292	0.3315
347.629	0.3317
347.966	0.3327
348.303	0.333
348.64	0.3332
348.977	0.3321
349.314	0.3333
349.65	0.333
349.987	0.3331
350.324	0.3327
350.66	0.3325
350.996	0.3315
351.333	0.3305
351.669	0.3315
352.005	0.3298
352.341	0.3285
352.677	0.328
353.013	0.3265
353.349	0.3254
353.685	0.3242
354.02	0.323
354.356	0.3209
354.691	0.3194
355.027	0.3193
355.362	0.318
355.697	0.3168
356.033	0.3158
356.368	0.3141
356.703	0.3129
357.038	0.312
357.373	0.3102
357.707	0.3098
358.042	0.3077
358.377	0.3073
358.711	0.3062
359.046	0.3052
359.38	0.3042
359.715	0.3022
360.049	0.3003
360.383	0.3
360.717	0.2974
361.051	0.2961
361.385	0.2933
361.719	0.2911
362.053	0.2893
362.387	0.2871
362.72	0.2843
363.054	0.2823
363.387	0.2803
363.721	0.2779
364.054	0.2757
364.387	0.2732
364.721	0.2708
365.054	0.2685
365.387	0.2665
365.72	0.2637
366.053	0.2631
366.385	0.2601
366.718	0.2575
367.051	0.2563
367.383	0.2547
367.716	0.2528
368.048	0.2513
368.381	0.2499
368.713	0.2474
369.045	0.2464
369.377	0.2437
369.709	0.2428
370.041	0.2415
370.373	0.2383
370.705	0.2366
371.037	0.2346
371.368	0.233
371.7	0.2308
372.031	0.2275
372.363	0.2255
372.694	0.2232
373.025	0.2205
373.356	0.2178
373.688	0.2151
374.019	0.2126
374.35	0.2103
374.68	0.2075
375.011	0.2054
375.342	0.2022
375.673	0.2008
376.003	0.1975
376.334	0.196
376.664	0.1928
376.995	0.1906
377.325	0.1876
377.655	0.1871
377.985	0.1851
378.315	0.1835
378.645	0.1817
378.975	0.1797
379.305	0.1776
379.635	0.1769
379.964	0.1759
380.294	0.1722
380.623	0.1715
380.953	0.1691
381.282	0.1679
381.611	0.1657
381.941	0.1638
382.27	0.1622
382.599	0.16
382.928	0.1578
383.257	0.1559
383.585	0.1543
383.914	0.1523
384.243	0.1496
384.571	0.1482
384.9	0.1452
385.228	0.144
385.557	0.1414
385.885	0.1389
386.213	0.137
386.541	0.1351
386.869	0.1329
387.197	0.1307
387.525	0.1283
387.853	0.1259
388.181	0.1253
388.508	0.123
388.836	0.1203
389.164	0.1188
389.491	0.1174
389.818	0.1156
390.146	0.115
390.473	0.1129
390.8	0.1111
391.127	0.1093
391.454	0.1079
391.781	0.1069
392.108	0.1055
392.435	0.1034
392.761	0.1026
393.088	0.1016
393.415	0.1008
393.741	0.0998
394.067	0.0986
394.394	0.0969
394.72	0.0959
395.046	0.0945
395.372	0.0936
395.698	0.0926
396.024	0.0911
396.35	0.0901
396.676	0.0884
397.001	0.0876
397.327	0.086
397.653	0.0849
397.978	0.0826
398.303	0.0829
398.629	0.0805
398.954	0.0793
399.279	0.079
399.604	0.0774
399.929	0.0768
400.254	0.0762
400.579	0.0754
400.904	0.0742
401.229	0.073
401.553	0.0726
401.878	0.0719
402.202	0.0702
402.527	0.0701
402.851	0.0693
403.175	0.0685
403.5	0.0677
403.824	0.0674
404.148	0.0672
404.472	0.066
404.796	0.0656
405.119	0.0649
405.443	0.0645
405.767	0.0634
406.09	0.0634
406.414	0.0631
406.737	0.0624
407.061	0.0624
407.384	0.062
407.707	0.0613
408.03	0.0611
408.353	0.0609
408.676	0.0601
408.999	0.06
409.322	0.0604
409.645	0.0593
409.968	0.0598
410.29	0.0596
410.613	0.0593
410.935	0.059
411.258	0.0585
411.58	0.058
411.902	0.0579
412.224	0.0582
412.546	0.0578
412.868	0.0571
413.19	0.0573
413.512	0.0572
413.834	0.0564
414.156	0.0567
414.477	0.0573
414.799	0.0561
415.121	0.0568
415.442	0.0567
415.763	0.0565
416.085	0.0562
416.406	0.0568
416.727	0.0563
417.048	0.0555
417.369	0.0558
417.69	0.0557
418.011	0.0551
418.331	0.0563
418.652	0.0562
418.973	0.0557
419.293	0.0561
419.614	0.0559
419.934	0.0561
420.254	0.0562
420.574	0.0562
420.895	0.056
421.215	0.0551
421.535	0.0554
421.855	0.055
422.174	0.0552
422.494	0.0553
422.814	0.0552
423.134	0.055
423.453	0.0551
423.773	0.0558
424.092	0.0551
424.411	0.0551
424.731	0.055
425.05	0.055
425.369	0.0552
425.688	0.0557
426.007	0.0549
426.326	0.0547
426.644	0.0551
426.963	0.0553
427.282	0.0548
427.6	0.055
427.919	0.0547
428.237	0.0548
428.556	0.0556
428.874	0.0554
429.192	0.0559
429.51	0.0566
429.828	0.0551
430.146	0.0557
430.464	0.0547
430.782	0.0549
431.1	0.0554
431.418	0.0552
431.735	0.0551
432.053	0.0558
432.37	0.0552
432.688	0.0554
433.005	0.0551
433.322	0.0551
433.639	0.0549
433.957	0.0557
434.274	0.0551
434.591	0.0553
434.907	0.0548
435.224	0.0551
435.541	0.0547
435.858	0.0549
436.174	0.0558
436.491	0.0546
436.807	0.0539
437.124	0.055
437.44	0.0549
437.756	0.0541
438.072	0.0552
438.388	0.0552
438.704	0.0543
439.02	0.0553
439.336	0.0539
439.652	0.0538
439.968	0.0542
440.283	0.0534
440.599	0.0532
440.914	0.055
441.23	0.054
441.545	0.0536
441.86	0.0533
442.175	0.0531
442.491	0.0537
442.806	0.0531
443.121	0.0534
443.435	0.0527
443.75	0.0529
444.065	0.0529
444.38	0.0526
444.694	0.0531
445.009	0.0528
445.323	0.0524
445.638	0.052
445.952	0.0526
446.266	0.0532
446.58	0.0524
446.894	0.0528
447.208	0.0523
447.522	0.0525
447.836	0.0521
448.15	0.0512
448.464	0.0517
448.777	0.0513
449.091	0.0513
449.404	0.0511
449.718	0.0505
450.031	0.0504
450.345	0.0504
450.658	0.0499
450.971	0.0508
451.284	0.051
451.597	0.0498
451.91	0.0496
452.223	0.0501
452.535	0.0492
452.848	0.0504
453.161	0.0486
453.473	0.0496
453.786	0.0487
454.098	0.0481
454.411	0.0493
454.723	0.0488
455.035	0.0481
455.347	0.0477
455.659	0.0473
455.971	0.0477
456.283	0.0474
456.595	0.0475
456.907	0.0471
457.218	0.0466
457.53	0.0462
457.841	0.0466
458.153	0.0466
458.464	0.0466
458.776	0.0467
459.087	0.0458
459.398	0.0462
459.709	0.0452
460.02	0.0453
460.331	0.0443
460.642	0.0448
460.953	0.0439
461.263	0.0445
461.574	0.0435
461.885	0.0436
462.195	0.0429
462.506	0.0435
462.816	0.0432
463.126	0.0433
463.437	0.0425
463.747	0.0416
464.057	0.0416
464.367	0.0421
464.677	0.0412
464.987	0.0411
465.296	0.0407
465.606	0.0403
465.916	0.04
466.225	0.0406
466.535	0.0404
466.844	0.04
467.154	0.0396
467.463	0.0385
467.772	0.039
468.081	0.0388
468.39	0.0388
468.699	0.0383
469.008	0.0371
469.317	0.0371
469.626	0.0364
469.935	0.0366
470.243	0.0366
470.552	0.0366
470.86	0.0367
471.169	0.0356
471.477	0.0358
471.785	0.0357
472.093	0.0361
472.402	0.035
472.71	0.0351
473.018	0.0345
473.326	0.0336
473.633	0.0342
473.941	0.0346
474.249	0.0336
474.556	0.0343
474.864	0.033
475.171	0.0324
475.479	0.0324
475.786	0.0328
476.094	0.0322
476.401	0.0318
476.708	0.0315
477.015	0.0313
477.322	0.0313
477.629	0.0305
477.936	0.0311
478.242	0.0294
478.549	0.0298
478.856	0.0297
479.162	0.0293
479.469	0.0297
479.775	0.0294
480.081	0.0295
480.388	0.0285
480.694	0.0278
481	0.0278
481.306	0.027
481.612	0.0276
481.918	0.0269
482.224	0.0263
482.53	0.0269
482.835	0.0271
483.141	0.0267
483.446	0.0266
483.752	0.026
484.057	0.0257
484.363	0.0249
484.668	0.0251
484.973	0.0245
485.278	0.0246
485.583	0.0248
485.888	0.0244
486.193	0.023
486.498	0.023
486.803	0.0238
487.107	0.0229
487.412	0.0224
487.717	0.023
488.021	0.0219
488.325	0.0233
488.63	0.0227
488.934	0.0216
489.238	0.0215
489.542	0.0207
489.846	0.021
490.15	0.0215
490.454	0.0204
490.758	0.0202
491.062	0.0205
491.366	0.0202
491.669	0.019
491.973	0.0195
492.276	0.0188
492.58	0.0188
492.883	0.0183
493.186	0.0185
493.489	0.0183
493.792	0.017
494.096	0.0171
494.399	0.0172
494.701	0.0175
495.004	0.0154
495.307	0.0181
495.61	0.0156
495.912	0.0167
496.215	0.0149
496.517	0.0157
496.82	0.0156
497.122	0.0143
497.424	0.016
497.727	0.0154
498.029	0.0139
498.331	0.015
498.633	0.0153
498.935	0.0151
499.237	0.0143
499.538	0.0135
499.84	0.0127
500.142	0.0128
500.443	0.0121
500.745	0.0118
501.046	0.0125
501.348	0.0123
501.649	0.0107
501.95	0.0118
502.251	0.0116
502.552	0.011
502.853	0.0108
503.154	0.0107
503.455	0.0113
503.756	0.011
504.057	0.0116
504.357	0.01
504.658	0.0102
504.958	0.0113
505.259	0.0102
505.559	0.009
505.859	0.0096
506.16	0.0091
506.46	0.0095
506.76	0.01
507.06	0.0099
507.36	0.0088
507.66	0.0089
507.96	0.0095
508.259	0.0093
508.559	0.0094
508.859	0.009
509.158	0.0092
509.457	0.0072
509.757	0.0087
510.056	0.0087
510.355	0.0078
510.655	0.0077
510.954	0.0078
511.253	0.0071
511.552	0.0071
511.851	0.0078
512.149	0.0066
512.448	0.0073
512.747	0.0075
513.045	0.0066
513.344	0.0057
513.642	0.0057
513.941	0.0059
514.239	0.0059
514.537	0.0043
514.836	0.006
515.134	0.0039
515.432	0.0066
515.73	0.0057
516.028	0.0056
516.326	0.0055
516.623	0.0048
516.921	0.0037
517.219	0.0044
517.516	0.0047
517.814	0.0047
518.111	0.0041
518.409	0.0029
518.706	0.0043
519.003	0.0046
519.3	0.0043
519.597	0.0032
519.894	0.005
520.191	0.0035
520.488	0.0046
520.785	0.002
521.082	0.0039
521.378	0.0029
521.675	0.0029
521.971	0.0022
522.268	0.0032
522.564	0.0033
522.861	0.0035
523.157	0.0037
523.453	0.0042
523.749	0.0025
524.045	0.0031
524.341	0.0025
524.637	0.0021
524.933	0.0027
525.229	0.0019
525.524	0.0016
525.82	0.0013
526.115	0.0004
526.411	0.0013
526.706	0.0017
527.002	0.0027
527.297	0.0013
527.592	0.002
527.887	0.0032
528.182	0.0019
528.477	0.0026
528.772	0.0026
529.067	0.0023
529.362	0.0015
529.657	0.0025
529.951	0.0024
530.246	0.0008
530.54	0.0015
530.835	0.0009
531.129	0.0012
531.423	0.0011
531.718	0.0013
532.012	0.0007
532.306	0.0002
532.6	-0.0004
532.894	0.0007
533.188	0.0009
533.482	0.0004
533.775	0.0009
534.069	0
534.363	-0.0008
534.656	-0.0002
534.95	0.0005
535.243	0.0003
535.536	0.0013
535.83	-0.0008
536.123	-0.0002
536.416	0.0006
536.709	-0.0006
537.002	-0.0004
537.295	-0.0004
537.588	-0.0007
537.881	-0.0001
538.173	0.0002
538.466	-0.0003
538.759	0.0009
539.051	0.0002
539.344	-0.0004
539.636	0.0007
539.928	0.0008
540.22	0.0011
540.513	0.0006
540.805	0.0015
541.097	-0.0012
541.389	-0.0002
541.681	0.0003
541.972	0.0017
542.264	0.0015
542.556	0.0007
542.847	0.0012
543.139	0.0005
543.431	0.0008
543.722	0.0008
544.013	0.0018
544.305	-0.0001
544.596	0.0006
544.887	0.0007
545.178	0.0008
545.469	-0.0003
545.76	-0.0003
546.051	0.0009
546.342	-0.0006
546.632	-0.0006
546.923	0.0004
547.214	0.0004
547.504	-0.0017
547.795	-0.0009
548.085	-0.0009
548.375	-0.0006
548.666	-0.0014
548.956	-0.0016
549.246	-0.0002
549.536	0.0004
549.826	-0.0003
550.116	-0.0003
550.406	-0.0013
550.695	-0.0015
550.985	-0.0002
551.275	0.0002
551.564	-0.0005
551.854	-0.0002
552.143	-0.0016
552.433	-0.0018
552.722	-0.0013
553.011	0.0003
553.3	-0.0007
553.589	-0.0002
553.879	0.0001
554.167	-0.0005
554.456	0.0006
554.745	-0
555.034	-0.0007
555.323	0.0006
555.611	0.0005
555.9	0.0001
556.188	-0.0011
556.477	-0.0004
556.765	-0.0013
557.053	-0.0018
557.342	0.0006
557.63	-0.001
557.918	0
558.206	0.0005
558.494	0.0001
558.782	-0.0003
559.069	0
559.357	0
559.645	-0.0008
559.932	-0.0001
560.22	-0.001
560.507	-0.0016
560.795	-0.0016
561.082	-0.0013
561.37	-0.0004
561.657	-0.0013
561.944	-0.001
562.231	-0.0007
562.518	0.0006
562.805	0
563.092	-0.0004
563.379	-0.0001
563.665	-0
563.952	-0.0003
564.239	-0.0002
564.525	-0.0003
564.811	0.0008
565.098	-0.0001
565.384	-0.0016
565.67	0.0002
565.957	0.001
566.243	0.0015
566.529	0.0005
566.815	0.0003
567.101	0.0014
567.387	0.0001
567.672	0.0004
567.958	0.0007
568.244	0.0005
568.529	0.0002
568.815	-0.0005
569.1	-0.0012
569.386	-0.0012
569.671	0.0011
569.956	-0.0002
570.242	-0.0004
570.527	-0.0005
570.812	-0.0002
571.097	-0
571.382	-0.0001
571.666	0.0002
571.951	0.0001
572.236	0.0008
572.521	0.0003
572.805	-0.0001
573.09	0
573.374	-0.0005
573.659	0.0004
573.943	-0.0007
574.227	-0.0002
574.511	-0.0008
574.795	-0.0002
575.079	-0
575.363	-0.0008
575.647	-0.0003
575.931	0
576.215	-0.0011
576.499	-0.0016
576.782	-0.001
577.066	-0.0002
577.349	-0.0005
577.633	-0.001
577.916	-0.0006
578.2	-0.0002
578.483	-0.0006
578.766	0.0002
579.049	-0.0001
579.332	0.0001
579.615	0.0001
579.898	0.0002
580.181	0.0003
580.464	0.001
580.746	0.0003
581.029	-0.0001
581.312	-0.0004
581.594	-0.0007
581.877	-0.0002
582.159	-0.0007
582.441	-0.001
582.724	-0.0008
583.006	0.0006
583.288	0.0004
583.57	0.0006
583.852	0.0001
584.134	-0.0001
584.416	-0.0003
584.697	-0.0001
584.979	-0.001
585.261	-0.0012
585.542	-0.001
585.824	-0.0006
586.105	-0.001
586.387	-0.0011
586.668	-0.001
586.949	0.0003
587.231	-0
587.512	0.0001
587.793	0.0001
588.074	-0.0009
588.355	0
588.636	-0.001
588.916	-0.0001
589.197	-0.0007
589.478	-0.001
589.758	-0.0001
590.039	0.0002
590.319	-0.0002
590.6	0.0001
590.88	0.0001
591.16	0.0008
591.441	0.0007
591.721	-0.0004
592.001	-0.0006
592.281	-0.0002
592.561	-0.0002
592.841	-0.0006
593.12	-0.0015
593.4	-0.0009
593.68	-0.0013
593.959	-0.0015
594.239	-0.0016
594.518	-0.0008
594.798	-0.0005
595.077	-0.0012
595.356	-0.0015
595.636	-0.001
595.915	-0.0007
596.194	0.0001
596.473	-0.0006
596.752	-0.0004
597.031	-0.0004
597.31	-0.0006
597.588	-0.0004
597.867	0
598.146	-0.0006
598.424	-0.0008
598.703	-0.0003
598.981	-0.0016
599.259	-0.001
599.538	-0.0007
599.816	-0.0002
600.094	-0.0008
600.372	-0.0013
600.65	-0.0017
600.928	-0.0015
601.206	-0.0007
601.484	-0
601.762	0
602.04	-0.0009
602.317	-0.0009
602.595	0.0003
602.872	-0.0007
603.15	0.0005
603.427	-0.0017
603.704	-0.0006
603.982	-0.0005
604.259	-0.0007
604.536	-0.0001
604.813	-0.0004
605.09	-0.0011
605.367	-0.0013
605.644	-0.0014
605.921	-0.0014
606.197	-0.0013
606.474	-0.0011
606.751	-0.0008
607.027	-0.0006
607.304	-0.0006
607.58	-0.0008
607.856	-0.0014
608.133	-0.0017
608.409	-0.0002
608.685	-0.0014
608.961	-0.0012
609.237	-0.001
609.513	-0.0009
609.789	-0.0009
610.065	-0.0012
610.341	-0.0007
610.616	-0.0003
610.892	0.0002
611.167	0.0007
611.443	0.0003
611.718	0.0003
611.994	-0.0003
612.269	-0.001
612.544	-0.0012
612.819	-0.0008
613.095	-0.0015
613.37	-0.0002
613.645	-0.0002
613.919	-0.0014
614.194	-0.0005
614.469	0.0002
614.744	-0
615.019	-0.001
615.293	-0.0013
615.568	-0.0012
615.842	-0.0007
616.116	0.0003
616.391	0.0005
616.665	-0
616.939	0.0001
617.213	0.0008
617.488	0.0001
617.762	-0.0015
618.035	-0.0007
618.309	-0.0014
618.583	0
618.857	0.0001
619.131	-0.0002
619.404	0.0005
619.678	0.0001
619.951	-0.0009
620.225	-0.0007
620.498	-0.001
620.771	-0.0008
621.045	-0.0017
621.318	-0.0023
621.591	-0.0031
621.864	-0.0022
622.137	-0.0026
622.41	-0.0017
622.683	-0.0012
622.956	-0.0011
623.228	-0.0006
623.501	-0.0007
623.774	-0.0005
624.046	-0.0004
624.319	-0.0012
624.591	-0.0015
624.863	-0.0012
625.136	0.0002
625.408	0.0001
625.68	0
625.952	-0.0005
626.224	-0.0005
626.496	-0.0005
626.768	-0.0007
627.04	-0.001
627.311	-0.0008
627.583	-0.0008
627.855	0.0009
628.126	0.0004
628.398	0.0018
628.669	0.0012
628.941	0.0012
629.212	0.0008
629.483	0.0007
629.755	-0.0006
630.026	-0.0004
630.297	0.0007
630.568	0.0003
630.839	0
631.11	-0.0007
631.38	0.0004
631.651	0.0013
631.922	0.0005
632.192	-0.0007
632.463	-0.0011
632.733	-0.0015
633.004	-0.0001
633.274	-0.0001
633.545	-0.0003
633.815	-0.0004
634.085	-0.0016
634.355	-0.002
634.625	-0.0023
634.895	-0.0014
635.165	-0.0012
635.435	-0.0026
635.705	-0.0017
635.974	-0.0024
636.244	-0.0013
636.514	-0.0007
636.783	-0.0017
637.053	-0.0021
637.322	-0.0016
637.591	-0.0015
637.861	-0.0027
638.13	-0.0016
638.399	-0.0027
638.668	-0.0022
638.937	-0.003
639.206	-0.0037
639.475	-0.0032
639.744	-0.004
640.013	-0.0029
640.281	-0.0028
640.55	-0.0025
640.819	-0.0024
641.087	-0.0029
641.356	-0.0026
641.624	-0.002
641.892	-0.0015
642.161	-0.0019
642.429	-0.0013
642.697	-0.002
642.965	-0.0006
643.233	-0.0015
643.501	-0.0025
643.769	-0.0017
644.037	-0.0007
644.305	-0.0021
644.572	-0.0023
644.84	-0.0028
645.108	-0.0026
645.375	-0.0034
645.643	-0.003
645.91	-0.0017
646.177	-0.0019
646.445	-0.0021
646.712	0.001
646.979	-0.0003
647.246	0.0008
647.513	0.0021
647.78	0.0008
648.047	-0.0014
648.314	-0.003
648.58	-0.0024
648.847	-0.0022
649.114	-0.0005
649.38	-0.001
649.647	-0.0021
649.913	-0.0021
650.18	-0.0015
650.446	-0.0015
650.712	-0.0031
650.978	-0.0033
651.245	-0.0036
651.511	-0.002
651.777	-0.0019
652.043	-0.0025
652.309	-0.002
652.574	-0.0008
652.84	-0.0006
653.106	-0.0004
653.371	0.0001
653.637	0.0002
653.903	-0.0001
654.168	0.0008
654.433	0.0016
654.699	0.001
654.964	0.0024
655.229	0.0008
655.494	-0.0011
655.759	-0.0031
656.024	-0.0004
656.289	-0
656.554	0.0005
656.819	-0.0019
657.084	-0.0005
657.349	-0.0009
657.613	-0.0006
657.878	-0.0004
658.142	-0.0014
658.407	-0.0015
658.671	0
658.936	-0.0001
659.2	-0.0007
659.464	-0.0006
659.728	-0.0006
659.992	-0.0021
660.256	-0.0008
660.52	-0.0016
660.784	-0.0018
661.048	-0.0013
661.312	-0.0007
661.575	0.0001
661.839	0.0003
662.103	-0.0007
662.366	-0.001
662.63	-0.002
662.893	-0.0018
663.156	-0.0022
663.42	-0.0021
663.683	-0.0029
663.946	-0.003
664.209	-0.0028
664.472	-0.0036
664.735	-0.0023
664.998	-0.0023
665.261	-0.0019
665.524	-0.0024
665.786	-0.0026
666.049	-0.0026
666.312	-0.0017
666.574	-0.0024
666.837	-0.0021
667.099	-0.0009
667.361	-0.0027
667.624	-0.002
667.886	-0.0029
668.148	-0.0027
668.41	-0.0021
668.672	-0.0026
668.934	-0.0017
669.196	-0.001
669.458	-0.0002
669.72	0.0009
669.982	0.0002
670.243	0.0001
670.505	-0.0004
670.766	-0.0005
671.028	-0.0009
671.289	-0.0029
671.551	-0.0026
671.812	-0.0033
672.073	-0.0021
672.334	-0.0022
672.596	-0.0029
672.857	-0.0031
673.118	-0.0028
673.379	-0.0038
673.639	-0.0025
673.9	-0.0028
674.161	-0.003
674.422	-0.004
674.682	-0.0036
674.943	-0.0036
675.203	-0.004
675.464	-0.0039
675.724	-0.0041
675.985	-0.0042
676.245	-0.0048
676.505	-0.0047
676.765	-0.0035
677.025	-0.0042
677.285	-0.0039
677.545	-0.003
677.805	-0.0022
678.065	-0.0018
678.325	-0.0011
678.585	-0.0029
678.844	-0.0034
679.104	-0.0033
679.363	-0.0048
679.623	-0.0039
679.882	-0.003
680.142	-0.0033
680.401	-0.0034
680.66	-0.0029
680.919	-0.0012
681.178	-0.0013
681.437	-0.002
681.696	-0.0017
681.955	-0.0018
682.214	-0.0014
682.473	-0.0024
682.732	-0.0035
682.99	-0.0028
683.249	-0.0023
683.508	-0.0019
683.766	-0.0026
684.024	-0.0025
684.283	-0.0015
684.541	-0.0022
684.799	-0.0005
685.058	-0.0009
685.316	-0.0029
685.574	-0.0026
685.832	-0.0029
686.09	-0.0032
686.348	-0.0045
686.606	-0.0045
686.863	-0.0049
687.121	-0.0037
687.379	-0.0022
687.636	-0.0031
687.894	-0.0022
688.151	-0.0015
688.409	-0.0013
688.666	-0.0023
688.923	-0.0035
689.181	-0.0033
689.438	-0.0033
689.695	-0.0035
689.952	-0.0044
690.209	-0.0038
690.466	-0.0042
690.723	-0.0035
690.979	-0.003
691.236	-0.003
691.493	-0.0025
691.75	-0.0016
692.006	-0.003
692.263	-0.0028
692.519	-0.0041
692.775	-0.0028
693.032	-0.0029
693.288	-0.0025
693.544	-0.0015
693.8	-0.0018
694.056	-0.0021
694.313	-0.0027
694.568	-0.0018
694.824	-0.0028
695.08	-0.003
695.336	-0.0035
695.592	-0.0038
695.847	-0.0017
696.103	-0.0029
696.359	-0.0031
696.614	-0.0038
696.869	-0.0036
697.125	-0.0048
697.38	-0.0026
697.635	-0.003
697.891	-0.0023
698.146	-0.0016
698.401	-0.0029
698.656	-0.0032
698.911	-0.0026
699.166	-0.0026
699.42	-0.0014
699.675	-0.0019
699.93	-0.0018
700.185	-0.0025
700.439	-0.0025
700.694	-0.0028
700.948	-0.0033
701.203	-0.0033
701.457	-0.0044
701.711	-0.0046
701.965	-0.0047
702.22	-0.0047
702.474	-0.0052
702.728	-0.0036
702.982	-0.0042
703.236	-0.0024
703.49	-0.0022
703.743	-0.002
703.997	-0.0011
704.251	-0.0031
704.504	-0.0027
704.758	-0.0028
705.012	-0.0024
705.265	-0.0021
705.518	-0.0023
705.772	-0.0021
706.025	-0.0023
706.278	-0.0026
706.531	-0.0026
706.785	-0.0029
707.038	-0.0029
707.291	-0.0031
707.543	-0.003
707.796	-0.0042
708.049	-0.0039
708.302	-0.0041
708.555	-0.0054
708.807	-0.0043
709.06	-0.005
709.312	-0.0036
709.565	-0.0047
709.817	-0.005
710.069	-0.005
710.322	-0.0053
710.574	-0.0058
710.826	-0.0051
711.078	-0.0049
711.33	-0.005
711.582	-0.005
711.834	-0.0052
712.086	-0.0063
712.338	-0.0064
712.59	-0.0061
712.841	-0.007
713.093	-0.0059
713.344	-0.0053
713.596	-0.0057
713.847	-0.0044
714.099	-0.0047
714.35	-0.0044
714.601	-0.0044
714.853	-0.0034
715.104	-0.0049
715.355	-0.0043
715.606	-0.0039
715.857	-0.0042
716.108	-0.0051
716.359	-0.0039
716.609	-0.0046
716.86	-0.0042
717.111	-0.0042
717.361	-0.0042
717.612	-0.003
717.863	-0.0023
718.113	-0.0016
718.363	-0.0014
718.614	-0.0004
718.864	-0.0007
719.114	-0.0018
719.364	-0.001
719.614	-0.0012
719.865	-0.0002
720.114	0.0002
720.364	-0.0006
720.614	0.0003
720.864	-0.0002
721.114	-0.0003
721.364	-0.0003
721.613	-0.0011
721.863	-0.0013
722.112	-0.0014
722.362	-0.0023
722.611	-0.0025
722.86	-0.0025
723.11	-0.0022
723.359	-0.0027
723.608	-0.0018
723.857	-0.0017
724.106	-0.0012
724.355	-0.0013
724.604	-0.0017
724.853	-0.0011
725.102	-0.0028
725.351	-0.0026
725.599	-0.0036
725.848	-0.0035
726.097	-0.0024
726.345	-0.0031
726.594	-0.0045
726.842	-0.004
727.09	-0.0053
727.339	-0.006
727.587	-0.0056
727.835	-0.0052
728.083	-0.0054
728.331	-0.0052
728.579	-0.004
728.827	-0.0036
729.075	-0.0038
729.323	-0.0034
729.571	-0.0038
729.818	-0.003
730.066	-0.0031
730.314	-0.0033
730.561	-0.0018
730.809	-0.0015
731.056	-0.0012
731.303	-0.0004
731.551	-0.0012
731.798	-0.0017
732.045	-0.0016
732.292	-0.0004
732.539	-0.0005
732.786	0.0007
733.033	-0.0002
733.28	0
733.527	-0.0007
733.774	-0.0011
734.021	-0.0026
734.267	-0.0031
734.514	-0.0039
734.76	-0.0034
735.007	-0.0031
735.253	-0.0032
735.5	-0.0034
735.746	-0.0035
735.992	-0.0026
736.238	-0.0031
736.485	-0.0026
736.731	-0.0022
736.977	-0.0028
737.223	-0.0021
737.469	-0.0025
737.715	-0.0019
737.96	-0.003
738.206	-0.0036
738.452	-0.0036
738.697	-0.0037
738.943	-0.003
739.189	-0.003
739.434	-0.0021
739.679	-0.0035
739.925	-0.0037
740.17	-0.0055
740.415	-0.0058
740.66	-0.0072
740.906	-0.0062
741.151	-0.0057
741.396	-0.0068
741.641	-0.0067
741.886	-0.0058
742.13	-0.004
742.375	-0.0036
742.62	-0.004
742.865	-0.004
743.109	-0.0013
743.354	-0.0012
743.598	-0.0003
743.843	-0.0008
744.087	-0.0001
744.331	-0.0007
744.576	0.0003
744.82	0.001
745.064	0.0009
745.308	0.0008
745.552	0.0015
745.796	-0.0005
746.04	0.0002
746.284	-0
746.528	-0
746.771	0.0016
747.015	0.0017
747.259	0.0007
747.502	-0.0012
747.746	-0.001
747.989	-0.0014
748.233	-0.0022
748.476	-0.0011
748.719	-0.0008
748.963	0.001
749.206	-0.0004
749.449	-0.0012
749.692	-0.0009
749.935	-0.0007
750.178	-0.0013
750.421	-0.0016
750.664	-0.0012
750.906	0.0006
751.149	-0.0005
751.392	-0.0001
751.635	-0.0013
751.877	-0.001
752.12	-0.0012
752.362	-0.0023
752.604	-0.0021
752.847	0.0002
753.089	0.0009
753.331	0.0005
753.573	-0.0002
753.816	-0.0018
754.058	-0.002
754.3	-0.0033
754.542	-0.0037
754.783	-0.0043
755.025	-0.0036
755.267	-0.0026
755.509	-0.0038
755.75	-0.0032
755.992	-0.0033
756.234	-0.0041
756.475	-0.0036
756.716	-0.0034
756.958	-0.0026
757.199	-0.002
757.44	-0.0022
757.682	-0.002
757.923	-0.0008
758.164	-0.0002
758.405	-0.0009
758.646	0.0005
758.887	0
759.128	0.0003
759.369	-0.001
759.609	0.0004
759.85	0.0004
760.091	0.0001
760.331	-0.0007
760.572	-0.0018
760.812	-0.0012
761.053	-0.0021
761.293	-0.0006
761.533	-0.0008
761.774	0.0013
762.014	0.0004
762.254	0.0004
762.494	-0
762.734	0.0002
762.974	-0.0021
763.214	-0.0005
763.454	-0.0012
763.694	-0.0017
763.933	-0.0024
764.173	-0.004
764.413	-0.0048
764.652	-0.0047
764.892	-0.0039
765.131	-0.0039
765.371	-0.0036
765.61	-0.004
765.849	-0.0038
766.089	-0.0034
766.328	-0.0031
766.567	-0.004
766.806	-0.0038
767.045	-0.0023
767.284	-0.0031
767.523	-0.0029
767.762	-0.0034
768.001	-0.0031
768.239	-0.0029
768.478	-0.002
768.717	-0.0023
768.955	-0.002
769.194	-0.0017
769.432	-0.0004
769.671	-0.0001
769.909	0.0003
770.148	0.0004
770.386	0.0002
770.624	0.0006
770.862	0.0009
771.1	0.0014
771.338	0.0007
771.576	-0.0007
771.814	0.0008
772.052	0.0011
772.29	0.0021
772.528	0.0027
772.765	0.0033
773.003	0.0036
773.24	0.0034
773.478	0.0021
773.716	0.0021
773.953	0.0014
774.19	0.0015
774.428	0.0022
774.665	0.0021
774.902	0.0027
775.139	0.0022
775.376	0.0019
775.613	0.0026
775.85	0.002
776.087	0.0015
776.324	0.0014
776.561	0.0004
776.798	0.0002
777.034	0.0006
777.271	0.0009
777.508	0.0011
777.744	0.0019
777.981	0.003
778.217	0.0022
778.454	0.0016
778.69	0.0005
778.926	-0.0006
779.162	-0.0003
779.399	-0.0008
779.635	-0.0011
779.871	-0.0003
780.107	-0.0016
780.343	-0.0022
780.579	-0.0011
780.814	-0.0017
781.05	-0.0008
781.286	-0.002
781.522	-0.0018
781.757	-0.0014
781.993	-0.0021
782.228	-0.0023
782.464	-0.0013
782.699	-0.0024
782.934	-0.0031
783.17	-0.0032
783.405	-0.0026
783.64	-0.0032
783.875	-0.0034
784.11	-0.0042
784.345	-0.0033
784.58	-0.0025
784.815	-0.002
785.05	-0.0032
785.285	-0.0041
785.52	-0.0033
785.754	-0.0036
785.989	-0.0033
786.223	-0.0059
786.458	-0.0049
786.692	-0.0042
786.927	-0.0042
787.161	-0.0035
787.396	-0.0044
787.63	-0.0041
787.864	-0.0049
788.098	-0.0058
788.332	-0.0052
788.566	-0.0047
788.8	-0.0047
789.034	-0.0039
789.268	-0.0039
789.502	-0.0021
789.736	-0.0021
789.969	-0.0027
790.203	-0.0038
790.437	-0.0048
790.67	-0.0058
790.904	-0.007
791.137	-0.008
791.37	-0.0072
791.604	-0.009
791.837	-0.0079
792.07	-0.0071
792.303	-0.0069
792.537	-0.0065
792.77	-0.0066
793.003	-0.0061
793.236	-0.0058
793.469	-0.0055
793.701	-0.0039
793.934	-0.0033
794.167	-0.0022
794.4	-0.0025
794.632	-0.0018
794.865	-0.0019
795.097	-0.0013
795.33	-0.0026
795.562	-0.0014
795.795	-0.0008
796.027	-0.0005
796.259	-0.0005
796.491	-0.0003
796.724	-0.0009
796.956	0.0006
797.188	-0.0005
797.42	-0.0005
797.652	-0.0008
797.883	-0.001
798.115	-0.0003
798.347	-0.0009
798.579	0.0001
798.81	0.0006
799.042	0.0004
799.274	0.0004
799.505	-0.0004
799.737	-0.0004
799.968	-0.0009
800.199	-0.0017
800.431	-0.0025
800.662	-0.0025
800.893	-0.003
801.124	-0.0031
801.355	-0.003
801.586	-0.0029
801.817	-0.0035
802.048	-0.0052
802.279	-0.0039
802.51	-0.0035
802.741	-0.0019
802.971	-0.0009
803.202	-0.0004
803.433	-0.0013
803.663	-0.0029
803.894	-0.0037
804.124	-0.005
804.354	-0.004
804.585	-0.0044
804.815	-0.0043
805.045	-0.0041
805.275	-0.0036
805.506	-0.049
805.736	-0.0102
805.966	-0.0183
806.196	0.0481
