Data from 03 0.5 mM K2Cr2O7 0.3 mM BQDS 1 M H2SO4 5 min_Absorbance_0139.txt Node
Date: Tue Dec 14 05:14:44 EST 2021
User: kwabilab-user
Spectrometer: HDX00518
Trigger mode: 0
Integration Time (sec): 5.000000E-2
Scans to average: 50
Nonlinearity correction enabled: false
Boxcar width: 0
Storing dark spectrum: false
XAxis mode: Wavelengths
Number of Pixels in Spectrum: 2068
>>>>>Begin Spectral Data<<<<<
195.27	-0.0189
195.642	-0.1335
196.014	-0.0707
196.386	0.0586
196.758	-0.0176
197.129	-0.0278
197.501	-0.0043
197.872	0.0064
198.244	0.01
198.615	0.0247
198.986	0.0146
199.357	0.034
199.728	0.0272
200.099	0.0287
200.47	0.0192
200.841	0.0322
201.212	0.0289
201.582	0.0222
201.953	0.0371
202.323	0.0399
202.694	0.0283
203.064	0.0032
203.434	0.0551
203.804	0.0013
204.174	0.0269
204.544	0.0254
204.914	0.0221
205.284	0.0499
205.653	0.0116
206.023	0.0381
206.393	0.0037
206.762	0.0487
207.131	0.0186
207.501	0.0271
207.87	0.0486
208.239	0.051
208.608	0.0353
208.977	0.0182
209.346	0.0263
209.715	0.0334
210.083	0.0142
210.452	0.0272
210.82	0.0304
211.189	0.0056
211.557	0.0474
211.925	0.0125
212.294	0.0224
212.662	0.0284
213.03	0.0241
213.398	0.0491
213.766	0.0466
214.133	0.03
214.501	0.0555
214.869	0.0443
215.236	0.0174
215.604	0.0433
215.971	0.0363
216.338	0.0412
216.705	0.0669
217.072	0.0697
217.439	0.0428
217.806	0.0511
218.173	0.0668
218.54	0.0565
218.907	0.0789
219.273	0.0799
219.64	0.0648
220.006	0.0949
220.373	0.0931
220.739	0.0932
221.105	0.1421
221.471	0.1275
221.837	0.1512
222.203	0.1623
222.569	0.2023
222.935	0.2061
223.3	0.2107
223.666	0.2422
224.031	0.2654
224.397	0.2745
224.762	0.2989
225.127	0.328
225.493	0.3601
225.858	0.3896
226.223	0.3776
226.588	0.4249
226.952	0.4347
227.317	0.4639
227.682	0.4783
228.046	0.4948
228.411	0.5036
228.775	0.5221
229.14	0.5293
229.504	0.5519
229.868	0.5744
230.232	0.5633
230.596	0.5927
230.96	0.6106
231.324	0.6005
231.688	0.6058
232.052	0.6412
232.415	0.6297
232.779	0.6342
233.142	0.6565
233.505	0.6597
233.869	0.648
234.232	0.6556
234.595	0.6552
234.958	0.659
235.321	0.665
235.684	0.6565
236.047	0.6776
236.409	0.6467
236.772	0.6629
237.134	0.6606
237.497	0.6533
237.859	0.673
238.222	0.6617
238.584	0.6514
238.946	0.652
239.308	0.6596
239.67	0.648
240.032	0.6535
240.393	0.654
240.755	0.6521
241.117	0.639
241.478	0.6509
241.84	0.6412
242.201	0.6405
242.562	0.6259
242.924	0.6265
243.285	0.6174
243.646	0.632
244.007	0.62
244.368	0.6228
244.728	0.6284
245.089	0.6254
245.45	0.6197
245.81	0.6215
246.171	0.6241
246.531	0.6196
246.891	0.6095
247.252	0.6089
247.612	0.6117
247.972	0.6123
248.332	0.6161
248.692	0.6073
249.051	0.6128
249.411	0.6101
249.771	0.6112
250.13	0.5994
250.49	0.6086
250.849	0.6055
251.208	0.6075
251.568	0.6029
251.927	0.6038
252.286	0.6134
252.645	0.6014
253.004	0.6012
253.363	0.6022
253.721	0.607
254.08	0.5994
254.439	0.5972
254.797	0.5976
255.155	0.6003
255.514	0.6037
255.872	0.6022
256.23	0.5901
256.588	0.5931
256.946	0.5956
257.304	0.5944
257.662	0.5885
258.02	0.5966
258.377	0.5905
258.735	0.5887
259.093	0.5854
259.45	0.584
259.807	0.584
260.165	0.5793
260.522	0.5834
260.879	0.5828
261.236	0.5751
261.593	0.5735
261.95	0.5776
262.306	0.5723
262.663	0.569
263.02	0.5643
263.376	0.5606
263.733	0.5616
264.089	0.5598
264.445	0.5553
264.802	0.5605
265.158	0.5579
265.514	0.5486
265.87	0.5435
266.226	0.5463
266.581	0.5432
266.937	0.542
267.293	0.5439
267.648	0.5313
268.004	0.5316
268.359	0.5328
268.714	0.5267
269.07	0.5247
269.425	0.5168
269.78	0.5176
270.135	0.5183
270.49	0.5104
270.844	0.5111
271.199	0.5031
271.554	0.5082
271.908	0.5038
272.263	0.5045
272.617	0.4918
272.972	0.4927
273.326	0.4867
273.68	0.486
274.034	0.4816
274.388	0.4798
274.742	0.4761
275.096	0.4716
275.45	0.4716
275.803	0.4642
276.157	0.4618
276.51	0.4554
276.864	0.4526
277.217	0.4537
277.571	0.4487
277.924	0.4447
278.277	0.4377
278.63	0.4374
278.983	0.4319
279.336	0.4259
279.688	0.4203
280.041	0.4148
280.394	0.4164
280.746	0.4105
281.099	0.4062
281.451	0.4023
281.803	0.3954
282.156	0.3913
282.508	0.3891
282.86	0.384
283.212	0.3794
283.564	0.3764
283.916	0.3717
284.267	0.3667
284.619	0.3636
284.971	0.361
285.322	0.3564
285.673	0.3502
286.025	0.3505
286.376	0.3453
286.727	0.342
287.078	0.337
287.429	0.3341
287.78	0.3286
288.131	0.3244
288.482	0.3191
288.833	0.3167
289.183	0.3112
289.534	0.308
289.884	0.3041
290.235	0.2993
290.585	0.2964
290.935	0.2914
291.285	0.2862
291.635	0.2848
291.985	0.2794
292.335	0.2763
292.685	0.2726
293.035	0.2688
293.384	0.2652
293.734	0.2614
294.083	0.259
294.433	0.2526
294.782	0.2504
295.131	0.2454
295.48	0.2416
295.829	0.2383
296.179	0.2349
296.527	0.232
296.876	0.229
297.225	0.2261
297.574	0.2216
297.922	0.2191
298.271	0.2163
298.619	0.2118
298.968	0.2094
299.316	0.2054
299.664	0.202
300.012	0.2001
300.36	0.1968
300.708	0.1945
301.056	0.1913
301.404	0.188
301.752	0.1874
302.099	0.1833
302.447	0.1813
302.794	0.1798
303.142	0.1768
303.489	0.1731
303.836	0.1726
304.183	0.1714
304.531	0.1685
304.878	0.1661
305.224	0.1652
305.571	0.162
305.918	0.1615
306.265	0.1603
306.611	0.1581
306.958	0.1585
307.304	0.1558
307.651	0.1546
307.997	0.1535
308.343	0.1524
308.689	0.1521
309.035	0.1502
309.381	0.1497
309.727	0.1492
310.073	0.1483
310.419	0.1476
310.764	0.1465
311.11	0.1461
311.455	0.1463
311.801	0.1464
312.146	0.146
312.491	0.145
312.837	0.1445
313.182	0.1441
313.527	0.1445
313.872	0.1447
314.216	0.1442
314.561	0.1447
314.906	0.1455
315.251	0.1453
315.595	0.1457
315.94	0.1466
316.284	0.1464
316.628	0.1471
316.972	0.1472
317.317	0.1483
317.661	0.1495
318.005	0.1491
318.348	0.1509
318.692	0.1517
319.036	0.1514
319.38	0.1531
319.723	0.1534
320.067	0.1549
320.41	0.1555
320.754	0.1573
321.097	0.1583
321.44	0.1595
321.783	0.1607
322.126	0.1619
322.469	0.1628
322.812	0.1642
323.155	0.166
323.498	0.1665
323.84	0.168
324.183	0.1705
324.525	0.1714
324.868	0.173
325.21	0.1737
325.552	0.1767
325.894	0.1774
326.236	0.179
326.578	0.1799
326.92	0.1825
327.262	0.1838
327.604	0.1853
327.946	0.1861
328.287	0.1887
328.629	0.1912
328.97	0.1917
329.312	0.1939
329.653	0.195
329.994	0.1966
330.335	0.1991
330.676	0.201
331.017	0.2025
331.358	0.205
331.699	0.2065
332.04	0.2084
332.38	0.2094
332.721	0.2104
333.061	0.2124
333.402	0.2147
333.742	0.2172
334.083	0.219
334.423	0.2191
334.763	0.2214
335.103	0.2224
335.443	0.224
335.783	0.225
336.123	0.227
336.462	0.2284
336.802	0.2308
337.141	0.2312
337.481	0.2319
337.82	0.2342
338.16	0.2352
338.499	0.237
338.838	0.2379
339.177	0.24
339.516	0.2415
339.855	0.2429
340.194	0.2441
340.533	0.245
340.872	0.2459
341.21	0.2469
341.549	0.2477
341.887	0.2484
342.226	0.2497
342.564	0.2514
342.902	0.2517
343.24	0.2524
343.578	0.2522
343.916	0.2536
344.254	0.2536
344.592	0.2543
344.93	0.255
345.268	0.2556
345.605	0.2556
345.943	0.2553
346.28	0.2565
346.618	0.2562
346.955	0.2569
347.292	0.2567
347.629	0.2573
347.966	0.2571
348.303	0.257
348.64	0.2581
348.977	0.2578
349.314	0.2593
349.65	0.2586
349.987	0.2585
350.324	0.2581
350.66	0.2578
350.996	0.257
351.333	0.2567
351.669	0.257
352.005	0.257
352.341	0.2557
352.677	0.2538
353.013	0.2544
353.349	0.2535
353.685	0.2518
354.02	0.2505
354.356	0.2495
354.691	0.2488
355.027	0.2471
355.362	0.2466
355.697	0.2466
356.033	0.2454
356.368	0.2439
356.703	0.2432
357.038	0.243
357.373	0.2403
357.707	0.2399
358.042	0.2389
358.377	0.2386
358.711	0.2373
359.046	0.236
359.38	0.235
359.715	0.2347
360.049	0.233
360.383	0.2325
360.717	0.2305
361.051	0.2291
361.385	0.2278
361.719	0.2248
362.053	0.2238
362.387	0.2219
362.72	0.2205
363.054	0.2191
363.387	0.2164
363.721	0.2152
364.054	0.2125
364.387	0.2115
364.721	0.2098
365.054	0.2073
365.387	0.2061
365.72	0.2042
366.053	0.2028
366.385	0.2009
366.718	0.1998
367.051	0.1981
367.383	0.1969
367.716	0.1952
368.048	0.1936
368.381	0.1918
368.713	0.1908
369.045	0.1905
369.377	0.1876
369.709	0.1867
370.041	0.1852
370.373	0.1837
370.705	0.1818
371.037	0.1805
371.368	0.1786
371.7	0.1776
372.031	0.1754
372.363	0.1731
372.694	0.1709
373.025	0.1688
373.356	0.1669
373.688	0.1656
374.019	0.1629
374.35	0.1605
374.68	0.1589
375.011	0.1569
375.342	0.1546
375.673	0.1536
376.003	0.1499
376.334	0.1486
376.664	0.1465
376.995	0.1448
377.325	0.1426
377.655	0.1421
377.985	0.14
378.315	0.1389
378.645	0.1378
378.975	0.136
379.305	0.1347
379.635	0.134
379.964	0.1327
380.294	0.1302
380.623	0.1294
380.953	0.1275
381.282	0.1256
381.611	0.1247
381.941	0.1239
382.27	0.1221
382.599	0.1202
382.928	0.1187
383.257	0.1177
383.585	0.1155
383.914	0.1147
384.243	0.1126
384.571	0.1108
384.9	0.1085
385.228	0.1083
385.557	0.1053
385.885	0.1033
386.213	0.1028
386.541	0.1008
386.869	0.0987
387.197	0.0972
387.525	0.0954
387.853	0.0936
388.181	0.0925
388.508	0.0904
388.836	0.0896
389.164	0.0873
389.491	0.0867
389.818	0.0859
390.146	0.0846
390.473	0.0828
390.8	0.082
391.127	0.0807
391.454	0.0792
391.781	0.0787
392.108	0.0773
392.435	0.076
392.761	0.0748
393.088	0.0745
393.415	0.0731
393.741	0.0725
394.067	0.0717
394.394	0.0704
394.72	0.0691
395.046	0.0687
395.372	0.0675
395.698	0.0673
396.024	0.0662
396.35	0.0658
396.676	0.0637
397.001	0.0631
397.327	0.0622
397.653	0.0609
397.978	0.0599
398.303	0.0594
398.629	0.0574
398.954	0.057
399.279	0.056
399.604	0.0559
399.929	0.0546
400.254	0.0546
400.579	0.0542
400.904	0.053
401.229	0.0523
401.553	0.0516
401.878	0.0512
402.202	0.0502
402.527	0.05
402.851	0.0497
403.175	0.0487
403.5	0.0485
403.824	0.0477
404.148	0.0476
404.472	0.0464
404.796	0.0462
405.119	0.0459
405.443	0.046
405.767	0.045
406.09	0.0447
406.414	0.0449
406.737	0.0444
407.061	0.0449
407.384	0.0441
407.707	0.0437
408.03	0.0431
408.353	0.0438
408.676	0.0434
408.999	0.0431
409.322	0.0432
409.645	0.0427
409.968	0.043
410.29	0.0421
410.613	0.043
410.935	0.0424
411.258	0.0418
411.58	0.0418
411.902	0.042
412.224	0.0413
412.546	0.0413
412.868	0.0415
413.19	0.0418
413.512	0.0413
413.834	0.0405
414.156	0.0407
414.477	0.0419
414.799	0.0414
415.121	0.0417
415.442	0.0413
415.763	0.0408
416.085	0.0409
416.406	0.0412
416.727	0.0411
417.048	0.0408
417.369	0.041
417.69	0.0411
418.011	0.0401
418.331	0.0406
418.652	0.0413
418.973	0.0409
419.293	0.0412
419.614	0.0412
419.934	0.0416
420.254	0.0411
420.574	0.0413
420.895	0.0407
421.215	0.0408
421.535	0.0409
421.855	0.041
422.174	0.0407
422.494	0.0404
422.814	0.0405
423.134	0.0405
423.453	0.0406
423.773	0.0412
424.092	0.0411
424.411	0.0409
424.731	0.0414
425.05	0.04
425.369	0.0407
425.688	0.041
426.007	0.0404
426.326	0.0416
426.644	0.0411
426.963	0.0414
427.282	0.0407
427.6	0.0409
427.919	0.0409
428.237	0.0416
428.556	0.0408
428.874	0.0411
429.192	0.0413
429.51	0.0415
429.828	0.0414
430.146	0.0415
430.464	0.0409
430.782	0.0417
431.1	0.0415
431.418	0.0415
431.735	0.0408
432.053	0.0418
432.37	0.0414
432.688	0.0413
433.005	0.0412
433.322	0.0413
433.639	0.0416
433.957	0.0424
434.274	0.0418
434.591	0.0414
434.907	0.0411
435.224	0.0413
435.541	0.042
435.858	0.0419
436.174	0.0426
436.491	0.0409
436.807	0.0403
437.124	0.041
437.44	0.0411
437.756	0.0409
438.072	0.0418
438.388	0.0417
438.704	0.0411
439.02	0.0416
439.336	0.0408
439.652	0.0407
439.968	0.0399
440.283	0.0394
440.599	0.04
440.914	0.0412
441.23	0.0415
441.545	0.0407
441.86	0.0402
442.175	0.0403
442.491	0.0408
442.806	0.0406
443.121	0.0399
443.435	0.0404
443.75	0.0402
444.065	0.0396
444.38	0.0403
444.694	0.04
445.009	0.0402
445.323	0.0401
445.638	0.0393
445.952	0.0398
446.266	0.0397
446.58	0.0394
446.894	0.0394
447.208	0.0388
447.522	0.0398
447.836	0.0388
448.15	0.0386
448.464	0.039
448.777	0.0386
449.091	0.0386
449.404	0.0385
449.718	0.038
450.031	0.0386
450.345	0.0386
450.658	0.0386
450.971	0.0386
451.284	0.0382
451.597	0.0373
451.91	0.0375
452.223	0.037
452.535	0.0365
452.848	0.0375
453.161	0.0366
453.473	0.0376
453.786	0.0367
454.098	0.0362
454.411	0.0374
454.723	0.0356
455.035	0.0359
455.347	0.0362
455.659	0.036
455.971	0.0364
456.283	0.0355
456.595	0.0349
456.907	0.0358
457.218	0.0348
457.53	0.0342
457.841	0.0348
458.153	0.0353
458.464	0.0349
458.776	0.0346
459.087	0.0344
459.398	0.034
459.709	0.0346
460.02	0.0349
460.331	0.0325
460.642	0.0345
460.953	0.0334
461.263	0.0328
461.574	0.0326
461.885	0.0326
462.195	0.0325
462.506	0.0322
462.816	0.0319
463.126	0.0323
463.437	0.0323
463.747	0.0313
464.057	0.0306
464.367	0.0312
464.677	0.031
464.987	0.0313
465.296	0.0305
465.606	0.0299
465.916	0.0301
466.225	0.03
466.535	0.03
466.844	0.03
467.154	0.03
467.463	0.0294
467.772	0.0293
468.081	0.0292
468.39	0.029
468.699	0.0283
469.008	0.0282
469.317	0.0276
469.626	0.0273
469.935	0.0267
470.243	0.0267
470.552	0.0273
470.86	0.0268
471.169	0.027
471.477	0.0268
471.785	0.0272
472.093	0.0261
472.402	0.0256
472.71	0.0267
473.018	0.0249
473.326	0.0251
473.633	0.0254
473.941	0.0247
474.249	0.0245
474.556	0.0252
474.864	0.025
475.171	0.0239
475.479	0.0236
475.786	0.0234
476.094	0.0231
476.401	0.0228
476.708	0.0232
477.015	0.0228
477.322	0.0235
477.629	0.0225
477.936	0.0223
478.242	0.0218
478.549	0.0215
478.856	0.0221
479.162	0.0216
479.469	0.0215
479.775	0.0223
480.081	0.0212
480.388	0.0206
480.694	0.0205
481	0.02
481.306	0.0198
481.612	0.0194
481.918	0.0195
482.224	0.0192
482.53	0.0194
482.835	0.0198
483.141	0.0188
483.446	0.0187
483.752	0.0187
484.057	0.0178
484.363	0.0179
484.668	0.0175
484.973	0.0169
485.278	0.0172
485.583	0.0167
485.888	0.0166
486.193	0.0164
486.498	0.0161
486.803	0.0161
487.107	0.0166
487.412	0.0158
487.717	0.0156
488.021	0.0153
488.325	0.0165
488.63	0.0149
488.934	0.0161
489.238	0.0145
489.542	0.0144
489.846	0.0151
490.15	0.0148
490.454	0.0144
490.758	0.0135
491.062	0.0133
491.366	0.0132
491.669	0.0137
491.973	0.0143
492.276	0.0136
492.58	0.0134
492.883	0.0124
493.186	0.0128
493.489	0.0123
493.792	0.0118
494.096	0.012
494.399	0.011
494.701	0.0117
495.004	0.0099
495.307	0.0119
495.61	0.0101
495.912	0.0114
496.215	0.0106
496.517	0.0093
496.82	0.0106
497.122	0.0094
497.424	0.0103
497.727	0.01
498.029	0.009
498.331	0.0098
498.633	0.0092
498.935	0.0096
499.237	0.0089
499.538	0.009
499.84	0.0084
500.142	0.0083
500.443	0.0077
500.745	0.0075
501.046	0.0079
501.348	0.008
501.649	0.0064
501.95	0.0071
502.251	0.0074
502.552	0.007
502.853	0.0063
503.154	0.0073
503.455	0.0067
503.756	0.0069
504.057	0.0076
504.357	0.0055
504.658	0.0067
504.958	0.0067
505.259	0.0062
505.559	0.0056
505.859	0.0057
506.16	0.0057
506.46	0.0058
506.76	0.0061
507.06	0.005
507.36	0.0052
507.66	0.0053
507.96	0.0052
508.259	0.0052
508.559	0.0046
508.859	0.0051
509.158	0.0044
509.457	0.0038
509.757	0.0044
510.056	0.0048
510.355	0.0043
510.655	0.0042
510.954	0.0048
511.253	0.0038
511.552	0.0035
511.851	0.004
512.149	0.0036
512.448	0.004
512.747	0.0043
513.045	0.0031
513.344	0.0022
513.642	0.0028
513.941	0.0024
514.239	0.0028
514.537	0.0018
514.836	0.0028
515.134	0.0022
515.432	0.0038
515.73	0.0031
516.028	0.0019
516.326	0.0028
516.623	0.0018
516.921	0.0005
517.219	0.003
517.516	0.002
517.814	0.0025
518.111	0.0021
518.409	0.0002
518.706	0.0011
519.003	0.0016
519.3	0.0013
519.597	0.0007
519.894	0.0014
520.191	0.0012
520.488	0.0019
520.785	-0.0003
521.082	0.0011
521.378	0.0007
521.675	0.0001
521.971	0.0008
522.268	0.0009
522.564	0.001
522.861	0.0016
523.157	0.0015
523.453	0.0015
523.749	0.0007
524.045	0.0011
524.341	0.0009
524.637	0.0003
524.933	-0.0005
525.229	0.0007
525.524	-0.0001
525.82	0
526.115	-0
526.411	0.0008
526.706	0.0005
527.002	0.0008
527.297	-0.0004
527.592	0.0008
527.887	0.0014
528.182	0.0004
528.477	0.0014
528.772	0.0012
529.067	-0.0001
529.362	-0.0001
529.657	0.0003
529.951	0.0001
530.246	0.0002
530.54	0.0003
530.835	-0.0012
531.129	0.001
531.423	-0.0003
531.718	0.0004
532.012	-0
532.306	-0.0004
532.6	-0.0011
532.894	-0.0005
533.188	0.0002
533.482	0.0001
533.775	-0.0004
534.069	-0.0002
534.363	-0.0012
534.656	-0.0022
534.95	-0
535.243	-0.0008
535.536	0.0004
535.83	-0.0012
536.123	-0.0007
536.416	-0.0002
536.709	-0.0005
537.002	-0.0006
537.295	-0.0012
537.588	-0.0011
537.881	-0.0011
538.173	-0.0013
538.466	-0.0011
538.759	-0.0014
539.051	-0.0011
539.344	-0.0013
539.636	0.0005
539.928	-0.0005
540.22	-0.0004
540.513	-0.0005
540.805	-0.0001
541.097	-0.0017
541.389	-0.0013
541.681	-0.0004
541.972	0.0004
542.264	0.001
542.556	-0.0006
542.847	0.0003
543.139	0.0009
543.431	-0.0005
543.722	-0.0002
544.013	-0.0001
544.305	0.0001
544.596	-0.001
544.887	0.0002
545.178	-0.0002
545.469	-0.001
545.76	-0.0007
546.051	0.0013
546.342	-0.0005
546.632	-0.0007
546.923	-0.0013
547.214	-0.0007
547.504	-0.0019
547.795	-0.0011
548.085	-0.0021
548.375	-0.0012
548.666	-0.0015
548.956	-0.0007
549.246	-0.0011
549.536	-0.0006
549.826	-0.0005
550.116	-0.0002
550.406	-0.001
550.695	-0.0024
550.985	-0.0006
551.275	-0.0005
551.564	-0.0009
551.854	-0.0003
552.143	-0.001
552.433	-0.0013
552.722	-0.0014
553.011	-0.0001
553.3	0.0001
553.589	0.0002
553.879	-0.0006
554.167	-0.0007
554.456	-0.0005
554.745	0.0003
555.034	-0.0015
555.323	-0.0002
555.611	-0.0007
555.9	0.0001
556.188	-0.0016
556.477	0.0007
556.765	-0.0021
557.053	-0.0014
557.342	-0.0013
557.63	-0.0006
557.918	-0.0007
558.206	0.0008
558.494	0.0003
558.782	-0.0003
559.069	0.0009
559.357	0.0006
559.645	-0
559.932	0.0004
560.22	-0.0003
560.507	-0.0008
560.795	-0.0017
561.082	-0.0011
561.37	-0.0005
561.657	-0.001
561.944	-0.0017
562.231	-0.0011
562.518	-0.0002
562.805	0.0001
563.092	-0.0002
563.379	-0.0003
563.665	0
563.952	0.0002
564.239	0.0005
564.525	0.0009
564.811	0.0007
565.098	-0.0001
565.384	-0.0003
565.67	0.001
565.957	0.0001
566.243	0.0016
566.529	0.0001
566.815	0
567.101	0.0012
567.387	0.0008
567.672	-0.0003
567.958	0.0012
568.244	0.0012
568.529	-0.0002
568.815	-0.0003
569.1	-0.0013
569.386	-0.0018
569.671	0.0004
569.956	-0.0005
570.242	-0.0006
570.527	-0.0004
570.812	0.0001
571.097	0.0001
571.382	-0.0008
571.666	0.0004
571.951	-0.001
572.236	-0.0002
572.521	-0.0002
572.805	-0.0002
573.09	-0.0003
573.374	-0.0008
573.659	-0.0002
573.943	-0.0003
574.227	-0.0003
574.511	-0.0007
574.795	-0.0005
575.079	-0.0003
575.363	-0.0013
575.647	-0.0006
575.931	-0.0001
576.215	-0.0012
576.499	-0.0011
576.782	-0.0015
577.066	-0.0006
577.349	0.0004
577.633	-0.0005
577.916	-0.0009
578.2	-0.0006
578.483	-0.0004
578.766	0.0002
579.049	-0.0005
579.332	0.0014
579.615	-0.0002
579.898	-0.0004
580.181	0.0006
580.464	0.0015
580.746	-0.0002
581.029	0.0003
581.312	-0.0007
581.594	-0.0014
581.877	-0.0015
582.159	-0.0012
582.441	-0.0008
582.724	-0.0003
583.006	0.0009
583.288	0.0004
583.57	0.0012
583.852	0.001
584.134	0.0009
584.416	0.0008
584.697	0.0004
584.979	-0.0012
585.261	-0.0018
585.542	-0.0016
585.824	-0.0008
586.105	-0.0012
586.387	-0.0006
586.668	-0.0006
586.949	-0.0008
587.231	-0.0001
587.512	-0.0002
587.793	0.0002
588.074	-0.0009
588.355	0.0002
588.636	-0.0011
588.916	-0.0006
589.197	0.0002
589.478	0
589.758	0.0006
590.039	-0.0001
590.319	0.0004
590.6	0.0009
590.88	0.0014
591.16	0.0007
591.441	0.0007
591.721	-0.0001
592.001	-0.0006
592.281	-0.0006
592.561	0.0002
592.841	-0.0009
593.12	-0.0022
593.4	-0.0014
593.68	-0.002
593.959	-0.001
594.239	-0.0011
594.518	-0
594.798	0.0003
595.077	-0.0008
595.356	-0.0008
595.636	-0.0009
595.915	0.0003
596.194	0.0004
596.473	0.0008
596.752	0.0001
597.031	0.0002
597.31	0.0001
597.588	-0.0008
597.867	-0.0007
598.146	-0.0011
598.424	-0.0004
598.703	0.0003
598.981	-0.0013
599.259	-0.0016
599.538	-0.0011
599.816	-0.0003
600.094	-0.0008
600.372	-0.0018
600.65	-0.0012
600.928	-0.0002
601.206	-0.0001
601.484	-0.0003
601.762	0.0005
602.04	-0.0001
602.317	-0.0006
602.595	0.0003
602.872	0.0002
603.15	0.0008
603.427	-0.0013
603.704	-0.0014
603.982	-0.0005
604.259	-0.0013
604.536	-0.0001
604.813	-0.0003
605.09	-0.0009
605.367	-0.001
605.644	-0.0011
605.921	-0.001
606.197	-0.001
606.474	-0.0007
606.751	0
607.027	-0.0005
607.304	-0.0005
607.58	-0.0009
607.856	-0.0018
608.133	-0.0015
608.409	-0.0011
608.685	-0.0008
608.961	-0.0007
609.237	-0.0003
609.513	-0.0003
609.789	-0.0005
610.065	-0.0003
610.341	-0.0005
610.616	-0.0001
610.892	0.0015
611.167	0.0011
611.443	0.0006
611.718	0.0001
611.994	0.0002
612.269	0.0002
612.544	-0.0001
612.819	-0.0006
613.095	-0.0005
613.37	0.0005
613.645	0.0001
613.919	-0.0006
614.194	0.0004
614.469	0.0011
614.744	-0.0002
615.019	-0.0011
615.293	-0.0006
615.568	-0.0003
615.842	0
616.116	0.0011
616.391	0.0008
616.665	0.0011
616.939	0.0004
617.213	0.0008
617.488	0.0004
617.762	-0.0004
618.035	-0.0002
618.309	-0.0005
618.583	0.0009
618.857	0.0016
619.131	0.0008
619.404	0.0004
619.678	0.0015
619.951	-0.0003
620.225	-0.0004
620.498	-0.0005
620.771	-0.0007
621.045	-0.0007
621.318	-0.0017
621.591	-0.0011
621.864	-0.0016
622.137	-0.0021
622.41	-0.0015
622.683	-0.0009
622.956	-0.0003
623.228	-0.0007
623.501	0.0003
623.774	-0.0001
624.046	-0
624.319	-0.001
624.591	-0.0018
624.863	-0.0015
625.136	0.0001
625.408	0.0012
625.68	0.0005
625.952	0.0006
626.224	0.0004
626.496	0.001
626.768	-0
627.04	0.0005
627.311	-0.0008
627.583	-0.0005
627.855	0.0011
628.126	0.0006
628.398	0.0021
628.669	0.0028
628.941	0.0019
629.212	0.002
629.483	0.0018
629.755	0.0013
630.026	0.0006
630.297	0.0013
630.568	0.0011
630.839	0.001
631.11	0.0014
631.38	0.0023
631.651	0.0019
631.922	0.0011
632.192	0
632.463	-0
632.733	-0.0007
633.004	0.0006
633.274	0.0012
633.545	0.0016
633.815	0.0008
634.085	-0.0003
634.355	-0.0017
634.625	-0.0017
634.895	-0.0001
635.165	-0
635.435	-0.0018
635.705	-0.0004
635.974	-0.0009
636.244	-0.0005
636.514	0.001
636.783	-0.0004
637.053	-0.0002
637.322	0.0005
637.591	0.0006
637.861	-0.0005
638.13	-0.0007
638.399	-0.0007
638.668	0
638.937	-0.0009
639.206	-0.0015
639.475	-0.0012
639.744	-0.0021
640.013	-0.0008
640.281	-0.0003
640.55	0.0003
640.819	-0.0003
641.087	0.0004
641.356	0.001
641.624	0.0017
641.892	0.0028
642.161	0.0019
642.429	0.0009
642.697	0.0001
642.965	0.0004
643.233	-0.0003
643.501	0.0004
643.769	0.0009
644.037	-0.0008
644.305	0.0002
644.572	0.0003
644.84	0.0002
645.108	-0.0004
645.375	-0.0004
645.643	0.0003
645.91	0.0023
646.177	0.0031
646.445	0.0022
646.712	0.0045
646.979	0.0041
647.246	0.004
647.513	0.0038
647.78	0.0037
648.047	0.0021
648.314	-0.0004
648.58	-0
648.847	0.001
649.114	0.0014
649.38	0.0013
649.647	0.0008
649.913	0.0014
650.18	0.0016
650.446	0.0023
650.712	0.0008
650.978	0.0008
651.245	0.0002
651.511	0.0006
651.777	0.001
652.043	0.0004
652.309	0.0019
652.574	0.003
652.84	0.0028
653.106	0.0021
653.371	0.0027
653.637	0.0037
653.903	0.0029
654.168	0.0043
654.433	0.0053
654.699	0.004
654.964	0.0054
655.229	0.0028
655.494	0.0013
655.759	-0.0027
656.024	0.0003
656.289	-0
656.554	0.0009
656.819	0.0009
657.084	0.0016
657.349	0.0018
657.613	0.0017
657.878	0.0015
658.142	0.0004
658.407	0.001
658.671	0.0016
658.936	0.0019
659.2	0.0024
659.464	0.0025
659.728	0.0019
659.992	0.002
660.256	0.0027
660.52	0.0017
660.784	0.0012
661.048	0.0013
661.312	0.0006
661.575	0.0012
661.839	0.0013
662.103	0.0002
662.366	0.0007
662.63	0.0001
662.893	0.0002
663.156	0.0005
663.42	-0.0006
663.683	-0.0016
663.946	-0.0022
664.209	-0.0012
664.472	-0.0024
664.735	-0.0004
664.998	0.0001
665.261	-0.0006
665.524	-0.0011
665.786	-0.001
666.049	-0.0003
666.312	-0.0002
666.574	-0.0013
666.837	-0.0002
667.099	0.0008
667.361	0.0005
667.624	-0.0005
667.886	-0.0008
668.148	-0.0001
668.41	0.0003
668.672	-0.0004
668.934	0.0007
669.196	0.0011
669.458	0.002
669.72	0.0023
669.982	0.002
670.243	0.0018
670.505	0.0004
670.766	0.0019
671.028	0.0009
671.289	0.0002
671.551	-0.0004
671.812	-0.0018
672.073	0
672.334	0.0005
672.596	-0.0002
672.857	-0.0009
673.118	-0.0002
673.379	-0.001
673.639	-0.001
673.9	-0.0009
674.161	-0.0014
674.422	-0.0017
674.682	-0.0012
674.943	-0.0017
675.203	-0.0002
675.464	-0.0005
675.724	-0.0026
675.985	-0.0023
676.245	-0.0022
676.505	-0.0016
676.765	-0.0021
677.025	-0.0005
677.285	-0.0006
677.545	0.0011
677.805	0.0004
678.065	0.0001
678.325	0.0011
678.585	-0.0003
678.844	-0.0013
679.104	-0.0012
679.363	-0.0021
679.623	-0.0021
679.882	-0.0011
680.142	-0.0004
680.401	-0.0016
680.66	0.0007
680.919	0.0021
681.178	0.0025
681.437	0.0014
681.696	0.0005
681.955	0.0014
682.214	0.0013
682.473	0.0002
682.732	-0.0012
682.99	-0.0002
683.249	0.0005
683.508	-0.0005
683.766	-0.0011
684.024	-0.0013
684.283	-0.0007
684.541	0
684.799	0.0005
685.058	0.0009
685.316	-0.0006
685.574	-0.0009
685.832	-0.0004
686.09	-0.0013
686.348	-0.0017
686.606	-0.0015
686.863	-0.0015
687.121	-0.0006
687.379	0.0002
687.636	-0.0009
687.894	0.0011
688.151	0.0003
688.409	-0.0005
688.666	-0.0008
688.923	-0.0017
689.181	-0.0019
689.438	-0.0018
689.695	-0.0018
689.952	-0.0031
690.209	-0.0019
690.466	-0.0027
690.723	-0.001
690.979	-0.0011
691.236	-0.0023
691.493	-0.0009
691.75	-0.0004
692.006	0.0004
692.263	-0.0009
692.519	0.0002
692.775	-0.0003
693.032	-0.0008
693.288	-0.0004
693.544	-0.0006
693.8	-0.0005
694.056	-0.0007
694.313	-0.0003
694.568	0.0001
694.824	-0.0009
695.08	-0.001
695.336	-0.0024
695.592	-0.0031
695.847	-0.0015
696.103	-0.0016
696.359	-0.0012
696.614	-0.002
696.869	-0.002
697.125	-0.0037
697.38	-0.0025
697.635	-0.0009
697.891	-0.0008
698.146	-0
698.401	-0.0003
698.656	-0.0004
698.911	0.0002
699.166	0
699.42	0.0013
699.675	-0.0002
699.93	0.0002
700.185	0.0001
700.439	0.0002
700.694	0.0006
700.948	-0.0005
701.203	-0.0006
701.457	-0.0005
701.711	-0.0012
701.965	-0.0016
702.22	-0.0022
702.474	-0.0016
702.728	-0.0012
702.982	-0.0019
703.236	-0.0007
703.49	-0.0004
703.743	-0.0007
703.997	-0.0003
704.251	-0.0013
704.504	-0.0008
704.758	-0.0015
705.012	-0.0005
705.265	-0.0002
705.518	-0
705.772	0.0009
706.025	0.0006
706.278	-0.0005
706.531	-0.0015
706.785	-0.002
707.038	-0.0027
707.291	-0.0021
707.543	-0.002
707.796	-0.0017
708.049	-0.0016
708.302	-0.0026
708.555	-0.0019
708.807	-0.001
709.06	-0.002
709.312	-0.0015
709.565	-0.0011
709.817	-0.0021
710.069	-0.0018
710.322	-0.0021
710.574	-0.0037
710.826	-0.0024
711.078	-0.0019
711.33	-0.0019
711.582	-0.003
711.834	-0.0027
712.086	-0.0035
712.338	-0.0033
712.59	-0.003
712.841	-0.0052
713.093	-0.0042
713.344	-0.0048
713.596	-0.0043
713.847	-0.0024
714.099	-0.0025
714.35	-0.0028
714.601	-0.0021
714.853	-0.002
715.104	-0.0017
715.355	-0.0018
715.606	-0.0018
715.857	-0.0008
716.108	-0.0018
716.359	-0.0009
716.609	-0.0019
716.86	-0.0022
717.111	-0.0003
717.361	-0.0003
717.612	0.0014
717.863	0.002
718.113	0.0026
718.363	0.001
718.614	0.0022
718.864	0.0031
719.114	0.0024
719.364	0.0022
719.614	0.0015
719.865	0.0019
720.114	0.0031
720.364	0.0023
720.614	0.0033
720.864	0.0022
721.114	0.0024
721.364	0.0021
721.613	0.0026
721.863	0.0024
722.112	0.002
722.362	0.0012
722.611	0.0003
722.86	-0.0006
723.11	0.0006
723.359	-0.0004
723.608	-0.0001
723.857	-0.0011
724.106	0.0004
724.355	0.0003
724.604	0.0013
724.853	0.0004
725.102	-0.0011
725.351	-0.0013
725.599	-0.0021
725.848	-0.0017
726.097	-0.0005
726.345	-0.001
726.594	-0.0023
726.842	-0.0015
727.09	-0.003
727.339	-0.004
727.587	-0.0038
727.835	-0.0035
728.083	-0.0028
728.331	-0.0034
728.579	-0.002
728.827	-0.0013
729.075	-0.0016
729.323	-0.0009
729.571	-0.0021
729.818	-0.0012
730.066	-0.0011
730.314	-0.0007
730.561	0.0005
730.809	0.0006
731.056	-0.0001
731.303	0.001
731.551	-0.0004
731.798	0.0005
732.045	0
732.292	0.0017
732.539	0.0013
732.786	0.002
733.033	0.0011
733.28	0.0015
733.527	0.001
733.774	0.0003
734.021	-0.0017
734.267	-0.0021
734.514	-0.0029
734.76	-0.0031
735.007	-0.0028
735.253	-0.0028
735.5	-0.0032
735.746	-0.0031
735.992	-0.0023
736.238	-0.002
736.485	-0.0011
736.731	-0.0004
736.977	-0.0014
737.223	-0.0007
737.469	-0.0007
737.715	-0.0001
737.96	-0.0014
738.206	-0.0021
738.452	-0.0013
738.697	-0.0018
738.943	-0.0015
739.189	-0.0021
739.434	-0.0019
739.679	-0.002
739.925	-0.0022
740.17	-0.0032
740.415	-0.0029
740.66	-0.0044
740.906	-0.0035
741.151	-0.0035
741.396	-0.0042
741.641	-0.0051
741.886	-0.0039
742.13	-0.0025
742.375	-0.0024
742.62	-0.0031
742.865	-0.0033
743.109	-0.0015
743.354	-0.0004
743.598	0.0001
743.843	0.0015
744.087	0.0021
744.331	0.0027
744.576	0.0049
744.82	0.0047
745.064	0.0042
745.308	0.0047
745.552	0.004
745.796	0.0016
746.04	0.0021
746.284	0.0014
746.528	0.0029
746.771	0.0041
747.015	0.0041
747.259	0.003
747.502	0.0023
747.746	0.0018
747.989	0.0022
748.233	0.001
748.476	0.0031
748.719	0.0029
748.963	0.0042
749.206	0.0045
749.449	0.0027
749.692	0.003
749.935	0.0029
750.178	0.0014
750.421	0.001
750.664	0.0013
750.906	0.0026
751.149	0.0027
751.392	0.0015
751.635	0.0002
751.877	0.0005
752.12	-0
752.362	-0.0004
752.604	-0.0002
752.847	0.0021
753.089	0.0034
753.331	0.0034
753.573	0.0019
753.816	0.0008
754.058	0.0002
754.3	-0.0012
754.542	-0.0001
754.783	-0.0014
755.025	-0.0007
755.267	0.0009
755.509	-0.0002
755.75	-0.0007
755.992	-0.0007
756.234	-0.0012
756.475	-0.0015
756.716	-0.0022
756.958	-0.0023
757.199	-0.0015
757.44	-0.0011
757.682	-0.0022
757.923	-0.0008
758.164	-0.0001
758.405	-0.0002
758.646	0.0007
758.887	0.0007
759.128	0.0012
759.369	-0.0006
759.609	0.0005
759.85	0.0006
760.091	0.0022
760.331	0.0013
760.572	-0.0007
760.812	-0.001
761.053	-0.0016
761.293	-0.0012
761.533	-0.0007
761.774	0.0005
762.014	-0.0002
762.254	-0.0009
762.494	-0.0019
762.734	-0.0016
762.974	-0.0031
763.214	-0.0024
763.454	-0.0022
763.694	-0.0021
763.933	-0.0026
764.173	-0.0043
764.413	-0.0049
764.652	-0.0053
764.892	-0.0041
765.131	-0.004
765.371	-0.0034
765.61	-0.0035
765.849	-0.0032
766.089	-0.002
766.328	-0.0016
766.567	-0.0024
766.806	-0.001
767.045	-0.0006
767.284	-0.0016
767.523	-0.0017
767.762	-0.0018
768.001	-0.001
768.239	-0.0016
768.478	-0.0009
768.717	-0.0007
768.955	-0.0009
769.194	-0.0012
769.432	0.001
769.671	0.0012
769.909	0.0008
770.148	0.0014
770.386	0.0016
770.624	0.0023
770.862	0.0027
771.1	0.0038
771.338	0.0029
771.576	0.002
771.814	0.0029
772.052	0.0026
772.29	0.0034
772.528	0.0043
772.765	0.005
773.003	0.0041
773.24	0.0033
773.478	0.0019
773.716	0.0029
773.953	0.0026
774.19	0.0027
774.428	0.0038
774.665	0.0046
774.902	0.0043
775.139	0.0041
775.376	0.0036
775.613	0.0034
775.85	0.002
776.087	0.0018
776.324	0.0014
776.561	0.0012
776.798	0.0002
777.034	0.0002
777.271	0.0014
777.508	0.0018
777.744	0.0026
777.981	0.0034
778.217	0.0026
778.454	0.0021
778.69	0.0011
778.926	-0.0002
779.162	0.0001
779.399	0.001
779.635	-0.0001
779.871	0.0009
780.107	0.0001
780.343	-0.0006
780.579	-0.0003
780.814	-0.0003
781.05	0.0001
781.286	-0.0011
781.522	-0.0003
781.757	0.0007
781.993	0.0006
782.228	-0.0002
782.464	0.0004
782.699	-0.0005
782.934	-0.0014
783.17	-0.0012
783.405	-0.0008
783.64	-0.0011
783.875	-0.0019
784.11	-0.0016
784.345	-0.0008
784.58	-0.0002
784.815	0.0006
785.05	-0.0007
785.285	-0.0021
785.52	-0.002
785.754	-0.0035
785.989	-0.0035
786.223	-0.0051
786.458	-0.0041
786.692	-0.0035
786.927	-0.0027
787.161	-0.0018
787.396	-0.0021
787.63	-0.0024
787.864	-0.003
788.098	-0.0042
788.332	-0.0033
788.566	-0.0022
788.8	-0.0025
789.034	-0.0014
789.268	-0.0016
789.502	-0.0011
789.736	-0.0011
789.969	-0.0018
790.203	-0.0016
790.437	-0.0028
790.67	-0.0032
790.904	-0.0045
791.137	-0.004
791.37	-0.0042
791.604	-0.006
791.837	-0.0058
792.07	-0.0048
792.303	-0.0052
792.537	-0.0044
792.77	-0.0053
793.003	-0.0052
793.236	-0.0043
793.469	-0.0044
793.701	-0.0032
793.934	-0.0038
794.167	-0.0023
794.4	-0.0023
794.632	-0.0016
794.865	-0.0005
795.097	-0.0001
795.33	-0.0024
795.562	-0.0007
795.795	0.0003
796.027	0
796.259	0.0001
796.491	-0.0005
796.724	-0.0003
796.956	0.0004
797.188	0.0004
797.42	-0
797.652	-0.0006
797.883	0.0009
798.115	0.002
798.347	0.0018
798.579	0.0034
798.81	0.003
799.042	0.0041
799.274	0.0028
799.505	0.0024
799.737	0.0017
799.968	0.001
800.199	0.0003
800.431	0.0001
800.662	-0.0001
800.893	0.0004
801.124	-0.0001
801.355	-0
801.586	-0.0003
801.817	-0.0008
802.048	-0.002
802.279	-0.0022
802.51	-0.0015
802.741	-0.0004
802.971	0.0009
803.202	0.0013
803.433	0.0015
803.663	0.001
803.894	0.0013
804.124	0.0003
804.354	0.0011
804.585	0.0009
804.815	0.0023
805.045	0.0007
805.275	0.0013
805.506	0.001
805.736	-0.0102
805.966	-0.1899
806.196	0.0268
