Data from 03 0.5 mM K2Cr2O7 0.3 mM BQDS 1 M H2SO4 5 min_Absorbance_0149.txt Node
Date: Tue Dec 14 06:04:46 EST 2021
User: kwabilab-user
Spectrometer: HDX00518
Trigger mode: 0
Integration Time (sec): 5.000000E-2
Scans to average: 50
Nonlinearity correction enabled: false
Boxcar width: 0
Storing dark spectrum: false
XAxis mode: Wavelengths
Number of Pixels in Spectrum: 2068
>>>>>Begin Spectral Data<<<<<
195.27	0.0348
195.642	0.0907
196.014	0.12
196.386	-0.1011
196.758	-0.0403
197.129	-0.029
197.501	-0.032
197.872	-0.0144
198.244	0.0177
198.615	0.0386
198.986	0.0157
199.357	0.0392
199.728	0.0263
200.099	0.0369
200.47	0.0242
200.841	0.0281
201.212	0.0411
201.582	0.0283
201.953	0.0375
202.323	0.0243
202.694	0.0201
203.064	0.0159
203.434	0.0233
203.804	0.0025
204.174	0.034
204.544	0.0322
204.914	0.0166
205.284	0.0231
205.653	-0.0129
206.023	0.0339
206.393	0.0007
206.762	0.0275
207.131	0.0176
207.501	0.0152
207.87	0.0275
208.239	0.0168
208.608	0.0109
208.977	0.0083
209.346	0.0087
209.715	0.0212
210.083	-0.0116
210.452	0.0145
210.82	0.0169
211.189	-0.005
211.557	0.021
211.925	-0.0199
212.294	0.0075
212.662	0.0052
213.03	0.0095
213.398	0.0229
213.766	0.022
214.133	0.0294
214.501	0.0376
214.869	0.0181
215.236	0.0139
215.604	0.0138
215.971	0.0328
216.338	0.0352
216.705	0.0506
217.072	0.0473
217.439	0.0285
217.806	0.0439
218.173	0.0432
218.54	0.0658
218.907	0.0447
219.273	0.0575
219.64	0.0676
220.006	0.0952
220.373	0.0876
220.739	0.0965
221.105	0.1045
221.471	0.1273
221.837	0.1428
222.203	0.1761
222.569	0.1773
222.935	0.1791
223.3	0.222
223.666	0.212
224.031	0.2534
224.397	0.268
224.762	0.2843
225.127	0.3281
225.493	0.3431
225.858	0.3639
226.223	0.3952
226.588	0.4124
226.952	0.4311
227.317	0.4442
227.682	0.4667
228.046	0.4902
228.411	0.5107
228.775	0.5279
229.14	0.5148
229.504	0.5329
229.868	0.5591
230.232	0.5517
230.596	0.5645
230.96	0.5967
231.324	0.5992
231.688	0.6004
232.052	0.628
232.415	0.6279
232.779	0.6249
233.142	0.6465
233.505	0.6494
233.869	0.6531
234.232	0.6522
234.595	0.6436
234.958	0.6509
235.321	0.6477
235.684	0.6455
236.047	0.6396
236.409	0.6434
236.772	0.6545
237.134	0.6621
237.497	0.6508
237.859	0.6501
238.222	0.6426
238.584	0.6428
238.946	0.6496
239.308	0.6383
239.67	0.6436
240.032	0.635
240.393	0.6385
240.755	0.6342
241.117	0.6418
241.478	0.6323
241.84	0.6373
242.201	0.6326
242.562	0.6224
242.924	0.6234
243.285	0.624
243.646	0.6303
244.007	0.618
244.368	0.6147
244.728	0.6165
245.089	0.6166
245.45	0.6189
245.81	0.6161
246.171	0.6113
246.531	0.6105
246.891	0.6048
247.252	0.5969
247.612	0.5971
247.972	0.6093
248.332	0.6029
248.692	0.6053
249.051	0.5989
249.411	0.6021
249.771	0.5964
250.13	0.5941
250.49	0.5975
250.849	0.6031
251.208	0.5988
251.568	0.5908
251.927	0.5949
252.286	0.6014
252.645	0.5964
253.004	0.5968
253.363	0.594
253.721	0.6004
254.08	0.5916
254.439	0.593
254.797	0.5862
255.155	0.585
255.514	0.5868
255.872	0.5888
256.23	0.5851
256.588	0.5901
256.946	0.5841
257.304	0.5825
257.662	0.5815
258.02	0.5784
258.377	0.5822
258.735	0.5789
259.093	0.5773
259.45	0.5766
259.807	0.5757
260.165	0.5741
260.522	0.57
260.879	0.5722
261.236	0.5663
261.593	0.572
261.95	0.5614
262.306	0.5593
262.663	0.5593
263.02	0.5592
263.376	0.5549
263.733	0.5575
264.089	0.5539
264.445	0.5451
264.802	0.5489
265.158	0.5453
265.514	0.5424
265.87	0.5396
266.226	0.538
266.581	0.5313
266.937	0.5288
267.293	0.5337
267.648	0.5259
268.004	0.522
268.359	0.5223
268.714	0.5201
269.07	0.5138
269.425	0.5114
269.78	0.5082
270.135	0.5081
270.49	0.5117
270.844	0.4978
271.199	0.5013
271.554	0.496
271.908	0.4905
272.263	0.4918
272.617	0.4864
272.972	0.4845
273.326	0.4792
273.68	0.4789
274.034	0.471
274.388	0.4715
274.742	0.4693
275.096	0.467
275.45	0.4588
275.803	0.4597
276.157	0.4538
276.51	0.4502
276.864	0.4472
277.217	0.4421
277.571	0.4433
277.924	0.4348
278.277	0.4327
278.63	0.4277
278.983	0.4212
279.336	0.4176
279.688	0.4153
280.041	0.4113
280.394	0.4064
280.746	0.4055
281.099	0.4018
281.451	0.3937
281.803	0.3899
282.156	0.3884
282.508	0.3834
282.86	0.379
283.212	0.3744
283.564	0.3707
283.916	0.369
284.267	0.363
284.619	0.358
284.971	0.3559
285.322	0.3506
285.673	0.3458
286.025	0.3408
286.376	0.3394
286.727	0.3349
287.078	0.3308
287.429	0.3278
287.78	0.3217
288.131	0.319
288.482	0.3144
288.833	0.3089
289.183	0.3065
289.534	0.303
289.884	0.2984
290.235	0.296
290.585	0.2914
290.935	0.2865
291.285	0.2827
291.635	0.2802
291.985	0.2741
292.335	0.2715
292.685	0.2696
293.035	0.2656
293.384	0.2615
293.734	0.2573
294.083	0.2527
294.433	0.248
294.782	0.2464
295.131	0.2415
295.48	0.2375
295.829	0.2345
296.179	0.2307
296.527	0.2272
296.876	0.2262
297.225	0.2215
297.574	0.217
297.922	0.215
298.271	0.2123
298.619	0.2073
298.968	0.2045
299.316	0.2015
299.664	0.1998
300.012	0.198
300.36	0.1935
300.708	0.1908
301.056	0.1883
301.404	0.1847
301.752	0.1843
302.099	0.18
302.447	0.178
302.794	0.1762
303.142	0.1735
303.489	0.1712
303.836	0.1696
304.183	0.1678
304.531	0.1659
304.878	0.1636
305.224	0.1625
305.571	0.1605
305.918	0.1589
306.265	0.1571
306.611	0.1563
306.958	0.1555
307.304	0.1531
307.651	0.1519
307.997	0.1511
308.343	0.15
308.689	0.1489
309.035	0.1475
309.381	0.1474
309.727	0.1467
310.073	0.1464
310.419	0.1454
310.764	0.144
311.11	0.1438
311.455	0.1437
311.801	0.1427
312.146	0.1429
312.491	0.1434
312.837	0.1423
313.182	0.1419
313.527	0.142
313.872	0.1419
314.216	0.1418
314.561	0.142
314.906	0.1421
315.251	0.1428
315.595	0.1439
315.94	0.1437
316.284	0.1443
316.628	0.1449
316.972	0.1453
317.317	0.1467
317.661	0.1461
318.005	0.1479
318.348	0.1479
318.692	0.149
319.036	0.1491
319.38	0.1497
319.723	0.1511
320.067	0.1526
320.41	0.154
320.754	0.1541
321.097	0.1558
321.44	0.1568
321.783	0.1574
322.126	0.1592
322.469	0.1595
322.812	0.1616
323.155	0.1628
323.498	0.1641
323.84	0.166
324.183	0.1674
324.525	0.169
324.868	0.1714
325.21	0.1716
325.552	0.174
325.894	0.1749
326.236	0.1766
326.578	0.1774
326.92	0.1793
327.262	0.1808
327.604	0.1826
327.946	0.1842
328.287	0.1859
328.629	0.1884
328.97	0.1902
329.312	0.1912
329.653	0.1929
329.994	0.1945
330.335	0.1962
330.676	0.1985
331.017	0.1999
331.358	0.201
331.699	0.203
332.04	0.2053
332.38	0.2057
332.721	0.2084
333.061	0.2103
333.402	0.2127
333.742	0.214
334.083	0.2153
334.423	0.2172
334.763	0.2181
335.103	0.2195
335.443	0.2211
335.783	0.2222
336.123	0.2235
336.462	0.2251
336.802	0.2268
337.141	0.229
337.481	0.2293
337.82	0.2311
338.16	0.2318
338.499	0.2344
338.838	0.2349
339.177	0.2378
339.516	0.2384
339.855	0.2389
340.194	0.2413
340.533	0.2418
340.872	0.2433
341.21	0.2446
341.549	0.2455
341.887	0.2459
342.226	0.2467
342.564	0.2482
342.902	0.2485
343.24	0.2494
343.578	0.249
343.916	0.2503
344.254	0.2509
344.592	0.2517
344.93	0.2514
345.268	0.2513
345.605	0.2524
345.943	0.2534
346.28	0.253
346.618	0.2531
346.955	0.2528
347.292	0.254
347.629	0.254
347.966	0.2544
348.303	0.2551
348.64	0.2556
348.977	0.2548
349.314	0.2558
349.65	0.2556
349.987	0.2559
350.324	0.2554
350.66	0.2553
350.996	0.2545
351.333	0.2548
351.669	0.2538
352.005	0.2525
352.341	0.252
352.677	0.2513
353.013	0.2501
353.349	0.25
353.685	0.2487
354.02	0.2474
354.356	0.2456
354.691	0.2454
355.027	0.2439
355.362	0.2439
355.697	0.2426
356.033	0.2423
356.368	0.2421
356.703	0.2401
357.038	0.2402
357.373	0.2377
357.707	0.2375
358.042	0.2372
358.377	0.2359
358.711	0.2346
359.046	0.2327
359.38	0.2321
359.715	0.2316
360.049	0.2302
360.383	0.2292
360.717	0.228
361.051	0.2262
361.385	0.2253
361.719	0.2229
362.053	0.2217
362.387	0.2201
362.72	0.2177
363.054	0.2157
363.387	0.2145
363.721	0.2121
364.054	0.2105
364.387	0.2087
364.721	0.2073
365.054	0.2045
365.387	0.2034
365.72	0.2013
366.053	0.1997
366.385	0.1983
366.718	0.1968
367.051	0.1951
367.383	0.1939
367.716	0.1923
368.048	0.1919
368.381	0.1896
368.713	0.1887
369.045	0.1874
369.377	0.1851
369.709	0.1848
370.041	0.1833
370.373	0.1812
370.705	0.1781
371.037	0.1777
371.368	0.1762
371.7	0.1753
372.031	0.1729
372.363	0.1711
372.694	0.1681
373.025	0.1665
373.356	0.1642
373.688	0.1622
374.019	0.1606
374.35	0.1584
374.68	0.1572
375.011	0.1547
375.342	0.1514
375.673	0.151
376.003	0.148
376.334	0.1465
376.664	0.1443
376.995	0.1431
377.325	0.1407
377.655	0.1399
377.985	0.1381
378.315	0.1368
378.645	0.1352
378.975	0.1338
379.305	0.1322
379.635	0.1319
379.964	0.1315
380.294	0.1286
380.623	0.1275
380.953	0.1262
381.282	0.1248
381.611	0.1229
381.941	0.122
382.27	0.1206
382.599	0.1186
382.928	0.1166
383.257	0.116
383.585	0.1144
383.914	0.1126
384.243	0.1109
384.571	0.1085
384.9	0.1062
385.228	0.1057
385.557	0.104
385.885	0.1018
386.213	0.1005
386.541	0.0992
386.869	0.097
387.197	0.0949
387.525	0.0935
387.853	0.0921
388.181	0.0911
388.508	0.0892
388.836	0.0875
389.164	0.0861
389.491	0.0859
389.818	0.0836
390.146	0.082
390.473	0.0815
390.8	0.0808
391.127	0.0791
391.454	0.0778
391.781	0.0769
392.108	0.0754
392.435	0.0745
392.761	0.0734
393.088	0.0727
393.415	0.0715
393.741	0.071
394.067	0.0695
394.394	0.0694
394.72	0.0681
395.046	0.067
395.372	0.0662
395.698	0.0658
396.024	0.065
396.35	0.0635
396.676	0.0625
397.001	0.062
397.327	0.0609
397.653	0.0599
397.978	0.0578
398.303	0.0581
398.629	0.0561
398.954	0.0552
399.279	0.0552
399.604	0.0547
399.929	0.0539
400.254	0.0538
400.579	0.0527
400.904	0.0521
401.229	0.051
401.553	0.0504
401.878	0.0498
402.202	0.0489
402.527	0.0489
402.851	0.0484
403.175	0.048
403.5	0.0474
403.824	0.0471
404.148	0.0464
404.472	0.046
404.796	0.0455
405.119	0.0449
405.443	0.0453
405.767	0.0436
406.09	0.0445
406.414	0.044
406.737	0.0432
407.061	0.0435
407.384	0.0431
407.707	0.0428
408.03	0.0421
408.353	0.0429
408.676	0.042
408.999	0.0418
409.322	0.0421
409.645	0.0417
409.968	0.0411
410.29	0.0412
410.613	0.0418
410.935	0.0412
411.258	0.0409
411.58	0.0405
411.902	0.0412
412.224	0.0401
412.546	0.0404
412.868	0.0404
413.19	0.0408
413.512	0.0399
413.834	0.0393
414.156	0.0402
414.477	0.04
414.799	0.0404
415.121	0.041
415.442	0.0399
415.763	0.0404
416.085	0.04
416.406	0.0405
416.727	0.0399
417.048	0.0402
417.369	0.0391
417.69	0.0396
418.011	0.0392
418.331	0.0398
418.652	0.0399
418.973	0.0399
419.293	0.0401
419.614	0.04
419.934	0.0407
420.254	0.0399
420.574	0.0407
420.895	0.0404
421.215	0.0396
421.535	0.0394
421.855	0.0394
422.174	0.0399
422.494	0.0394
422.814	0.0394
423.134	0.0397
423.453	0.0397
423.773	0.0395
424.092	0.0397
424.411	0.0397
424.731	0.0403
425.05	0.0397
425.369	0.0402
425.688	0.0401
426.007	0.0396
426.326	0.0395
426.644	0.0403
426.963	0.0407
427.282	0.0401
427.6	0.04
427.919	0.0396
428.237	0.0405
428.556	0.0403
428.874	0.0406
429.192	0.0406
429.51	0.0409
429.828	0.0404
430.146	0.0407
430.464	0.0396
430.782	0.0408
431.1	0.0407
431.418	0.0403
431.735	0.0403
432.053	0.0405
432.37	0.0408
432.688	0.0403
433.005	0.0404
433.322	0.0403
433.639	0.0408
433.957	0.0406
434.274	0.0401
434.591	0.0406
434.907	0.0403
435.224	0.0406
435.541	0.0407
435.858	0.041
436.174	0.0411
436.491	0.0402
436.807	0.0393
437.124	0.0398
437.44	0.0404
437.756	0.0399
438.072	0.041
438.388	0.0406
438.704	0.0404
439.02	0.0401
439.336	0.0394
439.652	0.0395
439.968	0.0395
440.283	0.0387
440.599	0.0395
440.914	0.0401
441.23	0.0407
441.545	0.0394
441.86	0.0387
442.175	0.0392
442.491	0.04
442.806	0.0393
443.121	0.0391
443.435	0.0393
443.75	0.0389
444.065	0.0391
444.38	0.0392
444.694	0.0399
445.009	0.0393
445.323	0.039
445.638	0.0382
445.952	0.0387
446.266	0.0391
446.58	0.0385
446.894	0.0389
447.208	0.039
447.522	0.0385
447.836	0.0386
448.15	0.0373
448.464	0.0382
448.777	0.038
449.091	0.0373
449.404	0.0375
449.718	0.0378
450.031	0.0375
450.345	0.0375
450.658	0.0376
450.971	0.0377
451.284	0.0374
451.597	0.0365
451.91	0.0364
452.223	0.0366
452.535	0.0363
452.848	0.0373
453.161	0.0351
453.473	0.036
453.786	0.0355
454.098	0.0356
454.411	0.0366
454.723	0.0352
455.035	0.0352
455.347	0.0349
455.659	0.0352
455.971	0.0351
456.283	0.0348
456.595	0.035
456.907	0.0348
457.218	0.0346
457.53	0.0333
457.841	0.0337
458.153	0.0341
458.464	0.0334
458.776	0.0336
459.087	0.0333
459.398	0.0332
459.709	0.0335
460.02	0.0336
460.331	0.0321
460.642	0.0327
460.953	0.0325
461.263	0.0318
461.574	0.0319
461.885	0.0319
462.195	0.0314
462.506	0.0314
462.816	0.0315
463.126	0.0311
463.437	0.0313
463.747	0.0307
464.057	0.0299
464.367	0.0303
464.677	0.03
464.987	0.0298
465.296	0.03
465.606	0.0288
465.916	0.0292
466.225	0.029
466.535	0.0293
466.844	0.029
467.154	0.0293
467.463	0.0283
467.772	0.0284
468.081	0.0276
468.39	0.0278
468.699	0.028
469.008	0.0276
469.317	0.0269
469.626	0.0257
469.935	0.0258
470.243	0.0262
470.552	0.0264
470.86	0.0262
471.169	0.0256
471.477	0.026
471.785	0.0259
472.093	0.0253
472.402	0.0249
472.71	0.0254
473.018	0.0243
473.326	0.024
473.633	0.024
473.941	0.0235
474.249	0.0238
474.556	0.0243
474.864	0.0236
475.171	0.0235
475.479	0.0233
475.786	0.023
476.094	0.0226
476.401	0.0217
476.708	0.0227
477.015	0.0225
477.322	0.0224
477.629	0.0214
477.936	0.0214
478.242	0.0209
478.549	0.021
478.856	0.0216
479.162	0.0216
479.469	0.0201
479.775	0.0209
480.081	0.02
480.388	0.0197
480.694	0.0196
481	0.0197
481.306	0.0187
481.612	0.0189
481.918	0.0188
482.224	0.0191
482.53	0.018
482.835	0.0186
483.141	0.0181
483.446	0.0179
483.752	0.0178
484.057	0.0172
484.363	0.017
484.668	0.0171
484.973	0.0157
485.278	0.0164
485.583	0.0165
485.888	0.0168
486.193	0.015
486.498	0.0151
486.803	0.0155
487.107	0.0159
487.412	0.0149
487.717	0.0145
488.021	0.0145
488.325	0.0157
488.63	0.0154
488.934	0.0153
489.238	0.0143
489.542	0.0135
489.846	0.0144
490.15	0.0143
490.454	0.0134
490.758	0.0133
491.062	0.013
491.366	0.013
491.669	0.0127
491.973	0.013
492.276	0.0122
492.58	0.0119
492.883	0.0118
493.186	0.0123
493.489	0.0122
493.792	0.0109
494.096	0.0108
494.399	0.0112
494.701	0.0113
495.004	0.01
495.307	0.0106
495.61	0.0096
495.912	0.0096
496.215	0.0088
496.517	0.009
496.82	0.0096
497.122	0.0086
497.424	0.0096
497.727	0.0093
498.029	0.0086
498.331	0.0091
498.633	0.0094
498.935	0.0092
499.237	0.0084
499.538	0.0083
499.84	0.0078
500.142	0.008
500.443	0.0071
500.745	0.0074
501.046	0.006
501.348	0.0069
501.649	0.006
501.95	0.0062
502.251	0.0064
502.552	0.0068
502.853	0.0057
503.154	0.0061
503.455	0.0064
503.756	0.0056
504.057	0.0067
504.357	0.005
504.658	0.0061
504.958	0.0067
505.259	0.0053
505.559	0.0051
505.859	0.0053
506.16	0.0055
506.46	0.0049
506.76	0.0061
507.06	0.0052
507.36	0.0037
507.66	0.0047
507.96	0.005
508.259	0.0038
508.559	0.005
508.859	0.004
509.158	0.0042
509.457	0.0035
509.757	0.0041
510.056	0.004
510.355	0.0042
510.655	0.0032
510.954	0.0045
511.253	0.0037
511.552	0.0034
511.851	0.0033
512.149	0.0022
512.448	0.0026
512.747	0.0023
513.045	0.003
513.344	0.0022
513.642	0.0024
513.941	0.0028
514.239	0.0026
514.537	0.0014
514.836	0.0026
515.134	0.0005
515.432	0.0034
515.73	0.0017
516.028	0.0018
516.326	0.0021
516.623	0.0023
516.921	0.0006
517.219	0.0011
517.516	0.0016
517.814	0.0011
518.111	0.0011
518.409	0.0002
518.706	0.0004
519.003	0.0018
519.3	0.001
519.597	0.0008
519.894	0.0015
520.191	0.0008
520.488	0.0012
520.785	-0
521.082	0.0012
521.378	-0.0004
521.675	0.0001
521.971	0.0004
522.268	0.0013
522.564	0.0005
522.861	0.0008
523.157	0.001
523.453	0.0015
523.749	0.0001
524.045	-0.0002
524.341	0.0006
524.637	-0.0006
524.933	0.0001
525.229	0.0004
525.524	-0.001
525.82	-0.0004
526.115	-0.0007
526.411	-0.0007
526.706	0.0002
527.002	0.0008
527.297	-0.001
527.592	-0.0002
527.887	0.0007
528.182	0.0001
528.477	0.0011
528.772	0.0005
529.067	0.0002
529.362	-0.0001
529.657	0.0003
529.951	0.0001
530.246	-0.0017
530.54	-0
530.835	-0.0009
531.129	-0.0006
531.423	-0.0011
531.718	-0.0008
532.012	-0.0008
532.306	-0.0006
532.6	-0.0013
532.894	-0.0003
533.188	-0.0001
533.482	-0.0009
533.775	-0.0005
534.069	-0
534.363	-0.0015
534.656	-0.0025
534.95	0.0001
535.243	-0.001
535.536	-0.0002
535.83	-0.002
536.123	0.0003
536.416	-0
536.709	-0.0013
537.002	-0.0021
537.295	-0.0017
537.588	-0.0018
537.881	-0.002
538.173	-0.0007
538.466	-0.0012
538.759	-0.0009
539.051	-0.0003
539.344	-0.0015
539.636	-0.0015
539.928	-0.0001
540.22	-0.0008
540.513	-0.0012
540.805	0.0003
541.097	-0.0016
541.389	-0.0015
541.681	-0.0004
541.972	-0.0003
542.264	0.0004
542.556	-0.0003
542.847	-0.0002
543.139	-0.0003
543.431	-0.0007
543.722	-0.0007
544.013	0.0003
544.305	-0.0008
544.596	-0.0009
544.887	-0.0005
545.178	-0.0002
545.469	-0.0018
545.76	-0.0006
546.051	-0.0001
546.342	-0.0003
546.632	-0.0006
546.923	-0.0012
547.214	-0.0014
547.504	-0.0017
547.795	-0.0016
548.085	-0.0022
548.375	-0.0013
548.666	-0.0011
548.956	-0.0012
549.246	-0.0013
549.536	-0.0003
549.826	-0.0009
550.116	-0.0005
550.406	-0.0013
550.695	-0.0015
550.985	-0.0001
551.275	-0.0006
551.564	-0.0018
551.854	0.0007
552.143	-0.0014
552.433	-0.002
552.722	-0.0026
553.011	-0.0005
553.3	-0.0003
553.589	-0.0005
553.879	-0.0006
554.167	-0.001
554.456	-0.0004
554.745	0.0002
555.034	-0.0003
555.323	-0.0001
555.611	-0.001
555.9	-0.0005
556.188	-0.0017
556.477	-0.0003
556.765	-0.0029
557.053	-0.0014
557.342	-0
557.63	-0.0004
557.918	-0.0001
558.206	0.0001
558.494	-0.0003
558.782	-0.0005
559.069	0.0005
559.357	0.0002
559.645	-0.0003
559.932	-0.0002
560.22	-0.0006
560.507	-0.0013
560.795	-0.0013
561.082	-0.0018
561.37	-0.0003
561.657	-0.001
561.944	-0.0016
562.231	-0.0009
562.518	-0.0008
562.805	-0.0011
563.092	0.0013
563.379	-0.0004
563.665	0.0006
563.952	-0.0003
564.239	-0.0001
564.525	0
564.811	0.0015
565.098	-0.0003
565.384	-0.0003
565.67	0.0002
565.957	0.0013
566.243	0.0016
566.529	0.0007
566.815	0.0001
567.101	0.0016
567.387	0.0009
567.672	-0.0003
567.958	0.0007
568.244	0.0004
568.529	0
568.815	-0.0001
569.1	-0.0001
569.386	-0.0012
569.671	0.0007
569.956	-0.0004
570.242	-0.0009
570.527	-0.0004
570.812	0.0001
571.097	-0.0004
571.382	-0.0006
571.666	-0
571.951	-0.0011
572.236	-0.0004
572.521	-0.0005
572.805	-0.0001
573.09	-0.0007
573.374	-0.0006
573.659	-0.0005
573.943	-0.0014
574.227	-0.0009
574.511	-0.0012
574.795	-0.0011
575.079	-0.0011
575.363	-0.0017
575.647	-0.0017
575.931	0.0002
576.215	-0.001
576.499	-0.002
576.782	-0.0014
577.066	-0.0008
577.349	0.0001
577.633	-0.0006
577.916	-0.0011
578.2	-0.0008
578.483	-0.0014
578.766	-0.0003
579.049	-0.0002
579.332	0.0003
579.615	-0.0001
579.898	-0.0004
580.181	-0.0001
580.464	0.0004
580.746	-0.0001
581.029	-0.0002
581.312	-0.0018
581.594	-0.0015
581.877	-0.0012
582.159	-0.0011
582.441	-0.0017
582.724	-0.0017
583.006	-0.0006
583.288	0.0003
583.57	0.0002
583.852	0
584.134	0
584.416	-0.0004
584.697	-0.0004
584.979	-0.0012
585.261	-0.0021
585.542	-0.002
585.824	-0.0014
586.105	-0.0019
586.387	-0.0013
586.668	-0.0006
586.949	-0.0004
587.231	0.0004
587.512	-0.0009
587.793	-0.0002
588.074	-0.0013
588.355	-0.0003
588.636	-0.0013
588.916	-0.0012
589.197	-0.0008
589.478	-0.0001
589.758	-0.0006
590.039	0.0001
590.319	0.0001
590.6	0.0004
590.88	0.0013
591.16	0.0014
591.441	0.0002
591.721	-0.0008
592.001	-0.0002
592.281	-0.0007
592.561	-0.0009
592.841	-0.0009
593.12	-0.0028
593.4	-0.0018
593.68	-0.0027
593.959	-0.0018
594.239	-0.0007
594.518	-0.0008
594.798	0.0004
595.077	-0.0013
595.356	-0.001
595.636	-0.001
595.915	-0.0004
596.194	-0.0003
596.473	0.0006
596.752	-0.0004
597.031	0.0001
597.31	0.0003
597.588	-0.0008
597.867	-0.0008
598.146	-0.0011
598.424	-0.0004
598.703	-0.0008
598.981	-0.0018
599.259	-0.0018
599.538	-0.0018
599.816	-0
600.094	-0.0012
600.372	-0.0022
600.65	-0.0013
600.928	-0.0005
601.206	-0.0004
601.484	-0.0013
601.762	0.0001
602.04	-0.0006
602.317	-0.0009
602.595	-0.0002
602.872	-0.0008
603.15	0.0006
603.427	-0.0023
603.704	-0.0019
603.982	-0.0007
604.259	-0.0005
604.536	-0.0003
604.813	-0.0001
605.09	-0.0012
605.367	-0.0011
605.644	-0.0015
605.921	-0.0012
606.197	-0.0013
606.474	-0.0005
606.751	-0.0007
607.027	-0.0013
607.304	-0.0014
607.58	-0.0006
607.856	-0.0017
608.133	-0.0015
608.409	-0.0012
608.685	-0.0007
608.961	-0.0013
609.237	-0.0003
609.513	-0.0012
609.789	-0.0006
610.065	-0.0004
610.341	-0.0011
610.616	-0.0002
610.892	0.0001
611.167	0.0009
611.443	0.0003
611.718	-0.0005
611.994	0
612.269	-0.0001
612.544	0.0003
612.819	-0.0003
613.095	-0.0014
613.37	-0.0001
613.645	-0.0005
613.919	-0.0003
614.194	-0.0003
614.469	0.0005
614.744	0.0006
615.019	-0.001
615.293	-0.0004
615.568	-0.001
615.842	-0.0007
616.116	0.0004
616.391	0.0009
616.665	0.0012
616.939	0.0001
617.213	0.0001
617.488	0.0016
617.762	0.0006
618.035	0.0002
618.309	-0.0017
618.583	-0.0003
618.857	0.0012
619.131	0.0019
619.404	0.0011
619.678	0.001
619.951	0
620.225	-0.0005
620.498	-0.0006
620.771	-0.0003
621.045	-0.0007
621.318	-0.0011
621.591	-0.001
621.864	-0.002
622.137	-0.0011
622.41	-0.0018
622.683	-0
622.956	-0.0005
623.228	-0.0006
623.501	0.0009
623.774	-0.0001
624.046	-0.0001
624.319	-0.0009
624.591	-0.0018
624.863	-0.0017
625.136	0.0002
625.408	0.0016
625.68	0.0006
625.952	0.001
626.224	0.0015
626.496	0.0013
626.768	-0.0003
627.04	0
627.311	-0.0005
627.583	-0.0003
627.855	0.0011
628.126	0.001
628.398	0.0019
628.669	0.0026
628.941	0.0021
629.212	0.002
629.483	0.0014
629.755	0.001
630.026	0.0012
630.297	0.0013
630.568	0.0011
630.839	0.0018
631.11	0.0017
631.38	0.0013
631.651	0.002
631.922	0.0017
632.192	0.0008
632.463	0.0011
632.733	0.0003
633.004	0.0014
633.274	0.0013
633.545	0.0017
633.815	0.0016
634.085	-0.0005
634.355	-0.0009
634.625	-0.0014
634.895	-0.0001
635.165	0.0001
635.435	-0.0012
635.705	0.0002
635.974	-0.0011
636.244	0.0011
636.514	0.0009
636.783	0.0001
637.053	-0.0005
637.322	0.0014
637.591	0.0007
637.861	0.0001
638.13	0.0004
638.399	-0.0008
638.668	-0.0001
638.937	-0.0012
639.206	-0.0015
639.475	-0.0007
639.744	-0.0022
640.013	0.0007
640.281	0.0007
640.55	0.0007
640.819	0.0005
641.087	0.0017
641.356	0.0009
641.624	0.0026
641.892	0.004
642.161	0.0027
642.429	0.0012
642.697	0.0008
642.965	0.0013
643.233	0.0005
643.501	0
643.769	0.0005
644.037	0.0001
644.305	0.0006
644.572	0.0009
644.84	0.0003
645.108	-0.0002
645.375	-0.0007
645.643	-0.0003
645.91	0.0018
646.177	0.0027
646.445	0.0018
646.712	0.0042
646.979	0.0045
647.246	0.0041
647.513	0.0045
647.78	0.0028
648.047	0.0022
648.314	0.0001
648.58	0.0008
648.847	0.0007
649.114	0.0018
649.38	0.0016
649.647	0.0011
649.913	0.0007
650.18	0.001
650.446	0.0021
650.712	-0.0002
650.978	0.0006
651.245	-0.0002
651.511	0.0007
651.777	0.0002
652.043	0.0005
652.309	0.0015
652.574	0.0028
652.84	0.0027
653.106	0.0026
653.371	0.003
653.637	0.0032
653.903	0.0034
654.168	0.0038
654.433	0.0048
654.699	0.005
654.964	0.0046
655.229	0.0039
655.494	0.0015
655.759	-0.0021
656.024	0.0001
656.289	-0
656.554	-0.0009
656.819	-0.0003
657.084	0.0014
657.349	0.0008
657.613	0.0018
657.878	0.0012
658.142	0.0014
658.407	0.001
658.671	0.0019
658.936	0.0016
659.2	0.0021
659.464	0.0017
659.728	0.0017
659.992	0.0012
660.256	0.0024
660.52	0.0015
660.784	0.0008
661.048	0.0013
661.312	0.0004
661.575	0.0014
661.839	0.0018
662.103	0.0008
662.366	0.0005
662.63	0.0009
662.893	0.0003
663.156	0.0002
663.42	-0.0004
663.683	-0.002
663.946	-0.0026
664.209	-0.002
664.472	-0.0021
664.735	-0.0011
664.998	0.0001
665.261	-0.0005
665.524	-0
665.786	0.0005
666.049	0.0003
666.312	0.0005
666.574	-0.0002
666.837	0.0006
667.099	0.0006
667.361	0.0012
667.624	0.0013
667.886	-0.0005
668.148	-0.0006
668.41	0.0007
668.672	-0.0006
668.934	0.0008
669.196	0.0009
669.458	0.0014
669.72	0.002
669.982	0.0014
670.243	0.0021
670.505	0.001
670.766	0.0017
671.028	0.0015
671.289	0
671.551	0.0004
671.812	-0.0012
672.073	-0.0004
672.334	0.0004
672.596	-0.0005
672.857	-0.0005
673.118	-0.0003
673.379	-0.0007
673.639	-0.0003
673.9	-0.0011
674.161	-0.0012
674.422	-0.0009
674.682	-0.0014
674.943	0.0008
675.203	-0.0002
675.464	-0.0003
675.724	-0.0012
675.985	-0.0016
676.245	-0.0011
676.505	-0.0012
676.765	-0.001
677.025	0
677.285	0.0002
677.545	0.0013
677.805	0.001
678.065	0.0004
678.325	0.0015
678.585	0.0002
678.844	-0.0011
679.104	-0.0012
679.363	-0.0012
679.623	-0.0022
679.882	-0.0009
680.142	-0.0004
680.401	-0.0002
680.66	0.0011
680.919	0.0021
681.178	0.002
681.437	0.0021
681.696	0.0006
681.955	0.0006
682.214	0.0018
682.473	-0
682.732	-0.0009
682.99	-0.0003
683.249	0.0017
683.508	0.0002
683.766	-0.0003
684.024	-0.001
684.283	0.0005
684.541	-0.0001
684.799	0.0002
685.058	0.0004
685.316	-0.0003
685.574	-0.0009
685.832	-0.0006
686.09	-0.0011
686.348	-0.0016
686.606	-0.0016
686.863	-0.001
687.121	-0.0001
687.379	0.0012
687.636	-0.0003
687.894	0.0009
688.151	0.0015
688.409	0.0005
688.666	-0.0002
688.923	-0.0016
689.181	-0.0009
689.438	-0.0008
689.695	-0.001
689.952	-0.0026
690.209	-0.0012
690.466	-0.0018
690.723	-0.0003
690.979	-0.0004
691.236	-0.0012
691.493	0.0001
691.75	-0.0002
692.006	0.0002
692.263	0.0004
692.519	-0.0004
692.775	-0.0001
693.032	-0.0006
693.288	-0
693.544	-0.0003
693.8	-0.0003
694.056	-0.0002
694.313	-0.0003
694.568	-0.0006
694.824	0.0001
695.08	-0.0006
695.336	-0.0026
695.592	-0.0027
695.847	-0.0008
696.103	-0.0014
696.359	-0.0005
696.614	-0.0011
696.869	-0.0012
697.125	-0.0035
697.38	-0.0023
697.635	-0.0012
697.891	-0.0001
698.146	0.0006
698.401	-0.0002
698.656	0.0005
698.911	0.0001
699.166	0.0005
699.42	0.0021
699.675	0.0008
699.93	0.0007
700.185	-0.0002
700.439	-0.0002
700.694	0.0006
700.948	0.0001
701.203	-0.0009
701.457	-0.0002
701.711	-0.001
701.965	-0.0016
702.22	-0.0011
702.474	-0.0012
702.728	-0.001
702.982	-0.002
703.236	-0.0007
703.49	-0.0008
703.743	-0.001
703.997	-0.0001
704.251	-0.0009
704.504	-0.0009
704.758	-0.0023
705.012	-0.0006
705.265	0.0002
705.518	0.0009
705.772	0.0011
706.025	0.0011
706.278	0
706.531	-0.001
706.785	-0.0015
707.038	-0.0022
707.291	-0.0016
707.543	-0.0019
707.796	-0.0015
708.049	-0.0019
708.302	-0.0023
708.555	-0.0026
708.807	-0.0013
709.06	-0.0023
709.312	-0.002
709.565	-0.0015
709.817	-0.0021
710.069	-0.0017
710.322	-0.0019
710.574	-0.0021
710.826	-0.003
711.078	-0.0027
711.33	-0.0019
711.582	-0.0029
711.834	-0.0028
712.086	-0.003
712.338	-0.0036
712.59	-0.0031
712.841	-0.0049
713.093	-0.0041
713.344	-0.0039
713.596	-0.0036
713.847	-0.0025
714.099	-0.0018
714.35	-0.0019
714.601	-0.002
714.853	-0.002
715.104	-0.0018
715.355	-0.0018
715.606	-0.0018
715.857	-0.0007
716.108	-0.0007
716.359	-0.001
716.609	-0.0018
716.86	-0.0008
717.111	0.0001
717.361	-0.0007
717.612	0.0006
717.863	0.0013
718.113	0.0025
718.363	0.0003
718.614	0.0023
718.864	0.0028
719.114	0.0017
719.364	0.0023
719.614	0.0012
719.865	0.0023
720.114	0.0034
720.364	0.0028
720.614	0.0029
720.864	0.003
721.114	0.0028
721.364	0.0012
721.613	0.0017
721.863	0.0015
722.112	0.002
722.362	0.0009
722.611	0.0004
722.86	0.0007
723.11	0.0007
723.359	-0.0005
723.608	-0.0003
723.857	-0.0004
724.106	0.0008
724.355	0.0016
724.604	0.001
724.853	0.0014
725.102	-0.0006
725.351	-0.0006
725.599	-0.0016
725.848	-0.0015
726.097	0.0001
726.345	-0.0007
726.594	-0.0018
726.842	-0.0019
727.09	-0.0031
727.339	-0.004
727.587	-0.0038
727.835	-0.0036
728.083	-0.0028
728.331	-0.0033
728.579	-0.0017
728.827	-0.0012
729.075	-0.0008
729.323	-0.0009
729.571	-0.0012
729.818	-0.0005
730.066	-0.001
730.314	-0.0008
730.561	0.0014
730.809	0.0007
731.056	-0.0002
731.303	0.0005
731.551	0.0004
731.798	0.0007
732.045	-0.0001
732.292	0.0019
732.539	0.0018
732.786	0.0019
733.033	0.0008
733.28	0.001
733.527	0.0005
733.774	-0.0002
734.021	-0.0022
734.267	-0.0024
734.514	-0.0028
734.76	-0.0031
735.007	-0.0026
735.253	-0.003
735.5	-0.0029
735.746	-0.0029
735.992	-0.0018
736.238	-0.0019
736.485	-0.0001
736.731	0.0001
736.977	-0.001
737.223	-0.0005
737.469	-0.0008
737.715	0.0003
737.96	-0.0002
738.206	-0.0011
738.452	-0.0007
738.697	-0.0013
738.943	-0.0015
739.189	-0.0011
739.434	-0.0017
739.679	-0.0022
739.925	-0.0016
740.17	-0.0022
740.415	-0.0026
740.66	-0.003
740.906	-0.0028
741.151	-0.0026
741.396	-0.0036
741.641	-0.0033
741.886	-0.0033
742.13	-0.0018
742.375	-0.0018
742.62	-0.0023
742.865	-0.003
743.109	-0.0015
743.354	-0.0001
743.598	0.0011
743.843	0.0017
744.087	0.0021
744.331	0.0023
744.576	0.0035
744.82	0.0046
745.064	0.0048
745.308	0.0054
745.552	0.0038
745.796	0.0022
746.04	0.0023
746.284	0.001
746.528	0.0024
746.771	0.0039
747.015	0.0041
747.259	0.0026
747.502	0.0023
747.746	0.0022
747.989	0.0022
748.233	0.0019
748.476	0.0031
748.719	0.0036
748.963	0.0043
749.206	0.0049
749.449	0.0028
749.692	0.0024
749.935	0.0029
750.178	0.0021
750.421	0.0014
750.664	0.0018
750.906	0.003
751.149	0.0026
751.392	0.0022
751.635	0.0006
751.877	0.0009
752.12	0.0005
752.362	-0
752.604	0.0005
752.847	0.0019
753.089	0.003
753.331	0.0038
753.573	0.002
753.816	0.0014
754.058	0.0007
754.3	-0.0011
754.542	-0.0002
754.783	-0.0012
755.025	-0.0007
755.267	-0.0005
755.509	-0.0013
755.75	-0.0013
755.992	-0.0004
756.234	-0.001
756.475	-0.0015
756.716	-0.0022
756.958	-0.0013
757.199	-0.0015
757.44	-0.001
757.682	-0.0015
757.923	-0.0002
758.164	0.001
758.405	0.0003
758.646	0.0023
758.887	0.0018
759.128	0.0012
759.369	0.0004
759.609	0.0015
759.85	0.0019
760.091	0.0018
760.331	0.0014
760.572	-0.0004
760.812	-0.0013
761.053	-0.0012
761.293	-0.0011
761.533	-0.0018
761.774	0.0012
762.014	0.0019
762.254	-0.0003
762.494	-0.0006
762.734	-0.0003
762.974	-0.0017
763.214	-0.0008
763.454	-0.0011
763.694	-0.0015
763.933	-0.0022
764.173	-0.0043
764.413	-0.0045
764.652	-0.005
764.892	-0.0044
765.131	-0.0039
765.371	-0.0032
765.61	-0.0033
765.849	-0.0031
766.089	-0.0022
766.328	-0.0021
766.567	-0.0013
766.806	-0.0013
767.045	-0.0007
767.284	-0.0014
767.523	-0.0013
767.762	-0.0021
768.001	-0.0019
768.239	-0.0016
768.478	-0.0006
768.717	-0.0008
768.955	-0.001
769.194	-0.0011
769.432	0.0012
769.671	0.0007
769.909	0.0007
770.148	0.0006
770.386	0.0015
770.624	0.0022
770.862	0.0031
771.1	0.0035
771.338	0.0028
771.576	0.0017
771.814	0.0033
772.052	0.0036
772.29	0.0037
772.528	0.0042
772.765	0.0047
773.003	0.0048
773.24	0.0052
773.478	0.0041
773.716	0.0036
773.953	0.0032
774.19	0.0034
774.428	0.0051
774.665	0.0046
774.902	0.0051
775.139	0.0049
775.376	0.0039
775.613	0.0039
775.85	0.0028
776.087	0.0023
776.324	0.0023
776.561	0.0016
776.798	0.0007
777.034	0.0011
777.271	0.0019
777.508	0.0018
777.744	0.0027
777.981	0.0036
778.217	0.0039
778.454	0.0032
778.69	0.0018
778.926	0.0011
779.162	0.0006
779.399	0.0013
779.635	0.0008
779.871	0.0019
780.107	0.001
780.343	0.0003
780.579	0.0008
780.814	0.0008
781.05	0.0017
781.286	-0
781.522	0.0011
781.757	0.0009
781.993	0.0017
782.228	0.0011
782.464	0.0009
782.699	0.0006
782.934	-0.0008
783.17	-0.0001
783.405	-0.0003
783.64	-0.0001
783.875	-0.0015
784.11	-0.0007
784.345	-0.0004
784.58	0.0007
784.815	0.0016
785.05	0.0008
785.285	-0.0007
785.52	-0.001
785.754	-0.0029
785.989	-0.003
786.223	-0.0042
786.458	-0.0038
786.692	-0.0023
786.927	-0.002
787.161	-0.0011
787.396	-0.0016
787.63	-0.0021
787.864	-0.0025
788.098	-0.0036
788.332	-0.0032
788.566	-0.0022
788.8	-0.0024
789.034	-0.0022
789.268	-0.003
789.502	-0.0015
789.736	-0.0015
789.969	-0.001
790.203	-0.0013
790.437	-0.0018
790.67	-0.0031
790.904	-0.0035
791.137	-0.0034
791.37	-0.0037
791.604	-0.0054
791.837	-0.0057
792.07	-0.005
792.303	-0.005
792.537	-0.0045
792.77	-0.0048
793.003	-0.004
793.236	-0.0039
793.469	-0.0043
793.701	-0.0031
793.934	-0.0026
794.167	-0.0016
794.4	-0.0024
794.632	-0.0007
794.865	-0.0005
795.097	-0
795.33	-0.0017
795.562	0.0001
795.795	-0.0006
796.027	-0.0003
796.259	0.0003
796.491	0.0005
796.724	-0.001
796.956	0.0009
797.188	0.0006
797.42	0.0001
797.652	0.0012
797.883	0.0005
798.115	0.0021
798.347	0.002
798.579	0.004
798.81	0.0042
799.042	0.0041
799.274	0.0036
799.505	0.0023
799.737	0.0019
799.968	0.0014
800.199	0.001
800.431	0.0009
800.662	0.0013
800.893	0.0009
801.124	0.0007
801.355	0.0013
801.586	0.001
801.817	0.0011
802.048	-0.0011
802.279	-0.0011
802.51	-0.0005
802.741	0.0009
802.971	0.0011
803.202	0.0014
803.433	0.002
803.663	0.0009
803.894	0.001
804.124	0.0012
804.354	0.0011
804.585	0.0005
804.815	0.0015
805.045	0.0014
805.275	0.0012
805.506	-0.0015
805.736	-0.0223
805.966	-0.0568
806.196	-0.0374
