Data from 03 0.5 mM K2Cr2O7 0.3 mM BQDS 1 M H2SO4 5 min_Absorbance_0196.txt Node
Date: Tue Dec 14 09:59:45 EST 2021
User: kwabilab-user
Spectrometer: HDX00518
Trigger mode: 0
Integration Time (sec): 5.000000E-2
Scans to average: 50
Nonlinearity correction enabled: false
Boxcar width: 0
Storing dark spectrum: false
XAxis mode: Wavelengths
Number of Pixels in Spectrum: 2068
>>>>>Begin Spectral Data<<<<<
195.27	-0.0334
195.642	0.1823
196.014	-0.0561
196.386	0.2457
196.758	0.0377
197.129	-0.0031
197.501	0.0256
197.872	0.0344
198.244	0.0352
198.615	0.0466
198.986	0.0415
199.357	0.0533
199.728	0.0395
200.099	0.0442
200.47	0.0343
200.841	0.0329
201.212	0.0553
201.582	0.0689
201.953	0.044
202.323	0.0594
202.694	0.0416
203.064	0.0449
203.434	0.0371
203.804	0.0343
204.174	0.053
204.544	0.0523
204.914	0.0632
205.284	0.0512
205.653	0.0285
206.023	0.0464
206.393	0.0238
206.762	0.0542
207.131	0.0592
207.501	0.0197
207.87	0.0682
208.239	0.0597
208.608	0.0432
208.977	0.0465
209.346	0.0227
209.715	0.0376
210.083	0.0264
210.452	0.0399
210.82	0.053
211.189	0.0247
211.557	0.0585
211.925	0.0217
212.294	0.0495
212.662	0.0529
213.03	0.0448
213.398	0.0784
213.766	0.0687
214.133	0.0411
214.501	0.0593
214.869	0.0593
215.236	0.055
215.604	0.0574
215.971	0.0487
216.338	0.0717
216.705	0.0766
217.072	0.0803
217.439	0.0531
217.806	0.0756
218.173	0.0639
218.54	0.0596
218.907	0.0821
219.273	0.09
219.64	0.0886
220.006	0.1001
220.373	0.1226
220.739	0.1291
221.105	0.1283
221.471	0.1702
221.837	0.1546
222.203	0.177
222.569	0.1976
222.935	0.2169
223.3	0.2331
223.666	0.2547
224.031	0.2785
224.397	0.3012
224.762	0.3245
225.127	0.3374
225.493	0.3548
225.858	0.394
226.223	0.4058
226.588	0.4319
226.952	0.4547
227.317	0.4729
227.682	0.4986
228.046	0.503
228.411	0.5228
228.775	0.5096
229.14	0.5381
229.504	0.5655
229.868	0.5738
230.232	0.5795
230.596	0.5911
230.96	0.6219
231.324	0.6157
231.688	0.6295
232.052	0.644
232.415	0.6395
232.779	0.6522
233.142	0.654
233.505	0.6466
233.869	0.6521
234.232	0.6764
234.595	0.6629
234.958	0.6501
235.321	0.6553
235.684	0.6613
236.047	0.6658
236.409	0.6521
236.772	0.6654
237.134	0.6679
237.497	0.6653
237.859	0.6659
238.222	0.6571
238.584	0.6531
238.946	0.6552
239.308	0.6446
239.67	0.6538
240.032	0.6379
240.393	0.6469
240.755	0.6349
241.117	0.634
241.478	0.6371
241.84	0.6336
242.201	0.6265
242.562	0.6204
242.924	0.6209
243.285	0.621
243.646	0.6207
244.007	0.6138
244.368	0.6176
244.728	0.6142
245.089	0.6224
245.45	0.614
245.81	0.612
246.171	0.6088
246.531	0.604
246.891	0.597
247.252	0.606
247.612	0.5929
247.972	0.5925
248.332	0.6073
248.692	0.5963
249.051	0.5908
249.411	0.603
249.771	0.5947
250.13	0.5835
250.49	0.5843
250.849	0.5869
251.208	0.5836
251.568	0.5856
251.927	0.579
252.286	0.5878
252.645	0.5867
253.004	0.5848
253.363	0.5804
253.721	0.5849
254.08	0.5774
254.439	0.5754
254.797	0.5751
255.155	0.5744
255.514	0.5757
255.872	0.5761
256.23	0.5718
256.588	0.5726
256.946	0.5737
257.304	0.5712
257.662	0.5677
258.02	0.5664
258.377	0.5639
258.735	0.5625
259.093	0.5632
259.45	0.5582
259.807	0.5544
260.165	0.5638
260.522	0.5566
260.879	0.5529
261.236	0.551
261.593	0.5518
261.95	0.5491
262.306	0.5441
262.663	0.5401
263.02	0.5396
263.376	0.5399
263.733	0.5334
264.089	0.5366
264.445	0.5303
264.802	0.5257
265.158	0.5275
265.514	0.5254
265.87	0.5194
266.226	0.5192
266.581	0.5182
266.937	0.5146
267.293	0.5142
267.648	0.5098
268.004	0.5035
268.359	0.5004
268.714	0.4993
269.07	0.4942
269.425	0.4934
269.78	0.4881
270.135	0.493
270.49	0.4846
270.844	0.4833
271.199	0.4829
271.554	0.4787
271.908	0.4737
272.263	0.4748
272.617	0.4658
272.972	0.4659
273.326	0.4655
273.68	0.4579
274.034	0.4532
274.388	0.4513
274.742	0.4499
275.096	0.4423
275.45	0.445
275.803	0.4394
276.157	0.4422
276.51	0.4327
276.864	0.4302
277.217	0.4276
277.571	0.4236
277.924	0.4174
278.277	0.4093
278.63	0.4102
278.983	0.4035
279.336	0.4009
279.688	0.3966
280.041	0.392
280.394	0.3885
280.746	0.3886
281.099	0.3831
281.451	0.3763
281.803	0.3732
282.156	0.3698
282.508	0.366
282.86	0.3642
283.212	0.3592
283.564	0.355
283.916	0.3527
284.267	0.3477
284.619	0.3419
284.971	0.3408
285.322	0.3375
285.673	0.3318
286.025	0.3236
286.376	0.3228
286.727	0.3204
287.078	0.3168
287.429	0.3119
287.78	0.3086
288.131	0.3048
288.482	0.3008
288.833	0.295
289.183	0.2902
289.534	0.2898
289.884	0.2849
290.235	0.2802
290.585	0.2776
290.935	0.2721
291.285	0.2666
291.635	0.2662
291.985	0.2626
292.335	0.2567
292.685	0.2567
293.035	0.2512
293.384	0.2467
293.734	0.2452
294.083	0.2424
294.433	0.2356
294.782	0.2334
295.131	0.2292
295.48	0.2246
295.829	0.2217
296.179	0.2204
296.527	0.2171
296.876	0.2127
297.225	0.2094
297.574	0.2055
297.922	0.2039
298.271	0.201
298.619	0.1965
298.968	0.194
299.316	0.1907
299.664	0.188
300.012	0.1856
300.36	0.1825
300.708	0.1815
301.056	0.1778
301.404	0.175
301.752	0.1732
302.099	0.1701
302.447	0.1688
302.794	0.1656
303.142	0.1649
303.489	0.1613
303.836	0.1598
304.183	0.1575
304.531	0.1565
304.878	0.155
305.224	0.1535
305.571	0.1504
305.918	0.15
306.265	0.149
306.611	0.1471
306.958	0.1462
307.304	0.1445
307.651	0.1436
307.997	0.1422
308.343	0.1413
308.689	0.1407
309.035	0.1404
309.381	0.1386
309.727	0.1384
310.073	0.1383
310.419	0.1377
310.764	0.1362
311.11	0.136
311.455	0.136
311.801	0.1358
312.146	0.1344
312.491	0.1349
312.837	0.1342
313.182	0.1346
313.527	0.134
313.872	0.1345
314.216	0.1349
314.561	0.135
314.906	0.1344
315.251	0.1347
315.595	0.1358
315.94	0.1361
316.284	0.1368
316.628	0.1366
316.972	0.1375
317.317	0.1384
317.661	0.1381
318.005	0.1391
318.348	0.1403
318.692	0.1412
319.036	0.1415
319.38	0.142
319.723	0.1435
320.067	0.1444
320.41	0.1451
320.754	0.1467
321.097	0.148
321.44	0.1484
321.783	0.1498
322.126	0.1506
322.469	0.1528
322.812	0.1528
323.155	0.155
323.498	0.1562
323.84	0.158
324.183	0.1599
324.525	0.1605
324.868	0.1624
325.21	0.1626
325.552	0.1646
325.894	0.1661
326.236	0.1671
326.578	0.1692
326.92	0.1708
327.262	0.1728
327.604	0.1745
327.946	0.1754
328.287	0.1771
328.629	0.1797
328.97	0.1806
329.312	0.1824
329.653	0.1835
329.994	0.1855
330.335	0.1867
330.676	0.1889
331.017	0.1905
331.358	0.1925
331.699	0.1932
332.04	0.1956
332.38	0.1977
332.721	0.1983
333.061	0.2012
333.402	0.2028
333.742	0.2044
334.083	0.206
334.423	0.2074
334.763	0.2088
335.103	0.2093
335.443	0.2116
335.783	0.2128
336.123	0.2138
336.462	0.2155
336.802	0.2177
337.141	0.2182
337.481	0.219
337.82	0.2212
338.16	0.2222
338.499	0.2242
338.838	0.2246
339.177	0.227
339.516	0.2286
339.855	0.2299
340.194	0.2307
340.533	0.2313
340.872	0.233
341.21	0.2345
341.549	0.2341
341.887	0.236
342.226	0.237
342.564	0.238
342.902	0.2384
343.24	0.2382
343.578	0.2391
343.916	0.2396
344.254	0.2397
344.592	0.2402
344.93	0.2417
345.268	0.242
345.605	0.2415
345.943	0.2417
346.28	0.2422
346.618	0.2427
346.955	0.2434
347.292	0.2432
347.629	0.2436
347.966	0.2442
348.303	0.2449
348.64	0.2448
348.977	0.2445
349.314	0.2452
349.65	0.2449
349.987	0.2447
350.324	0.2451
350.66	0.2454
350.996	0.2439
351.333	0.2439
351.669	0.2442
352.005	0.2433
352.341	0.2415
352.677	0.2417
353.013	0.2406
353.349	0.2402
353.685	0.2386
354.02	0.2375
354.356	0.2361
354.691	0.235
355.027	0.2342
355.362	0.2345
355.697	0.233
356.033	0.2323
356.368	0.2316
356.703	0.2301
357.038	0.2297
357.373	0.2281
357.707	0.2273
358.042	0.2273
358.377	0.226
358.711	0.2252
359.046	0.2236
359.38	0.2227
359.715	0.2224
360.049	0.2209
360.383	0.2204
360.717	0.2192
361.051	0.2173
361.385	0.216
361.719	0.2141
362.053	0.2125
362.387	0.2107
362.72	0.209
363.054	0.2071
363.387	0.2052
363.721	0.2033
364.054	0.2013
364.387	0.2003
364.721	0.1983
365.054	0.1961
365.387	0.1948
365.72	0.1934
366.053	0.1915
366.385	0.1898
366.718	0.1878
367.051	0.1868
367.383	0.1864
367.716	0.1844
368.048	0.1836
368.381	0.1811
368.713	0.1803
369.045	0.1794
369.377	0.1772
369.709	0.1769
370.041	0.1756
370.373	0.1734
370.705	0.1717
371.037	0.1696
371.368	0.1689
371.7	0.168
372.031	0.1655
372.363	0.163
372.694	0.1612
373.025	0.1586
373.356	0.1576
373.688	0.1556
374.019	0.1539
374.35	0.1516
374.68	0.1495
375.011	0.1477
375.342	0.1452
375.673	0.1443
376.003	0.1418
376.334	0.1401
376.664	0.1377
376.995	0.1364
377.325	0.1346
377.655	0.1342
377.985	0.1322
378.315	0.1303
378.645	0.1288
378.975	0.1277
379.305	0.1267
379.635	0.1257
379.964	0.1244
380.294	0.1224
380.623	0.1223
380.953	0.1205
381.282	0.1189
381.611	0.1178
381.941	0.1165
382.27	0.1151
382.599	0.1129
382.928	0.1117
383.257	0.1106
383.585	0.109
383.914	0.1076
384.243	0.1054
384.571	0.1038
384.9	0.1021
385.228	0.1003
385.557	0.0985
385.885	0.097
386.213	0.0954
386.541	0.094
386.869	0.0924
387.197	0.0904
387.525	0.0886
387.853	0.0873
388.181	0.0857
388.508	0.0844
388.836	0.0824
389.164	0.0814
389.491	0.0811
389.818	0.0796
390.146	0.0779
390.473	0.0774
390.8	0.0759
391.127	0.0742
391.454	0.0733
391.781	0.0725
392.108	0.0719
392.435	0.0702
392.761	0.0692
393.088	0.0688
393.415	0.0679
393.741	0.0675
394.067	0.0662
394.394	0.0656
394.72	0.0639
395.046	0.0637
395.372	0.0632
395.698	0.0619
396.024	0.0611
396.35	0.0607
396.676	0.0588
397.001	0.0584
397.327	0.0569
397.653	0.0563
397.978	0.0549
398.303	0.0543
398.629	0.0528
398.954	0.0519
399.279	0.0522
399.604	0.0512
399.929	0.0511
400.254	0.0499
400.579	0.0497
400.904	0.0489
401.229	0.0477
401.553	0.0475
401.878	0.047
402.202	0.0462
402.527	0.0454
402.851	0.0454
403.175	0.0449
403.5	0.0439
403.824	0.044
404.148	0.0439
404.472	0.0434
404.796	0.0426
405.119	0.0421
405.443	0.0425
405.767	0.0412
406.09	0.041
406.414	0.0412
406.737	0.041
407.061	0.0402
407.384	0.0406
407.707	0.0399
408.03	0.0401
408.353	0.0405
408.676	0.0399
408.999	0.0397
409.322	0.0398
409.645	0.0391
409.968	0.0388
410.29	0.0387
410.613	0.0395
410.935	0.039
411.258	0.0387
411.58	0.038
411.902	0.0387
412.224	0.0378
412.546	0.0386
412.868	0.0387
413.19	0.0384
413.512	0.0383
413.834	0.0369
414.156	0.0376
414.477	0.0387
414.799	0.0379
415.121	0.0385
415.442	0.0381
415.763	0.0378
416.085	0.0377
416.406	0.0382
416.727	0.038
417.048	0.0374
417.369	0.0379
417.69	0.0373
418.011	0.037
418.331	0.0383
418.652	0.0379
418.973	0.0382
419.293	0.0384
419.614	0.0385
419.934	0.0383
420.254	0.0379
420.574	0.0386
420.895	0.0384
421.215	0.0374
421.535	0.0373
421.855	0.0376
422.174	0.0374
422.494	0.0373
422.814	0.0368
423.134	0.0374
423.453	0.0377
423.773	0.0379
424.092	0.0378
424.411	0.0379
424.731	0.0383
425.05	0.0372
425.369	0.038
425.688	0.0379
426.007	0.0376
426.326	0.0379
426.644	0.0378
426.963	0.0384
427.282	0.0377
427.6	0.0376
427.919	0.0376
428.237	0.0385
428.556	0.0384
428.874	0.0382
429.192	0.0387
429.51	0.0387
429.828	0.0378
430.146	0.0379
430.464	0.0378
430.782	0.0377
431.1	0.0378
431.418	0.0375
431.735	0.0378
432.053	0.0384
432.37	0.0377
432.688	0.0384
433.005	0.0382
433.322	0.0385
433.639	0.0385
433.957	0.0391
434.274	0.0385
434.591	0.0388
434.907	0.0378
435.224	0.0382
435.541	0.0379
435.858	0.0387
436.174	0.0389
436.491	0.038
436.807	0.0373
437.124	0.038
437.44	0.0382
437.756	0.0378
438.072	0.0387
438.388	0.0384
438.704	0.0373
439.02	0.0381
439.336	0.0381
439.652	0.0377
439.968	0.0372
440.283	0.0369
440.599	0.0371
440.914	0.0377
441.23	0.0383
441.545	0.0377
441.86	0.0375
442.175	0.0372
442.491	0.0374
442.806	0.0371
443.121	0.0376
443.435	0.037
443.75	0.0369
444.065	0.0372
444.38	0.0374
444.694	0.037
445.009	0.0372
445.323	0.037
445.638	0.0358
445.952	0.0374
446.266	0.0373
446.58	0.0363
446.894	0.0363
447.208	0.0361
447.522	0.0362
447.836	0.0362
448.15	0.0354
448.464	0.0356
448.777	0.0361
449.091	0.0353
449.404	0.0356
449.718	0.0353
450.031	0.0353
450.345	0.0356
450.658	0.0359
450.971	0.0357
451.284	0.0349
451.597	0.0346
451.91	0.0349
452.223	0.0343
452.535	0.0341
452.848	0.0347
453.161	0.0336
453.473	0.0341
453.786	0.0345
454.098	0.0339
454.411	0.0345
454.723	0.0336
455.035	0.0328
455.347	0.0329
455.659	0.0333
455.971	0.0331
456.283	0.0326
456.595	0.0327
456.907	0.0323
457.218	0.0322
457.53	0.0317
457.841	0.0324
458.153	0.0323
458.464	0.0319
458.776	0.0319
459.087	0.0314
459.398	0.0324
459.709	0.0318
460.02	0.0307
460.331	0.0307
460.642	0.0307
460.953	0.0303
461.263	0.0298
461.574	0.0295
461.885	0.0294
462.195	0.0299
462.506	0.0297
462.816	0.0303
463.126	0.0295
463.437	0.0294
463.747	0.0287
464.057	0.0281
464.367	0.0281
464.677	0.0279
464.987	0.0278
465.296	0.0279
465.606	0.0269
465.916	0.0276
466.225	0.027
466.535	0.0272
466.844	0.0277
467.154	0.0275
467.463	0.0271
467.772	0.0264
468.081	0.0263
468.39	0.025
468.699	0.0262
469.008	0.0251
469.317	0.0252
469.626	0.0245
469.935	0.0249
470.243	0.0243
470.552	0.0249
470.86	0.0246
471.169	0.0243
471.477	0.0236
471.785	0.024
472.093	0.0242
472.402	0.024
472.71	0.0235
473.018	0.0226
473.326	0.0226
473.633	0.0226
473.941	0.0228
474.249	0.022
474.556	0.0228
474.864	0.0228
475.171	0.0211
475.479	0.0213
475.786	0.0214
476.094	0.0215
476.401	0.0211
476.708	0.0205
477.015	0.0211
477.322	0.0209
477.629	0.0204
477.936	0.0201
478.242	0.019
478.549	0.0198
478.856	0.02
479.162	0.0196
479.469	0.0196
479.775	0.019
480.081	0.0188
480.388	0.0185
480.694	0.018
481	0.0184
481.306	0.0178
481.612	0.0172
481.918	0.0175
482.224	0.0168
482.53	0.0167
482.835	0.0171
483.141	0.0168
483.446	0.0165
483.752	0.0165
484.057	0.016
484.363	0.0155
484.668	0.0153
484.973	0.014
485.278	0.015
485.583	0.0154
485.888	0.0141
486.193	0.0133
486.498	0.0143
486.803	0.0154
487.107	0.0142
487.412	0.013
487.717	0.0134
488.021	0.0135
488.325	0.0148
488.63	0.0137
488.934	0.0141
489.238	0.013
489.542	0.0125
489.846	0.0128
490.15	0.0132
490.454	0.0128
490.758	0.0119
491.062	0.0122
491.366	0.012
491.669	0.0114
491.973	0.0123
492.276	0.0117
492.58	0.0117
492.883	0.0113
493.186	0.0112
493.489	0.0102
493.792	0.0096
494.096	0.0097
494.399	0.0095
494.701	0.0103
495.004	0.0092
495.307	0.0094
495.61	0.0093
495.912	0.0091
496.215	0.0085
496.517	0.008
496.82	0.009
497.122	0.0086
497.424	0.0086
497.727	0.0082
498.029	0.008
498.331	0.0076
498.633	0.0085
498.935	0.0078
499.237	0.0072
499.538	0.0073
499.84	0.0064
500.142	0.0075
500.443	0.0063
500.745	0.0063
501.046	0.0059
501.348	0.0059
501.649	0.0052
501.95	0.0055
502.251	0.0051
502.552	0.0061
502.853	0.0047
503.154	0.0056
503.455	0.0052
503.756	0.0047
504.057	0.0062
504.357	0.0046
504.658	0.0052
504.958	0.005
505.259	0.0052
505.559	0.0051
505.859	0.004
506.16	0.0044
506.46	0.0042
506.76	0.0042
507.06	0.0043
507.36	0.0041
507.66	0.0031
507.96	0.0046
508.259	0.004
508.559	0.0048
508.859	0.0043
509.158	0.0035
509.457	0.0032
509.757	0.0032
510.056	0.0028
510.355	0.0033
510.655	0.002
510.954	0.0027
511.253	0.0023
511.552	0.0017
511.851	0.0028
512.149	0.0016
512.448	0.0021
512.747	0.002
513.045	0.0024
513.344	0.0013
513.642	0.0021
513.941	0.0016
514.239	0.0017
514.537	0.0002
514.836	0.0018
515.134	-0.0001
515.432	0.0021
515.73	0.0025
516.028	0.0017
516.326	0.0016
516.623	0.002
516.921	0.0003
517.219	0.0011
517.516	0.0016
517.814	0.0017
518.111	0.0012
518.409	-0.0002
518.706	0.0012
519.003	0.0011
519.3	0.0007
519.597	0.0002
519.894	0.0021
520.191	0.0005
520.488	0.0015
520.785	0.0007
521.082	0.0006
521.378	-0.0002
521.675	-0.0003
521.971	0.0001
522.268	0.0011
522.564	0.0005
522.861	0.001
523.157	0.0006
523.453	0.0017
523.749	0.0008
524.045	0.0006
524.341	0.0011
524.637	-0.0004
524.933	-0.0004
525.229	0.0002
525.524	0.0001
525.82	-0.0011
526.115	0.0005
526.411	-0.0001
526.706	0.0009
527.002	0.0004
527.297	-0.0015
527.592	0.0008
527.887	0.0017
528.182	-0.0004
528.477	0.0015
528.772	0
529.067	-0.0011
529.362	-0.0003
529.657	-0.0006
529.951	0.0005
530.246	-0.0008
530.54	0.0001
530.835	-0.0006
531.129	-0.0003
531.423	0.0002
531.718	-0.0003
532.012	-0.0009
532.306	-0.0001
532.6	-0.0013
532.894	-0.0011
533.188	-0.0009
533.482	-0.0004
533.775	-0.0007
534.069	-0.0005
534.363	-0.0012
534.656	-0.0021
534.95	0
535.243	-0.0015
535.536	-0.0011
535.83	-0.0022
536.123	-0.0013
536.416	0.0003
536.709	-0.0013
537.002	-0.0013
537.295	-0.0011
537.588	-0.0019
537.881	-0.0021
538.173	-0.0017
538.466	-0.0012
538.759	-0.0008
539.051	0.0001
539.344	-0.0017
539.636	-0.0008
539.928	-0.0003
540.22	-0.0004
540.513	-0.0016
540.805	-0.0007
541.097	-0.0012
541.389	-0.0012
541.681	-0.0009
541.972	-0.0001
542.264	0.0006
542.556	-0.0001
542.847	0.0004
543.139	0.0006
543.431	-0.0013
543.722	-0.0005
544.013	0
544.305	-0.0007
544.596	-0.0014
544.887	-0.0001
545.178	-0.0003
545.469	-0.0015
545.76	-0.0002
546.051	0.0002
546.342	-0.0005
546.632	-0.0017
546.923	-0.001
547.214	-0.0012
547.504	-0.0023
547.795	-0.0012
548.085	-0.0021
548.375	-0.0018
548.666	-0.0009
548.956	-0.0007
549.246	-0.0006
549.536	-0
549.826	-0.0002
550.116	-0.001
550.406	-0.0013
550.695	-0.0022
550.985	-0.0001
551.275	-0.0018
551.564	-0.0016
551.854	0.0003
552.143	-0.002
552.433	-0.0023
552.722	-0.002
553.011	-0.0006
553.3	-0.0014
553.589	-0.0003
553.879	-0.0009
554.167	-0.001
554.456	-0.0001
554.745	0.0001
555.034	-0.0013
555.323	-0.0001
555.611	-0.0005
555.9	0.0001
556.188	-0.0014
556.477	-0.0003
556.765	-0.0005
557.053	-0.0001
557.342	-0.0004
557.63	-0.0005
557.918	0.0006
558.206	0.001
558.494	0.0015
558.782	0.0006
559.069	0.0015
559.357	0.001
559.645	0.0004
559.932	0.0004
560.22	-0.0009
560.507	-0.0015
560.795	-0.0009
561.082	-0.0022
561.37	0.0001
561.657	-0.0005
561.944	-0.0012
562.231	-0.0009
562.518	-0.0002
562.805	-0.0005
563.092	0.0001
563.379	-0
563.665	-0.0002
563.952	0
564.239	0.0007
564.525	0.0002
564.811	0.0021
565.098	0.0012
565.384	-0
565.67	0.0017
565.957	0.0017
566.243	0.0023
566.529	0.0012
566.815	0.0009
567.101	0.0021
567.387	0.0014
567.672	0.0006
567.958	0.0004
568.244	0.0005
568.529	0.0011
568.815	-0.0004
569.1	-0.0001
569.386	-0.0012
569.671	0.0002
569.956	-0.001
570.242	-0.0005
570.527	-0.0008
570.812	0.0008
571.097	-0.0004
571.382	-0.0011
571.666	0.0001
571.951	-0.0006
572.236	-0.0006
572.521	0.0002
572.805	0.0008
573.09	-0.0002
573.374	-0.0021
573.659	-0.0007
573.943	-0.0011
574.227	-0.0015
574.511	-0.0021
574.795	-0.0003
575.079	-0.0009
575.363	-0.0012
575.647	-0.0001
575.931	0.0001
576.215	-0.0015
576.499	-0.0022
576.782	-0.0013
577.066	-0.0011
577.349	0.0003
577.633	-0.0016
577.916	-0.0021
578.2	-0.0014
578.483	-0.001
578.766	-0.0003
579.049	0.0002
579.332	0.001
579.615	-0.0004
579.898	-0.0007
580.181	0.0005
580.464	0.0006
580.746	-0.0002
581.029	-0.0001
581.312	-0.0023
581.594	-0.0028
581.877	-0.0015
582.159	-0.0016
582.441	-0.0017
582.724	-0.0009
583.006	0
583.288	-0.0001
583.57	0.0005
583.852	0.0004
584.134	0.0004
584.416	-0.0011
584.697	-0.0011
584.979	-0.0029
585.261	-0.0028
585.542	-0.0016
585.824	-0.0015
586.105	-0.0022
586.387	-0.0007
586.668	-0.0009
586.949	-0.0005
587.231	-0.0002
587.512	-0.0004
587.793	-0.0004
588.074	-0.0009
588.355	0.0001
588.636	-0.0012
588.916	-0.001
589.197	0.0006
589.478	-0.0002
589.758	-0.0003
590.039	-0.0006
590.319	0
590.6	0.0001
590.88	0.0007
591.16	0.0009
591.441	0.0009
591.721	-0.0002
592.001	0.0001
592.281	0.0004
592.561	-0.0008
592.841	-0.0027
593.12	-0.003
593.4	-0.0015
593.68	-0.0021
593.959	-0.0015
594.239	-0.0013
594.518	0.0003
594.798	0.0004
595.077	-0.0009
595.356	-0.0005
595.636	-0.0006
595.915	0.0001
596.194	0.0002
596.473	0.0009
596.752	0.0004
597.031	-0.0005
597.31	-0.0005
597.588	-0.0008
597.867	-0.0005
598.146	-0.0003
598.424	-0.0001
598.703	-0.0004
598.981	-0.0033
599.259	-0.0017
599.538	0
599.816	-0.0006
600.094	-0.0015
600.372	-0.0018
600.65	-0.0011
600.928	-0.0004
601.206	-0.0003
601.484	-0
601.762	0.0003
602.04	-0.0002
602.317	0.0002
602.595	0.0007
602.872	0.0009
603.15	0.0003
603.427	-0.0026
603.704	-0.0017
603.982	-0.0005
604.259	-0.0005
604.536	-0.0002
604.813	-0.0003
605.09	-0.0006
605.367	-0.0017
605.644	-0.0016
605.921	-0.0011
606.197	-0.0018
606.474	-0.0004
606.751	-0.0012
607.027	-0.0009
607.304	-0.0016
607.58	-0.0014
607.856	-0.0019
608.133	-0.0018
608.409	-0.0002
608.685	-0.0006
608.961	-0.001
609.237	-0.0001
609.513	-0.0004
609.789	-0.0006
610.065	-0.0009
610.341	-0.0002
610.616	0.0009
610.892	0.0022
611.167	0.0011
611.443	0.0015
611.718	0.0009
611.994	0.0007
612.269	0.0008
612.544	0.001
612.819	-0.0002
613.095	0.0003
613.37	0.0007
613.645	0.0002
613.919	-0.0001
614.194	0.0008
614.469	0.0011
614.744	-0.001
615.019	-0.001
615.293	-0.0003
615.568	-0.0001
615.842	-0.0002
616.116	0.002
616.391	0.002
616.665	0.0017
616.939	0.0012
617.213	0.0025
617.488	0.002
617.762	0.0008
618.035	0.0001
618.309	-0.0006
618.583	0.002
618.857	0.0029
619.131	0.0022
619.404	0.0015
619.678	0.002
619.951	0.0004
620.225	0.0013
620.498	0.0024
620.771	0.0014
621.045	0.0016
621.318	0.0004
621.591	-0.0009
621.864	-0.0009
622.137	-0.0011
622.41	-0.0001
622.683	0.0018
622.956	0.0013
623.228	0.0009
623.501	0.0011
623.774	0.0017
624.046	0.0013
624.319	0.0001
624.591	0.0001
624.863	0.0007
625.136	0.0027
625.408	0.0023
625.68	0.0013
625.952	0.0023
626.224	0.0033
626.496	0.0032
626.768	0.0022
627.04	0.002
627.311	0.001
627.583	0.002
627.855	0.0031
628.126	0.0018
628.398	0.0043
628.669	0.0051
628.941	0.0037
629.212	0.0034
629.483	0.0027
629.755	0.0024
630.026	0.0028
630.297	0.0033
630.568	0.0032
630.839	0.0038
631.11	0.0033
631.38	0.0035
631.651	0.0037
631.922	0.004
632.192	0.0036
632.463	0.0031
632.733	0.0026
633.004	0.0032
633.274	0.0037
633.545	0.004
633.815	0.0028
634.085	0.0022
634.355	0.0006
634.625	0.0009
634.895	0.002
635.165	0.0009
635.435	0.001
635.705	0.0014
635.974	0.0014
636.244	0.002
636.514	0.0024
636.783	0.0017
637.053	0.0015
637.322	0.0021
637.591	0.0024
637.861	0.002
638.13	0.002
638.399	0.0008
638.668	0.0006
638.937	0.0008
639.206	0.0011
639.475	0.0022
639.744	0.0014
640.013	0.0029
640.281	0.0031
640.55	0.003
640.819	0.0024
641.087	0.0019
641.356	0.0032
641.624	0.0048
641.892	0.0053
642.161	0.0045
642.429	0.0032
642.697	0.0035
642.965	0.004
643.233	0.0016
643.501	0.001
643.769	0.002
644.037	0.0028
644.305	0.0025
644.572	0.0032
644.84	0.0015
645.108	0.0006
645.375	0.0006
645.643	0.0019
645.91	0.0017
646.177	0.0022
646.445	0.0032
646.712	0.0042
646.979	0.0048
647.246	0.0055
647.513	0.0052
647.78	0.0033
648.047	0.0036
648.314	0.0007
648.58	0.0017
648.847	0.0026
649.114	0.0029
649.38	0.0023
649.647	0.0022
649.913	0.0024
650.18	0.0032
650.446	0.0038
650.712	0.0019
650.978	0.0024
651.245	0.0015
651.511	0.0026
651.777	0.0027
652.043	0.002
652.309	0.0025
652.574	0.0035
652.84	0.0025
653.106	0.003
653.371	0.0027
653.637	0.0036
653.903	0.0046
654.168	0.005
654.433	0.0063
654.699	0.0048
654.964	0.0061
655.229	0.0038
655.494	0.0004
655.759	-0.0076
656.024	0.0002
656.289	-0
656.554	0.003
656.819	0.0027
657.084	0.0019
657.349	0.0026
657.613	0.002
657.878	0.002
658.142	0.0018
658.407	0.0018
658.671	0.0025
658.936	0.003
659.2	0.0033
659.464	0.0034
659.728	0.0032
659.992	0.0023
660.256	0.0027
660.52	0.0022
660.784	0.0016
661.048	0.0024
661.312	0.0021
661.575	0.0022
661.839	0.0031
662.103	0.0027
662.366	0.0021
662.63	0.0016
662.893	0.0017
663.156	0.0015
663.42	0.0008
663.683	0.0002
663.946	-0
664.209	0.0007
664.472	-0.0004
664.735	0.0006
664.998	0.0012
665.261	0.0008
665.524	0.0004
665.786	0.0015
666.049	0.0014
666.312	0.0015
666.574	0.0012
666.837	0.0017
667.099	0.002
667.361	0.0021
667.624	0.0021
667.886	0.0007
668.148	0.0012
668.41	0.0019
668.672	0.0011
668.934	0.002
669.196	0.0015
669.458	0.0018
669.72	0.0034
669.982	0.0028
670.243	0.0028
670.505	0.0018
670.766	0.003
671.028	0.0021
671.289	0.0012
671.551	0.0006
671.812	-0.0018
672.073	0.0004
672.334	0.001
672.596	0.0003
672.857	0.0003
673.118	0.0013
673.379	0.0006
673.639	0.0012
673.9	0.0016
674.161	0.0015
674.422	0.0004
674.682	0.0014
674.943	0.0018
675.203	0.0014
675.464	0.001
675.724	-0.0002
675.985	-0
676.245	-0
676.505	-0.0003
676.765	0.0001
677.025	0.0017
677.285	0.0016
677.545	0.002
677.805	0.0008
678.065	0.0012
678.325	0.0023
678.585	0.0011
678.844	-0.0003
679.104	0.0003
679.363	-0.0004
679.623	0.0003
679.882	0.0003
680.142	0.0006
680.401	0.0014
680.66	0.0029
680.919	0.004
681.178	0.0032
681.437	0.0023
681.696	0.0011
681.955	0.0017
682.214	0.0014
682.473	0.0009
682.732	0.001
682.99	0.0012
683.249	0.0026
683.508	0.0019
683.766	0.0002
684.024	0.0002
684.283	0.001
684.541	0.001
684.799	0.0013
685.058	0.0011
685.316	-0.0005
685.574	-0.0005
685.832	0.0003
686.09	0
686.348	-0.0011
686.606	-0.0008
686.863	0.0001
687.121	0.0011
687.379	0.0015
687.636	0.0005
687.894	0.0038
688.151	0.0028
688.409	0.0027
688.666	0.0018
688.923	0.0017
689.181	0.0008
689.438	0.0004
689.695	0.0005
689.952	0.0001
690.209	0.0013
690.466	0.001
690.723	0.0023
690.979	0.0014
691.236	0.0003
691.493	0.0007
691.75	0.0021
692.006	0.002
692.263	0.001
692.519	0.0008
692.775	0.0015
693.032	0.0017
693.288	0.0001
693.544	0.001
693.8	0.0017
694.056	0.0014
694.313	0.0016
694.568	0.001
694.824	0.0012
695.08	0.0002
695.336	-0.0018
695.592	-0.0014
695.847	0.0012
696.103	0.0009
696.359	0.0015
696.614	-0.0001
696.869	-0.0008
697.125	-0.0036
697.38	-0.0008
697.635	-0.0007
697.891	0.0004
698.146	0.0012
698.401	0.0006
698.656	0.0004
698.911	0.0015
699.166	0.0021
699.42	0.0037
699.675	0.0025
699.93	0.0028
700.185	0.0016
700.439	0.0037
700.694	0.0025
700.948	0.0014
701.203	0.0007
701.457	0.0004
701.711	0.0005
701.965	-0.0007
702.22	-0.001
702.474	-0.0011
702.728	-0.0009
702.982	-0.0007
703.236	0.0003
703.49	0.0012
703.743	0.0011
703.997	0.0015
704.251	0.0008
704.504	0.0001
704.758	0.0002
705.012	0.002
705.265	0.0022
705.518	0.0032
705.772	0.0028
706.025	0.0026
706.278	0.0018
706.531	-0.0001
706.785	-0.0007
707.038	-0.0002
707.291	0.0002
707.543	-0.0005
707.796	0.0002
708.049	-0.0012
708.302	-0.0019
708.555	-0.0024
708.807	-0.0018
709.06	-0.0036
709.312	-0.0027
709.565	-0.0014
709.817	-0.0027
710.069	-0.0016
710.322	-0.0021
710.574	-0.0029
710.826	-0.0029
711.078	-0.0023
711.33	-0.0017
711.582	-0.0017
711.834	-0.0022
712.086	-0.0021
712.338	-0.0022
712.59	-0.0014
712.841	-0.0042
713.093	-0.0023
713.344	-0.0026
713.596	-0.0027
713.847	-0.0014
714.099	-0.0005
714.35	-0.001
714.601	-0.0013
714.853	-0.0005
715.104	0.0002
715.355	-0.0013
715.606	-0.0002
715.857	0.0003
716.108	-0.0006
716.359	0.0001
716.609	-0.0005
716.86	-0.0003
717.111	0.0001
717.361	0
717.612	0.0011
717.863	0.0021
718.113	0.0029
718.363	-0.0004
718.614	0.0036
718.864	0.0044
719.114	0.0027
719.364	0.0038
719.614	0.0026
719.865	0.0035
720.114	0.0046
720.364	0.0045
720.614	0.0035
720.864	0.0033
721.114	0.003
721.364	0.0023
721.613	0.0016
721.863	0.0011
722.112	0.0005
722.362	0.0001
722.611	0.001
722.86	0.0007
723.11	0.0009
723.359	0.0002
723.608	0.0004
723.857	-0.0002
724.106	0.0016
724.355	0.0021
724.604	0.0022
724.853	0.001
725.102	0
725.351	0.0001
725.599	-0.0005
725.848	0.0006
726.097	0.0022
726.345	0.0013
726.594	0.0002
726.842	0.001
727.09	-0.0009
727.339	-0.0012
727.587	-0.0013
727.835	-0.0018
728.083	-0.0007
728.331	-0.0013
728.579	0.0003
728.827	0.0014
729.075	0.0013
729.323	0.0003
729.571	0.0006
729.818	0.0006
730.066	0.0009
730.314	0.0009
730.561	0.0023
730.809	0.0005
731.056	-0
731.303	0.0017
731.551	0.0013
731.798	0.0006
732.045	0.0014
732.292	0.0029
732.539	0.0019
732.786	0.0025
733.033	0.0005
733.28	0.0021
733.527	0.0018
733.774	0.0012
734.021	-0.0008
734.267	-0.0004
734.514	-0.0011
734.76	-0.0009
735.007	-0
735.253	-0.0003
735.5	-0.001
735.746	-0.0013
735.992	0.0009
736.238	0.0012
736.485	0.0016
736.731	0.0032
736.977	0.0005
737.223	0.0017
737.469	0.0014
737.715	0.0034
737.96	0.0026
738.206	0.0019
738.452	0.0021
738.697	0.0018
738.943	0.0007
739.189	-0.0012
739.434	-0.0007
739.679	0.0002
739.925	0.0015
740.17	0.0009
740.415	-0
740.66	-0.001
740.906	-0.0008
741.151	0.0001
741.396	-0.001
741.641	-0.0011
741.886	-0.0009
742.13	0.0004
742.375	0.0012
742.62	-0.0003
742.865	-0.0005
743.109	0.0022
743.354	0.0027
743.598	0.0031
743.843	0.003
744.087	0.0037
744.331	0.0047
744.576	0.0046
744.82	0.0048
745.064	0.0054
745.308	0.0062
745.552	0.0061
745.796	0.0045
746.04	0.0045
746.284	0.0035
746.528	0.0052
746.771	0.0064
747.015	0.0057
747.259	0.0041
747.502	0.0032
747.746	0.0039
747.989	0.0044
748.233	0.0039
748.476	0.0058
748.719	0.006
748.963	0.0063
749.206	0.0055
749.449	0.0034
749.692	0.0038
749.935	0.0042
750.178	0.0032
750.421	0.0027
750.664	0.0034
750.906	0.0049
751.149	0.0058
751.392	0.0043
751.635	0.0032
751.877	0.0042
752.12	0.0034
752.362	0.003
752.604	0.0028
752.847	0.0048
753.089	0.0059
753.331	0.0063
753.573	0.0045
753.816	0.0031
754.058	0.0028
754.3	0.0008
754.542	0.0009
754.783	-0.0007
755.025	-0.0004
755.267	-0.0008
755.509	-0.0004
755.75	-0.0011
755.992	0.0004
756.234	-0.0005
756.475	-0.0004
756.716	-0.0017
756.958	-0.0016
757.199	-0.0005
757.44	0.0002
757.682	-0.0013
757.923	0.0019
758.164	0.0032
758.405	0.0024
758.646	0.0047
758.887	0.0043
759.128	0.0038
759.369	0.0027
759.609	0.0038
759.85	0.0027
760.091	0.0045
760.331	0.0036
760.572	0.0012
760.812	0.0003
761.053	0.0008
761.293	0.001
761.533	0.001
761.774	0.0041
762.014	0.0041
762.254	0.0033
762.494	0.0022
762.734	0.0026
762.974	0.001
763.214	0.0017
763.454	0.0011
763.694	0.0008
763.933	0.0001
764.173	-0.0011
764.413	-0.0033
764.652	-0.0037
764.892	-0.0019
765.131	-0.0029
765.371	-0.0014
765.61	-0.0009
765.849	-0.0018
766.089	-0.0002
766.328	0.0018
766.567	0.0005
766.806	0.0005
767.045	0.0012
767.284	-0.0009
767.523	-0.0008
767.762	-0.0016
768.001	-0.0018
768.239	-0.0021
768.478	-0.0007
768.717	-0.0004
768.955	-0.0004
769.194	0.0004
769.432	0.0014
769.671	0.002
769.909	0.0023
770.148	0.0021
770.386	0.0033
770.624	0.0036
770.862	0.0051
771.1	0.0047
771.338	0.0037
771.576	0.0025
771.814	0.0041
772.052	0.004
772.29	0.0051
772.528	0.0059
772.765	0.0057
773.003	0.0071
773.24	0.008
773.478	0.0052
773.716	0.006
773.953	0.0044
774.19	0.0045
774.428	0.0068
774.665	0.0061
774.902	0.0071
775.139	0.0063
775.376	0.0052
775.613	0.005
775.85	0.005
776.087	0.0035
776.324	0.0037
776.561	0.0031
776.798	0.0017
777.034	0.0021
777.271	0.0033
777.508	0.0036
777.744	0.0049
777.981	0.0051
778.217	0.0064
778.454	0.0042
778.69	0.0044
778.926	0.0035
779.162	0.0038
779.399	0.0049
779.635	0.0041
779.871	0.0045
780.107	0.0049
780.343	0.004
780.579	0.0034
780.814	0.0043
781.05	0.0035
781.286	0.0017
781.522	0.0023
781.757	0.003
781.993	0.0036
782.228	0.0031
782.464	0.0039
782.699	0.0022
782.934	0.0021
783.17	0.0035
783.405	0.0027
783.64	0.0011
783.875	0.0009
784.11	0.0013
784.345	0.0028
784.58	0.0034
784.815	0.0039
785.05	0.0029
785.285	0.0016
785.52	0.0019
785.754	0.0015
785.989	0.0014
786.223	-0.0004
786.458	-0.0011
786.692	0.0011
786.927	0.0013
787.161	0.0016
787.396	0.0006
787.63	0.0006
787.864	-0.0004
788.098	-0.002
788.332	-0.0022
788.566	-0.0014
788.8	-0.0022
789.034	-0.0009
789.268	-0.0012
789.502	0.0004
789.736	0.0006
789.969	0.001
790.203	0.0013
790.437	0.0002
790.67	-0
790.904	-0.0011
791.137	-0.0013
791.37	-0.002
791.604	-0.0044
791.837	-0.0041
792.07	-0.0026
792.303	-0.0029
792.537	-0.0019
792.77	-0.0018
793.003	-0.0016
793.236	-0.0016
793.469	-0.0009
793.701	0.0005
793.934	0.0007
794.167	-0
794.4	-0.0001
794.632	0.0015
794.865	0.0031
795.097	0.0027
795.33	0.0008
795.562	0.0021
795.795	0.0035
796.027	0.0031
796.259	0.0038
796.491	0.0038
796.724	0.0032
796.956	0.0033
797.188	0.0024
797.42	0.0022
797.652	0.0014
797.883	0.002
798.115	0.0033
798.347	0.0029
798.579	0.0048
798.81	0.0049
799.042	0.0053
799.274	0.0043
799.505	0.0033
799.737	0.0042
799.968	0.003
800.199	0.0026
800.431	0.0027
800.662	0.0021
800.893	0.003
801.124	0.0024
801.355	0.002
801.586	0.0027
801.817	0.0023
802.048	0.0006
802.279	0.0017
802.51	0.0025
802.741	0.003
802.971	0.0034
803.202	0.0032
803.433	0.0027
803.663	0.0013
803.894	0.0013
804.124	0.001
804.354	0.0015
804.585	0.0013
804.815	0.0021
805.045	0.0019
805.275	0.0017
805.506	-0.0553
805.736	0.0432
805.966	-0.0092
806.196	0.061
