Data from 03 0.5 mM K2Cr2O7 0.3 mM BQDS 1 M H2SO4 5 min_Absorbance_0147.txt Node
Date: Tue Dec 14 05:54:46 EST 2021
User: kwabilab-user
Spectrometer: HDX00518
Trigger mode: 0
Integration Time (sec): 5.000000E-2
Scans to average: 50
Nonlinearity correction enabled: false
Boxcar width: 0
Storing dark spectrum: false
XAxis mode: Wavelengths
Number of Pixels in Spectrum: 2068
>>>>>Begin Spectral Data<<<<<
195.27	-0.1126
195.642	0.0907
196.014	-0.0594
196.386	-0.0286
196.758	-0.0329
197.129	-0.0293
197.501	-0.0317
197.872	-0.0005
198.244	0.0034
198.615	0.0261
198.986	0.0157
199.357	0.0285
199.728	0.0258
200.099	0.0054
200.47	0.0065
200.841	0.0105
201.212	0.027
201.582	0.0133
201.953	0.0106
202.323	0.0326
202.694	0.0191
203.064	0.0105
203.434	0.0175
203.804	0.0024
204.174	0.0182
204.544	0.0052
204.914	-0.0063
205.284	0.0285
205.653	0.0129
206.023	0.0117
206.393	-0.0157
206.762	0.014
207.131	0.014
207.501	-0.003
207.87	0.0221
208.239	0.0295
208.608	0.0061
208.977	0.0062
209.346	-0.009
209.715	-0.0144
210.083	-0.011
210.452	-0.0011
210.82	0.0089
211.189	-0.0216
211.557	0.0338
211.925	-0.0106
212.294	-0.0004
212.662	0.0095
213.03	-0.0065
213.398	0.0247
213.766	0.0259
214.133	0.0014
214.501	0.0136
214.869	0.0273
215.236	0.007
215.604	0.0027
215.971	0.0175
216.338	0.0321
216.705	0.0398
217.072	0.0403
217.439	0.0151
217.806	0.0273
218.173	0.0354
218.54	0.0347
218.907	0.0449
219.273	0.0555
219.64	0.0513
220.006	0.0748
220.373	0.0745
220.739	0.0841
221.105	0.0877
221.471	0.119
221.837	0.133
222.203	0.1496
222.569	0.1537
222.935	0.1918
223.3	0.1938
223.666	0.239
224.031	0.2472
224.397	0.2619
224.762	0.2781
225.127	0.3117
225.493	0.3346
225.858	0.3479
226.223	0.3778
226.588	0.4111
226.952	0.4258
227.317	0.4515
227.682	0.4488
228.046	0.471
228.411	0.4909
228.775	0.4923
229.14	0.5097
229.504	0.5299
229.868	0.5483
230.232	0.5555
230.596	0.5657
230.96	0.5829
231.324	0.5932
231.688	0.5888
232.052	0.5987
232.415	0.6105
232.779	0.629
233.142	0.6237
233.505	0.6325
233.869	0.642
234.232	0.6399
234.595	0.6425
234.958	0.6612
235.321	0.6384
235.684	0.6465
236.047	0.6399
236.409	0.6312
236.772	0.6433
237.134	0.6472
237.497	0.6418
237.859	0.6551
238.222	0.6439
238.584	0.6468
238.946	0.6433
239.308	0.6367
239.67	0.6356
240.032	0.6306
240.393	0.6401
240.755	0.6382
241.117	0.624
241.478	0.6411
241.84	0.635
242.201	0.6186
242.562	0.6092
242.924	0.6213
243.285	0.6076
243.646	0.6093
244.007	0.6172
244.368	0.6126
244.728	0.6176
245.089	0.6222
245.45	0.612
245.81	0.6159
246.171	0.6087
246.531	0.6089
246.891	0.6028
247.252	0.5946
247.612	0.5926
247.972	0.595
248.332	0.6035
248.692	0.6031
249.051	0.5985
249.411	0.5998
249.771	0.5981
250.13	0.5922
250.49	0.5986
250.849	0.594
251.208	0.5909
251.568	0.5933
251.927	0.5954
252.286	0.5907
252.645	0.5937
253.004	0.5968
253.363	0.5906
253.721	0.5911
254.08	0.5902
254.439	0.5872
254.797	0.5859
255.155	0.5816
255.514	0.5876
255.872	0.5835
256.23	0.5858
256.588	0.5853
256.946	0.5841
257.304	0.582
257.662	0.5855
258.02	0.5778
258.377	0.5736
258.735	0.5721
259.093	0.5774
259.45	0.5746
259.807	0.5703
260.165	0.5752
260.522	0.5708
260.879	0.5698
261.236	0.5659
261.593	0.5689
261.95	0.5619
262.306	0.5586
262.663	0.5583
263.02	0.5566
263.376	0.5532
263.733	0.5535
264.089	0.5534
264.445	0.5417
264.802	0.5475
265.158	0.546
265.514	0.5416
265.87	0.5389
266.226	0.5371
266.581	0.54
266.937	0.5289
267.293	0.5296
267.648	0.5278
268.004	0.5269
268.359	0.5206
268.714	0.5172
269.07	0.5142
269.425	0.5073
269.78	0.5045
270.135	0.5074
270.49	0.5079
270.844	0.5046
271.199	0.4954
271.554	0.4921
271.908	0.4903
272.263	0.4908
272.617	0.4857
272.972	0.4839
273.326	0.4801
273.68	0.4764
274.034	0.4725
274.388	0.4707
274.742	0.4626
275.096	0.4606
275.45	0.46
275.803	0.4587
276.157	0.4551
276.51	0.4513
276.864	0.4454
277.217	0.4454
277.571	0.4383
277.924	0.4373
278.277	0.4301
278.63	0.4261
278.983	0.423
279.336	0.4186
279.688	0.4161
280.041	0.4147
280.394	0.4096
280.746	0.404
281.099	0.3994
281.451	0.3946
281.803	0.3909
282.156	0.3869
282.508	0.3835
282.86	0.3778
283.212	0.3722
283.564	0.3696
283.916	0.3699
284.267	0.364
284.619	0.3593
284.971	0.3558
285.322	0.3533
285.673	0.3464
286.025	0.3429
286.376	0.3387
286.727	0.3344
287.078	0.3325
287.429	0.3276
287.78	0.3257
288.131	0.3202
288.482	0.315
288.833	0.3113
289.183	0.305
289.534	0.3026
289.884	0.2994
290.235	0.2952
290.585	0.2914
290.935	0.2886
291.285	0.2837
291.635	0.2804
291.985	0.2778
292.335	0.2731
292.685	0.2708
293.035	0.2664
293.384	0.2601
293.734	0.2592
294.083	0.2528
294.433	0.2499
294.782	0.2465
295.131	0.2419
295.48	0.2379
295.829	0.2364
296.179	0.234
296.527	0.2292
296.876	0.225
297.225	0.2235
297.574	0.2185
297.922	0.2167
298.271	0.2131
298.619	0.2092
298.968	0.2062
299.316	0.203
299.664	0.2
300.012	0.1976
300.36	0.1944
300.708	0.1917
301.056	0.1895
301.404	0.1862
301.752	0.1847
302.099	0.1803
302.447	0.1789
302.794	0.1762
303.142	0.175
303.489	0.1719
303.836	0.1707
304.183	0.1685
304.531	0.1668
304.878	0.1639
305.224	0.1638
305.571	0.1615
305.918	0.1594
306.265	0.158
306.611	0.1566
306.958	0.1561
307.304	0.1537
307.651	0.1534
307.997	0.1524
308.343	0.151
308.689	0.1497
309.035	0.1482
309.381	0.1476
309.727	0.1469
310.073	0.1476
310.419	0.1459
310.764	0.1447
311.11	0.1444
311.455	0.145
311.801	0.1444
312.146	0.1429
312.491	0.1435
312.837	0.1428
313.182	0.1436
313.527	0.1433
313.872	0.143
314.216	0.1429
314.561	0.1426
314.906	0.1438
315.251	0.1437
315.595	0.1445
315.94	0.1452
316.284	0.1447
316.628	0.145
316.972	0.1461
317.317	0.1465
317.661	0.147
318.005	0.1486
318.348	0.1484
318.692	0.1499
319.036	0.1501
319.38	0.1511
319.723	0.1518
320.067	0.1534
320.41	0.1536
320.754	0.1547
321.097	0.1571
321.44	0.1569
321.783	0.1586
322.126	0.1611
322.469	0.1613
322.812	0.1624
323.155	0.1633
323.498	0.1654
323.84	0.1671
324.183	0.1685
324.525	0.17
324.868	0.1715
325.21	0.1723
325.552	0.1747
325.894	0.1756
326.236	0.1773
326.578	0.1785
326.92	0.1801
327.262	0.1819
327.604	0.1833
327.946	0.1849
328.287	0.1863
328.629	0.1889
328.97	0.1905
329.312	0.1918
329.653	0.1935
329.994	0.1953
330.335	0.1969
330.676	0.199
331.017	0.2006
331.358	0.2022
331.699	0.2045
332.04	0.2064
332.38	0.2079
332.721	0.2093
333.061	0.2115
333.402	0.2134
333.742	0.2146
334.083	0.2167
334.423	0.2174
334.763	0.2188
335.103	0.2206
335.443	0.222
335.783	0.2237
336.123	0.2247
336.462	0.2269
336.802	0.2289
337.141	0.2292
337.481	0.2305
337.82	0.2315
338.16	0.233
338.499	0.2356
338.838	0.235
339.177	0.2383
339.516	0.2392
339.855	0.2404
340.194	0.2417
340.533	0.2434
340.872	0.2439
341.21	0.2447
341.549	0.2458
341.887	0.247
342.226	0.2476
342.564	0.2489
342.902	0.2498
343.24	0.2496
343.578	0.2507
343.916	0.2512
344.254	0.2513
344.592	0.2515
344.93	0.2525
345.268	0.253
345.605	0.253
345.943	0.2532
346.28	0.2541
346.618	0.2539
346.955	0.2539
347.292	0.2553
347.629	0.2545
347.966	0.2544
348.303	0.2559
348.64	0.2558
348.977	0.256
349.314	0.2566
349.65	0.2555
349.987	0.257
350.324	0.2559
350.66	0.2554
350.996	0.2551
351.333	0.2551
351.669	0.2552
352.005	0.2538
352.341	0.2533
352.677	0.2524
353.013	0.2515
353.349	0.2505
353.685	0.2497
354.02	0.2475
354.356	0.2464
354.691	0.2467
355.027	0.2454
355.362	0.2443
355.697	0.2444
356.033	0.2429
356.368	0.2421
356.703	0.2417
357.038	0.2402
357.373	0.2385
357.707	0.2379
358.042	0.2372
358.377	0.2366
358.711	0.2355
359.046	0.2334
359.38	0.233
359.715	0.2319
360.049	0.2311
360.383	0.2295
360.717	0.2277
361.051	0.2271
361.385	0.2261
361.719	0.2235
362.053	0.2221
362.387	0.2196
362.72	0.2186
363.054	0.216
363.387	0.2153
363.721	0.2132
364.054	0.2106
364.387	0.2095
364.721	0.2077
365.054	0.2058
365.387	0.2038
365.72	0.2027
366.053	0.2011
366.385	0.1995
366.718	0.1978
367.051	0.1957
367.383	0.1947
367.716	0.1934
368.048	0.1921
368.381	0.1902
368.713	0.1895
369.045	0.1874
369.377	0.1859
369.709	0.185
370.041	0.1837
370.373	0.182
370.705	0.1801
371.037	0.1784
371.368	0.1767
371.7	0.1761
372.031	0.1735
372.363	0.1716
372.694	0.1693
373.025	0.1668
373.356	0.1656
373.688	0.1634
374.019	0.1614
374.35	0.159
374.68	0.1576
375.011	0.1553
375.342	0.1528
375.673	0.1521
376.003	0.1486
376.334	0.1478
376.664	0.1455
376.995	0.144
377.325	0.1414
377.655	0.1406
377.985	0.1393
378.315	0.1375
378.645	0.1362
378.975	0.1346
379.305	0.1331
379.635	0.1321
379.964	0.1316
380.294	0.1292
380.623	0.1287
380.953	0.1271
381.282	0.1252
381.611	0.1231
381.941	0.1222
382.27	0.1213
382.599	0.1189
382.928	0.1173
383.257	0.1162
383.585	0.1145
383.914	0.1138
384.243	0.1113
384.571	0.1097
384.9	0.1075
385.228	0.106
385.557	0.1045
385.885	0.1025
386.213	0.1007
386.541	0.0996
386.869	0.0981
387.197	0.0955
387.525	0.0946
387.853	0.0928
388.181	0.092
388.508	0.0891
388.836	0.0883
389.164	0.0862
389.491	0.0863
389.818	0.0849
390.146	0.0832
390.473	0.0828
390.8	0.0813
391.127	0.08
391.454	0.0778
391.781	0.0779
392.108	0.0761
392.435	0.0749
392.761	0.074
393.088	0.0735
393.415	0.0721
393.741	0.0725
394.067	0.0711
394.394	0.0702
394.72	0.0683
395.046	0.0679
395.372	0.0676
395.698	0.0664
396.024	0.0652
396.35	0.0645
396.676	0.0632
397.001	0.0621
397.327	0.0618
397.653	0.0602
397.978	0.059
398.303	0.0588
398.629	0.0571
398.954	0.0557
399.279	0.0555
399.604	0.0551
399.929	0.0546
400.254	0.0537
400.579	0.0532
400.904	0.0525
401.229	0.0516
401.553	0.0509
401.878	0.0504
402.202	0.0497
402.527	0.0497
402.851	0.0487
403.175	0.0486
403.5	0.0476
403.824	0.0472
404.148	0.0473
404.472	0.0463
404.796	0.0455
405.119	0.0459
405.443	0.0459
405.767	0.0445
406.09	0.0448
406.414	0.0448
406.737	0.0437
407.061	0.0436
407.384	0.0437
407.707	0.0432
408.03	0.0426
408.353	0.0435
408.676	0.0429
408.999	0.0425
409.322	0.0427
409.645	0.0426
409.968	0.0415
410.29	0.0417
410.613	0.0421
410.935	0.042
411.258	0.042
411.58	0.0418
411.902	0.042
412.224	0.0412
412.546	0.0406
412.868	0.0409
413.19	0.0411
413.512	0.0415
413.834	0.0401
414.156	0.0411
414.477	0.0411
414.799	0.0401
415.121	0.0414
415.442	0.0413
415.763	0.0405
416.085	0.0405
416.406	0.0405
416.727	0.0404
417.048	0.0408
417.369	0.0402
417.69	0.0402
418.011	0.0399
418.331	0.0402
418.652	0.0408
418.973	0.0408
419.293	0.0403
419.614	0.0406
419.934	0.0415
420.254	0.0413
420.574	0.0406
420.895	0.0401
421.215	0.0406
421.535	0.0402
421.855	0.0401
422.174	0.0404
422.494	0.0399
422.814	0.0401
423.134	0.0406
423.453	0.0407
423.773	0.0405
424.092	0.0403
424.411	0.0404
424.731	0.0403
425.05	0.0402
425.369	0.0405
425.688	0.0405
426.007	0.0402
426.326	0.0405
426.644	0.0411
426.963	0.0407
427.282	0.0413
427.6	0.041
427.919	0.0404
428.237	0.0404
428.556	0.0407
428.874	0.041
429.192	0.0415
429.51	0.0408
429.828	0.0411
430.146	0.0407
430.464	0.0405
430.782	0.0408
431.1	0.0414
431.418	0.041
431.735	0.041
432.053	0.0411
432.37	0.0413
432.688	0.0411
433.005	0.0407
433.322	0.0414
433.639	0.0417
433.957	0.0416
434.274	0.0414
434.591	0.0412
434.907	0.0409
435.224	0.041
435.541	0.041
435.858	0.0411
436.174	0.0423
436.491	0.0409
436.807	0.0397
437.124	0.0406
437.44	0.0412
437.756	0.041
438.072	0.041
438.388	0.0415
438.704	0.0407
439.02	0.0409
439.336	0.0405
439.652	0.0404
439.968	0.0402
440.283	0.0392
440.599	0.0397
440.914	0.0403
441.23	0.0404
441.545	0.0397
441.86	0.0401
442.175	0.0403
442.491	0.0402
442.806	0.0397
443.121	0.0396
443.435	0.0386
443.75	0.0399
444.065	0.0395
444.38	0.0396
444.694	0.0397
445.009	0.0393
445.323	0.0392
445.638	0.0382
445.952	0.0395
446.266	0.0397
446.58	0.0396
446.894	0.0393
447.208	0.0389
447.522	0.0395
447.836	0.0388
448.15	0.0381
448.464	0.0386
448.777	0.0385
449.091	0.0381
449.404	0.0381
449.718	0.0377
450.031	0.0378
450.345	0.0382
450.658	0.0377
450.971	0.038
451.284	0.0374
451.597	0.0369
451.91	0.037
452.223	0.0374
452.535	0.0363
452.848	0.0377
453.161	0.0363
453.473	0.0367
453.786	0.0361
454.098	0.0359
454.411	0.0368
454.723	0.0359
455.035	0.036
455.347	0.0357
455.659	0.036
455.971	0.0362
456.283	0.0352
456.595	0.0352
456.907	0.0356
457.218	0.0349
457.53	0.0341
457.841	0.0347
458.153	0.0341
458.464	0.0347
458.776	0.0345
459.087	0.0338
459.398	0.0344
459.709	0.034
460.02	0.034
460.331	0.0327
460.642	0.0334
460.953	0.0331
461.263	0.0321
461.574	0.0325
461.885	0.0323
462.195	0.033
462.506	0.0324
462.816	0.032
463.126	0.0322
463.437	0.0322
463.747	0.0314
464.057	0.0305
464.367	0.0309
464.677	0.0306
464.987	0.03
465.296	0.0301
465.606	0.0297
465.916	0.0297
466.225	0.0296
466.535	0.0291
466.844	0.0299
467.154	0.0298
467.463	0.0283
467.772	0.0287
468.081	0.0284
468.39	0.028
468.699	0.028
469.008	0.027
469.317	0.0277
469.626	0.0266
469.935	0.027
470.243	0.0269
470.552	0.027
470.86	0.0269
471.169	0.0264
471.477	0.0265
471.785	0.0266
472.093	0.0265
472.402	0.0261
472.71	0.026
473.018	0.025
473.326	0.0246
473.633	0.025
473.941	0.0242
474.249	0.0245
474.556	0.0252
474.864	0.0242
475.171	0.0234
475.479	0.0233
475.786	0.0236
476.094	0.0232
476.401	0.0224
476.708	0.0228
477.015	0.0229
477.322	0.0224
477.629	0.0223
477.936	0.0232
478.242	0.021
478.549	0.0214
478.856	0.0214
479.162	0.0204
479.469	0.0212
479.775	0.0207
480.081	0.0205
480.388	0.0211
480.694	0.021
481	0.021
481.306	0.0197
481.612	0.0201
481.918	0.02
482.224	0.0191
482.53	0.0192
482.835	0.019
483.141	0.019
483.446	0.0188
483.752	0.0181
484.057	0.0181
484.363	0.018
484.668	0.0176
484.973	0.0167
485.278	0.017
485.583	0.0169
485.888	0.0167
486.193	0.0159
486.498	0.0154
486.803	0.0159
487.107	0.0155
487.412	0.0154
487.717	0.0156
488.021	0.0151
488.325	0.0166
488.63	0.0155
488.934	0.0154
489.238	0.0153
489.542	0.0139
489.846	0.0147
490.15	0.0143
490.454	0.0148
490.758	0.0134
491.062	0.0125
491.366	0.0133
491.669	0.0136
491.973	0.0139
492.276	0.0136
492.58	0.0129
492.883	0.0128
493.186	0.0127
493.489	0.0126
493.792	0.0116
494.096	0.011
494.399	0.0114
494.701	0.0119
495.004	0.0099
495.307	0.0114
495.61	0.01
495.912	0.0109
496.215	0.0102
496.517	0.0099
496.82	0.0107
497.122	0.0088
497.424	0.0097
497.727	0.0097
498.029	0.0087
498.331	0.0092
498.633	0.0095
498.935	0.0093
499.237	0.0091
499.538	0.0092
499.84	0.0089
500.142	0.0083
500.443	0.0071
500.745	0.0079
501.046	0.0076
501.348	0.0071
501.649	0.0064
501.95	0.0068
502.251	0.0071
502.552	0.0072
502.853	0.0067
503.154	0.0067
503.455	0.0068
503.756	0.0064
504.057	0.0069
504.357	0.0052
504.658	0.0064
504.958	0.0059
505.259	0.0067
505.559	0.006
505.859	0.0048
506.16	0.0063
506.46	0.0063
506.76	0.0059
507.06	0.005
507.36	0.0048
507.66	0.0046
507.96	0.0056
508.259	0.0049
508.559	0.0049
508.859	0.0049
509.158	0.0046
509.457	0.0044
509.757	0.0036
510.056	0.0041
510.355	0.0044
510.655	0.0035
510.954	0.0044
511.253	0.0041
511.552	0.0027
511.851	0.0048
512.149	0.003
512.448	0.0039
512.747	0.0029
513.045	0.0028
513.344	0.0022
513.642	0.0025
513.941	0.0026
514.239	0.0034
514.537	0.0019
514.836	0.0031
515.134	0.0018
515.432	0.0037
515.73	0.0023
516.028	0.0031
516.326	0.002
516.623	0.002
516.921	0.0008
517.219	0.0017
517.516	0.0021
517.814	0.0012
518.111	0.0032
518.409	-0.0003
518.706	0.0011
519.003	0.0019
519.3	0.0023
519.597	0.0004
519.894	0.0019
520.191	0.0009
520.488	0.001
520.785	0
521.082	0.002
521.378	-0.0004
521.675	0.0003
521.971	0.0003
522.268	0.0015
522.564	0.001
522.861	0.0013
523.157	0.0013
523.453	0.0013
523.749	0.0011
524.045	0.0014
524.341	0.0015
524.637	0.0008
524.933	0.0003
525.229	0.0016
525.524	-0.0006
525.82	0.0001
526.115	0.0003
526.411	0.0008
526.706	0.0007
527.002	0.0007
527.297	-0.0004
527.592	-0
527.887	0.0023
528.182	0.0005
528.477	0.0014
528.772	0.0009
529.067	0.0006
529.362	-0.0001
529.657	0.0006
529.951	0.0002
530.246	-0.0004
530.54	0.0014
530.835	-0.0002
531.129	0.0003
531.423	-0.0004
531.718	-0.0005
532.012	-0.0001
532.306	-0.0006
532.6	-0.0009
532.894	0.0002
533.188	0.0008
533.482	-0.0012
533.775	0.0003
534.069	-0.001
534.363	-0.0016
534.656	-0.001
534.95	-0.001
535.243	-0.0007
535.536	-0.0007
535.83	-0.0014
536.123	-0.0001
536.416	-0.0008
536.709	-0.0005
537.002	-0.0012
537.295	-0.0009
537.588	-0.0014
537.881	-0.0007
538.173	-0.0008
538.466	-0.001
538.759	0.0004
539.051	-0.0004
539.344	-0.001
539.636	-0.0003
539.928	-0.0006
540.22	-0.0005
540.513	-0.001
540.805	0.0002
541.097	-0.0012
541.389	-0.001
541.681	0.0004
541.972	0.0009
542.264	0.001
542.556	0
542.847	0.0002
543.139	0.0007
543.431	0.0004
543.722	0
544.013	0.0005
544.305	-0.0001
544.596	-0.0005
544.887	-0.0004
545.178	0.0002
545.469	-0.0014
545.76	-0.0006
546.051	0.0003
546.342	0.0004
546.632	-0.0006
546.923	-0.0002
547.214	-0.0002
547.504	-0.0003
547.795	-0.0009
548.085	-0.0014
548.375	-0.0007
548.666	-0.0015
548.956	-0.0006
549.246	-0.0009
549.536	0.0004
549.826	-0.0002
550.116	-0.0002
550.406	-0.0009
550.695	-0.0016
550.985	-0.0005
551.275	-0.0013
551.564	-0.001
551.854	-0.0003
552.143	-0.0016
552.433	-0.0012
552.722	-0.0017
553.011	-0.0006
553.3	-0.0001
553.589	0.0001
553.879	-0.0001
554.167	-0.0003
554.456	0.0005
554.745	0.0011
555.034	-0.0011
555.323	-0.0001
555.611	-0.0009
555.9	-0.0008
556.188	-0.0017
556.477	-0
556.765	-0.0023
557.053	-0.002
557.342	0.0002
557.63	-0.0005
557.918	-0.0003
558.206	0
558.494	-0.0002
558.782	-0.0002
559.069	0.0011
559.357	0.001
559.645	0.0005
559.932	-0.0004
560.22	-0.0003
560.507	-0.001
560.795	-0.0014
561.082	-0.0017
561.37	-0.0004
561.657	-0.0006
561.944	-0.0011
562.231	-0.0006
562.518	-0.0001
562.805	-0.0002
563.092	-0.0003
563.379	0.0004
563.665	0.0006
563.952	0
564.239	0.0002
564.525	0.0003
564.811	0.0014
565.098	0.0005
565.384	0.0002
565.67	0.0002
565.957	0.0012
566.243	0.0017
566.529	-0.0001
566.815	0.0006
567.101	0.0015
567.387	0.0015
567.672	-0.0002
567.958	0.002
568.244	0.0014
568.529	0.0006
568.815	0.0006
569.1	-0.0006
569.386	-0.0009
569.671	0.0005
569.956	-0.0005
570.242	-0.0004
570.527	-0.0006
570.812	-0.0003
571.097	0.0005
571.382	-0.0008
571.666	0.0008
571.951	-0.0004
572.236	-0.0004
572.521	-0.0002
572.805	-0.0004
573.09	-0.0005
573.374	-0.0011
573.659	-0.0007
573.943	-0.0007
574.227	-0.0007
574.511	-0.0014
574.795	-0.0004
575.079	-0.0001
575.363	-0.0009
575.647	-0.0012
575.931	-0.0003
576.215	-0.0005
576.499	-0.0001
576.782	-0.0013
577.066	-0.0003
577.349	0.0003
577.633	-0.0004
577.916	-0.0008
578.2	-0.0005
578.483	-0.0002
578.766	0.0003
579.049	-0.0005
579.332	0.001
579.615	0.0006
579.898	-0.0006
580.181	0.0002
580.464	0.001
580.746	0.0008
581.029	-0.0003
581.312	-0.0001
581.594	-0.0009
581.877	-0.0014
582.159	-0.0008
582.441	-0.0013
582.724	-0.0005
583.006	0.0003
583.288	0.0005
583.57	0.0003
583.852	0.0006
584.134	0.0003
584.416	0.0006
584.697	0.0006
584.979	-0.001
585.261	-0.0012
585.542	-0.0019
585.824	-0.0012
586.105	-0.0013
586.387	-0.0011
586.668	-0.0007
586.949	0.0001
587.231	0.0001
587.512	-0
587.793	0.0003
588.074	-0.0007
588.355	0.0004
588.636	-0.0004
588.916	-0.0009
589.197	-0.0001
589.478	0.0001
589.758	-0.0001
590.039	0
590.319	0.0007
590.6	0.0007
590.88	0.0011
591.16	0.0008
591.441	0.0009
591.721	0.0006
592.001	-0.0004
592.281	-0.0002
592.561	0.0003
592.841	0.0001
593.12	-0.0023
593.4	-0.0013
593.68	-0.0022
593.959	-0.0017
594.239	-0.0013
594.518	-0.001
594.798	0.0003
595.077	-0.0006
595.356	-0.0002
595.636	-0.0008
595.915	-0.0004
596.194	0.0007
596.473	0.0005
596.752	0.0009
597.031	0.0004
597.31	0.0002
597.588	-0
597.867	-0.0001
598.146	-0.0013
598.424	0.0001
598.703	0.0001
598.981	-0.001
599.259	-0.0018
599.538	-0.0003
599.816	0
600.094	-0.0006
600.372	-0.0012
600.65	-0.0015
600.928	-0.0005
601.206	-0.0002
601.484	-0.0003
601.762	0.0003
602.04	-0
602.317	-0.0005
602.595	0.0007
602.872	0.0001
603.15	0.001
603.427	-0.001
603.704	-0.0012
603.982	-0.0008
604.259	-0.0008
604.536	-0.0001
604.813	-0.0007
605.09	0.0001
605.367	-0.0001
605.644	-0.0012
605.921	-0.0003
606.197	-0.0006
606.474	-0.0004
606.751	-0.0003
607.027	-0.0002
607.304	-0.0005
607.58	-0.0007
607.856	-0.0016
608.133	-0.0014
608.409	-0.0002
608.685	-0.0005
608.961	-0.001
609.237	-0.0003
609.513	-0.0004
609.789	-0.0008
610.065	-0.0001
610.341	-0.0003
610.616	-0.0004
610.892	0.0004
611.167	0.0019
611.443	0.0009
611.718	-0
611.994	0.0001
612.269	0.0002
612.544	-0.0001
612.819	-0.0006
613.095	-0.0005
613.37	0.0005
613.645	-0.0004
613.919	-0.001
614.194	-0.0003
614.469	0.001
614.744	-0.0002
615.019	-0.0001
615.293	-0.0008
615.568	-0.0007
615.842	0.0003
616.116	0.0013
616.391	0.0006
616.665	0.0006
616.939	0.0002
617.213	0.0009
617.488	0.001
617.762	-0.0007
618.035	0.0003
618.309	-0.0006
618.583	0.0005
618.857	0.0012
619.131	0.0019
619.404	0.0016
619.678	0.0009
619.951	0.0007
620.225	0.0002
620.498	0.0003
620.771	0.0004
621.045	-0
621.318	-0.0009
621.591	-0.0011
621.864	-0.0012
622.137	-0.001
622.41	-0.0011
622.683	0.0003
622.956	-0.0002
623.228	0.0005
623.501	0.001
623.774	0.0007
624.046	0.0005
624.319	-0.0011
624.591	-0.0013
624.863	-0.0012
625.136	-0.0001
625.408	0.0016
625.68	0
625.952	0.0007
626.224	0.0012
626.496	0.0014
626.768	0.0005
627.04	-0.0001
627.311	-0.0001
627.583	0.0003
627.855	0.0012
628.126	0.002
628.398	0.002
628.669	0.0033
628.941	0.0029
629.212	0.0017
629.483	0.0009
629.755	0.0003
630.026	0.0013
630.297	0.0021
630.568	0.0006
630.839	0.0013
631.11	0.0009
631.38	0.002
631.651	0.0023
631.922	0.0019
632.192	0.0009
632.463	0.0007
632.733	-0.0001
633.004	0.0015
633.274	0.0013
633.545	0.002
633.815	0.0015
634.085	-0.0003
634.355	-0.0008
634.625	-0
634.895	0.0002
635.165	0.0001
635.435	-0.0005
635.705	0.0004
635.974	-0.001
636.244	-0.0003
636.514	0.0011
636.783	0.0001
637.053	0.0005
637.322	0.0015
637.591	0.0018
637.861	0.0009
638.13	0.0001
638.399	0.0001
638.668	-0.0001
638.937	-0.0016
639.206	-0.0008
639.475	-0.0007
639.744	-0.0014
640.013	0.0001
640.281	0.0011
640.55	0.0017
640.819	0.0009
641.087	0.0014
641.356	0.0019
641.624	0.0039
641.892	0.004
642.161	0.0027
642.429	0.0025
642.697	0.0012
642.965	0.0018
643.233	0.0001
643.501	-0.001
643.769	0.0002
644.037	0.0008
644.305	0.0005
644.572	0.0007
644.84	-0.0002
645.108	-0.0005
645.375	-0.0006
645.643	0.0003
645.91	0.0025
646.177	0.0029
646.445	0.0016
646.712	0.0048
646.979	0.0047
647.246	0.0044
647.513	0.0045
647.78	0.0033
648.047	0.0025
648.314	-0
648.58	0.0006
648.847	0.0014
649.114	0.0016
649.38	0.0016
649.647	0.0008
649.913	0.0012
650.18	0.0015
650.446	0.0025
650.712	0.0007
650.978	0.0003
651.245	-0.0002
651.511	0.0005
651.777	0.0011
652.043	0.0009
652.309	0.0015
652.574	0.0032
652.84	0.0029
653.106	0.0034
653.371	0.0033
653.637	0.0033
653.903	0.0034
654.168	0.0043
654.433	0.0053
654.699	0.0045
654.964	0.0057
655.229	0.0041
655.494	0.0024
655.759	-0.001
656.024	-0.0005
656.289	-0
656.554	-0.0009
656.819	-0.0001
657.084	0.002
657.349	0.0013
657.613	0.0014
657.878	0.0017
658.142	0.0006
658.407	0.0011
658.671	0.0019
658.936	0.0027
659.2	0.0017
659.464	0.0027
659.728	0.0027
659.992	0.0023
660.256	0.0021
660.52	0.0019
660.784	0.0008
661.048	0.0011
661.312	0.001
661.575	0.0006
661.839	0.0017
662.103	0.0007
662.366	0.0015
662.63	0.0005
662.893	0.0004
663.156	-0.0002
663.42	-0.0004
663.683	-0.0008
663.946	-0.0021
664.209	-0.0013
664.472	-0.0015
664.735	-0.0012
664.998	0.0004
665.261	-0.0001
665.524	-0.0008
665.786	0.0005
666.049	-0.0005
666.312	0.0003
666.574	0
666.837	0.0003
667.099	0.001
667.361	0.0007
667.624	0.0004
667.886	-0.0005
668.148	-0.0003
668.41	0.0005
668.672	0
668.934	0.0016
669.196	0.0013
669.458	0.0024
669.72	0.0025
669.982	0.0017
670.243	0.0021
670.505	0.0013
670.766	0.0022
671.028	0.0014
671.289	0.0006
671.551	-0.0002
671.812	-0.0013
672.073	0.0004
672.334	0.0005
672.596	0
672.857	-0.0007
673.118	0.0005
673.379	-0.0009
673.639	-0.0017
673.9	-0.0001
674.161	-0.0004
674.422	-0.0016
674.682	-0
674.943	-0.0001
675.203	0.0006
675.464	0
675.724	-0.0016
675.985	-0.0014
676.245	-0.0018
676.505	-0.0006
676.765	-0.0008
677.025	0
677.285	0.0002
677.545	0.0021
677.805	0.0013
678.065	0.0011
678.325	0.0014
678.585	0.0009
678.844	-0.0004
679.104	-0.0008
679.363	-0.0014
679.623	-0.001
679.882	-0.0004
680.142	-0.0009
680.401	-0.0001
680.66	0.0017
680.919	0.0031
681.178	0.0025
681.437	0.0025
681.696	0.001
681.955	0.0011
682.214	0.0016
682.473	0.0014
682.732	0.0004
682.99	0.0008
683.249	0.0016
683.508	0.0009
683.766	-0
684.024	-0.0008
684.283	0.0005
684.541	0.0006
684.799	0.0011
685.058	0.0008
685.316	-0.0001
685.574	-0.0008
685.832	-0.0009
686.09	-0.0005
686.348	-0.0015
686.606	-0.001
686.863	-0.0007
687.121	-0.0002
687.379	0.0015
687.636	0.0001
687.894	0.0015
688.151	0.0016
688.409	0.0009
688.666	-0.0008
688.923	-0.0007
689.181	-0.0006
689.438	-0.0015
689.695	-0.0009
689.952	-0.0025
690.209	-0.0009
690.466	-0.002
690.723	-0.0005
690.979	-0.0003
691.236	-0.0006
691.493	-0.0005
691.75	0.0004
692.006	0.0006
692.263	0.0002
692.519	0.0001
692.775	0.0007
693.032	0.0002
693.288	0.0001
693.544	0.0001
693.8	-0
694.056	-0.0006
694.313	-0.0004
694.568	0.0008
694.824	-0.0002
695.08	-0.0011
695.336	-0.0021
695.592	-0.0027
695.847	-0.0019
696.103	-0.0013
696.359	-0.0011
696.614	-0.0015
696.869	-0.0011
697.125	-0.0028
697.38	-0.0021
697.635	-0.0005
697.891	0.0001
698.146	0.0005
698.401	0.0003
698.656	-0.0006
698.911	0.001
699.166	0.0006
699.42	0.0011
699.675	0.0009
699.93	0.0017
700.185	0.0001
700.439	0.0006
700.694	0.0009
700.948	-0.0007
701.203	-0.001
701.457	0.0003
701.711	-0.0005
701.965	-0.0007
702.22	-0.0006
702.474	-0.001
702.728	-0.0016
702.982	-0.0014
703.236	-0.0013
703.49	-0.0003
703.743	-0.001
703.997	-0.0013
704.251	-0.0009
704.504	-0.0005
704.758	-0.0017
705.012	-0.001
705.265	0.0007
705.518	0.0024
705.772	0.0013
706.025	0.0009
706.278	-0.0002
706.531	-0.0008
706.785	-0.0008
707.038	-0.002
707.291	-0.0017
707.543	-0.0015
707.796	-0.0009
708.049	-0.001
708.302	-0.0017
708.555	-0.002
708.807	-0.0005
709.06	-0.0013
709.312	-0.0008
709.565	-0.0004
709.817	-0.0017
710.069	-0.0012
710.322	-0.0025
710.574	-0.0032
710.826	-0.0025
711.078	-0.0023
711.33	-0.0017
711.582	-0.0028
711.834	-0.0023
712.086	-0.0029
712.338	-0.0034
712.59	-0.0024
712.841	-0.0038
713.093	-0.0037
713.344	-0.0036
713.596	-0.0034
713.847	-0.0022
714.099	-0.0017
714.35	-0.0024
714.601	-0.0017
714.853	-0.0017
715.104	-0.0016
715.355	-0.0014
715.606	-0.0018
715.857	-0.0008
716.108	-0.0013
716.359	-0.0004
716.609	-0.0016
716.86	0
717.111	-0.0006
717.361	-0.0004
717.612	0.0012
717.863	0.0016
718.113	0.0029
718.363	0.0011
718.614	0.0024
718.864	0.0024
719.114	0.0026
719.364	0.0025
719.614	0.0017
719.865	0.0029
720.114	0.0038
720.364	0.003
720.614	0.0036
720.864	0.0027
721.114	0.0029
721.364	0.0022
721.613	0.0028
721.863	0.0021
722.112	0.0024
722.362	0.0011
722.611	0.0003
722.86	0.0001
723.11	0.0006
723.359	0.0001
723.608	-0.0001
723.857	-0.0003
724.106	0.0008
724.355	0.0011
724.604	0.0013
724.853	0.0016
725.102	-0.0005
725.351	-0.0008
725.599	-0.0015
725.848	-0.0009
726.097	0
726.345	-0.0003
726.594	-0.0013
726.842	-0.0013
727.09	-0.0028
727.339	-0.0045
727.587	-0.0039
727.835	-0.0033
728.083	-0.0031
728.331	-0.0029
728.579	-0.0024
728.827	-0.0011
729.075	-0.0006
729.323	-0.001
729.571	-0.0014
729.818	-0.0004
730.066	-0.0007
730.314	-0.0007
730.561	0.0003
730.809	0.0008
731.056	0.0002
731.303	0.0008
731.551	0.0006
731.798	0.0003
732.045	0.0001
732.292	0.0015
732.539	0.0015
732.786	0.0022
733.033	0.0013
733.28	0.0012
733.527	0.0013
733.774	0.0003
734.021	-0.0014
734.267	-0.0019
734.514	-0.0022
734.76	-0.0031
735.007	-0.0019
735.253	-0.0028
735.5	-0.0025
735.746	-0.0023
735.992	-0.0014
736.238	-0.0013
736.485	-0.0004
736.731	0.0004
736.977	-0.0001
737.223	-0.0008
737.469	-0.0001
737.715	0.0005
737.96	0.0003
738.206	-0.0009
738.452	-0.0006
738.697	-0.0004
738.943	-0.001
739.189	-0.0012
739.434	-0.0014
739.679	-0.0019
739.925	-0.0016
740.17	-0.0021
740.415	-0.0027
740.66	-0.0033
740.906	-0.0029
741.151	-0.0022
741.396	-0.003
741.641	-0.0033
741.886	-0.0032
742.13	-0.0015
742.375	-0.001
742.62	-0.0024
742.865	-0.0024
743.109	-0.0005
743.354	-0.0001
743.598	0.0017
743.843	0.0017
744.087	0.0024
744.331	0.0027
744.576	0.004
744.82	0.0041
745.064	0.0049
745.308	0.005
745.552	0.0042
745.796	0.0026
746.04	0.0021
746.284	0.0015
746.528	0.0026
746.771	0.0049
747.015	0.0045
747.259	0.003
747.502	0.0025
747.746	0.0018
747.989	0.0022
748.233	0.0021
748.476	0.0036
748.719	0.0043
748.963	0.005
749.206	0.005
749.449	0.0033
749.692	0.0031
749.935	0.004
750.178	0.002
750.421	0.0018
750.664	0.0015
750.906	0.0029
751.149	0.0032
751.392	0.0026
751.635	0.001
751.877	0.0014
752.12	0.0006
752.362	-0.0003
752.604	0.0006
752.847	0.0016
753.089	0.0036
753.331	0.0033
753.573	0.0024
753.816	0.0009
754.058	0.0009
754.3	-0.0007
754.542	-0.0008
754.783	-0.0006
755.025	-0.0003
755.267	0.0006
755.509	-0.0003
755.75	-0.0002
755.992	-0.0002
756.234	-0.001
756.475	-0.0012
756.716	-0.0016
756.958	-0.0014
757.199	-0.0016
757.44	-0.0012
757.682	-0.0013
757.923	-0
758.164	0.0005
758.405	0.0004
758.646	0.0019
758.887	0.0016
759.128	0.0016
759.369	0.0003
759.609	0.0018
759.85	0.0017
760.091	0.0019
760.331	0.0012
760.572	-0.0003
760.812	-0.0009
761.053	-0.0017
761.293	-0.0016
761.533	-0.0007
761.774	0.0007
762.014	0.001
762.254	0.0005
762.494	-0.0012
762.734	-0.0009
762.974	-0.0016
763.214	-0.0016
763.454	-0.0018
763.694	-0.0017
763.933	-0.0022
764.173	-0.0039
764.413	-0.0045
764.652	-0.0044
764.892	-0.0036
765.131	-0.0042
765.371	-0.0032
765.61	-0.0035
765.849	-0.0032
766.089	-0.0019
766.328	-0.0014
766.567	-0.0009
766.806	-0.0013
767.045	-0.0004
767.284	-0.0017
767.523	-0.0015
767.762	-0.002
768.001	-0.0011
768.239	-0.0013
768.478	-0.001
768.717	-0.0002
768.955	-0.0001
769.194	-0.0008
769.432	0.0005
769.671	0.0008
769.909	0.001
770.148	0.0013
770.386	0.002
770.624	0.0022
770.862	0.0027
771.1	0.0029
771.338	0.003
771.576	0.0019
771.814	0.0033
772.052	0.0031
772.29	0.0036
772.528	0.0043
772.765	0.005
773.003	0.0053
773.24	0.0046
773.478	0.003
773.716	0.0035
773.953	0.0032
774.19	0.0031
774.428	0.0052
774.665	0.005
774.902	0.0053
775.139	0.005
775.376	0.0042
775.613	0.0033
775.85	0.002
776.087	0.0017
776.324	0.0015
776.561	0.0009
776.798	0.0006
777.034	0.0008
777.271	0.0015
777.508	0.002
777.744	0.0024
777.981	0.0037
778.217	0.0035
778.454	0.0028
778.69	0.0017
778.926	0.0007
779.162	0.0007
779.399	0.0014
779.635	0.0006
779.871	0.0012
780.107	0.0013
780.343	0.0011
780.579	0.0008
780.814	0.0014
781.05	0.001
781.286	0
781.522	0.0006
781.757	0.0015
781.993	0.0009
782.228	0.0009
782.464	0.0012
782.699	0.0004
782.934	-0.0011
783.17	-0.0001
783.405	0.0002
783.64	0.0004
783.875	-0.0013
784.11	-0.0015
784.345	-0.0002
784.58	0.0009
784.815	0.0015
785.05	0.0009
785.285	-0.0011
785.52	-0.0008
785.754	-0.0022
785.989	-0.0023
786.223	-0.0038
786.458	-0.0037
786.692	-0.003
786.927	-0.002
787.161	-0.0012
787.396	-0.0017
787.63	-0.0013
787.864	-0.0018
788.098	-0.003
788.332	-0.0026
788.566	-0.0025
788.8	-0.0022
789.034	-0.0016
789.268	-0.0017
789.502	-0.0019
789.736	-0.0013
789.969	-0.0008
790.203	-0.0008
790.437	-0.002
790.67	-0.0021
790.904	-0.0034
791.137	-0.0034
791.37	-0.0034
791.604	-0.0056
791.837	-0.0056
792.07	-0.0047
792.303	-0.0052
792.537	-0.0046
792.77	-0.0049
793.003	-0.0045
793.236	-0.0039
793.469	-0.0041
793.701	-0.0028
793.934	-0.0026
794.167	-0.0022
794.4	-0.0018
794.632	-0.0005
794.865	-0.0007
795.097	0.0004
795.33	-0.0009
795.562	-0.0013
795.795	-0.0003
796.027	-0.0002
796.259	0.0001
796.491	-0.0001
796.724	-0.0002
796.956	0.0013
797.188	0.0005
797.42	-0.0001
797.652	0.0004
797.883	0.0009
798.115	0.0017
798.347	0.001
798.579	0.0042
798.81	0.0035
799.042	0.0041
799.274	0.0034
799.505	0.0027
799.737	0.0029
799.968	0.001
800.199	0.0017
800.431	0.0004
800.662	0.0011
800.893	0.0006
801.124	0.0016
801.355	0.0006
801.586	0.0009
801.817	0.0004
802.048	-0.0015
802.279	-0.0007
802.51	-0.0002
802.741	0.0008
802.971	0.0016
803.202	0.0016
803.433	0.0018
803.663	0.0003
803.894	0.0014
804.124	0.0002
804.354	0.0009
804.585	0.0013
804.815	0.0021
805.045	0.0019
805.275	0.0028
805.506	-0.0199
805.736	0.0247
805.966	0.0391
806.196	-0.0634
