Data from 03 0.5 mM K2Cr2O7 0.3 mM BQDS 1 M H2SO4 5 min_Absorbance_0073.txt Node
Date: Mon Dec 13 23:44:46 EST 2021
User: kwabilab-user
Spectrometer: HDX00518
Trigger mode: 0
Integration Time (sec): 5.000000E-2
Scans to average: 50
Nonlinearity correction enabled: false
Boxcar width: 0
Storing dark spectrum: false
XAxis mode: Wavelengths
Number of Pixels in Spectrum: 2068
>>>>>Begin Spectral Data<<<<<
195.27	-0.0026
195.642	-0.1187
196.014	0.0601
196.386	0.0444
196.758	0.0077
197.129	-0.0151
197.501	-0.0086
197.872	0.0046
198.244	0.0126
198.615	0.0361
198.986	0.0143
199.357	0.0387
199.728	0.0242
200.099	0.0581
200.47	0.0326
200.841	0.0391
201.212	0.0426
201.582	0.0442
201.953	0.0403
202.323	0.0518
202.694	0.0305
203.064	0.0301
203.434	0.0358
203.804	0.0223
204.174	0.0491
204.544	0.0484
204.914	0.037
205.284	0.0333
205.653	0.0216
206.023	0.0323
206.393	0.0041
206.762	0.059
207.131	0.0285
207.501	0.0346
207.87	0.0529
208.239	0.0432
208.608	0.0333
208.977	0.0233
209.346	0.025
209.715	0.0346
210.083	0.0271
210.452	0.0194
210.82	0.0447
211.189	0.0266
211.557	0.0625
211.925	0.0226
212.294	0.0136
212.662	0.0433
213.03	0.0219
213.398	0.0592
213.766	0.0622
214.133	0.0481
214.501	0.037
214.869	0.0497
215.236	0.0342
215.604	0.0327
215.971	0.0503
216.338	0.0513
216.705	0.0722
217.072	0.0637
217.439	0.0503
217.806	0.0641
218.173	0.0613
218.54	0.0562
218.907	0.0661
219.273	0.0842
219.64	0.081
220.006	0.0866
220.373	0.0793
220.739	0.1276
221.105	0.1292
221.471	0.1548
221.837	0.1595
222.203	0.1838
222.569	0.1971
222.935	0.2326
223.3	0.2249
223.666	0.2617
224.031	0.2743
224.397	0.2749
224.762	0.3136
225.127	0.3475
225.493	0.3448
225.858	0.3874
226.223	0.4134
226.588	0.4107
226.952	0.452
227.317	0.4509
227.682	0.4938
228.046	0.4779
228.411	0.5325
228.775	0.5245
229.14	0.5444
229.504	0.5602
229.868	0.5821
230.232	0.6058
230.596	0.6019
230.96	0.6195
231.324	0.6133
231.688	0.6142
232.052	0.6645
232.415	0.6422
232.779	0.6495
233.142	0.6629
233.505	0.6778
233.869	0.679
234.232	0.6779
234.595	0.6774
234.958	0.6871
235.321	0.6843
235.684	0.6818
236.047	0.6876
236.409	0.6944
236.772	0.6853
237.134	0.6866
237.497	0.6965
237.859	0.6984
238.222	0.6908
238.584	0.6936
238.946	0.6898
239.308	0.6826
239.67	0.6809
240.032	0.6834
240.393	0.689
240.755	0.6796
241.117	0.6791
241.478	0.6723
241.84	0.6799
242.201	0.6647
242.562	0.6631
242.924	0.6622
243.285	0.6656
243.646	0.6687
244.007	0.6612
244.368	0.6619
244.728	0.6612
245.089	0.6652
245.45	0.6651
245.81	0.6622
246.171	0.6523
246.531	0.6642
246.891	0.6569
247.252	0.6483
247.612	0.6521
247.972	0.6641
248.332	0.6608
248.692	0.6572
249.051	0.6592
249.411	0.6511
249.771	0.6544
250.13	0.6503
250.49	0.6559
250.849	0.6566
251.208	0.6506
251.568	0.6469
251.927	0.6483
252.286	0.6601
252.645	0.6573
253.004	0.6546
253.363	0.6501
253.721	0.6577
254.08	0.6558
254.439	0.6454
254.797	0.6399
255.155	0.6471
255.514	0.645
255.872	0.652
256.23	0.652
256.588	0.6537
256.946	0.648
257.304	0.645
257.662	0.6498
258.02	0.6444
258.377	0.6472
258.735	0.6484
259.093	0.639
259.45	0.641
259.807	0.6401
260.165	0.6377
260.522	0.645
260.879	0.6381
261.236	0.633
261.593	0.6349
261.95	0.6302
262.306	0.6298
262.663	0.6219
263.02	0.6259
263.376	0.618
263.733	0.6186
264.089	0.6142
264.445	0.6132
264.802	0.6096
265.158	0.6139
265.514	0.6094
265.87	0.6027
266.226	0.6012
266.581	0.6046
266.937	0.6005
267.293	0.6022
267.648	0.5877
268.004	0.5931
268.359	0.5795
268.714	0.5827
269.07	0.5812
269.425	0.5791
269.78	0.5675
270.135	0.5728
270.49	0.5718
270.844	0.5662
271.199	0.5648
271.554	0.5601
271.908	0.5542
272.263	0.5563
272.617	0.5532
272.972	0.5476
273.326	0.5442
273.68	0.5412
274.034	0.5344
274.388	0.5312
274.742	0.5279
275.096	0.5236
275.45	0.5238
275.803	0.5187
276.157	0.5162
276.51	0.5101
276.864	0.5049
277.217	0.502
277.571	0.5018
277.924	0.4937
278.277	0.4899
278.63	0.4874
278.983	0.4788
279.336	0.4761
279.688	0.4721
280.041	0.4688
280.394	0.4654
280.746	0.4594
281.099	0.4553
281.451	0.4499
281.803	0.4454
282.156	0.4411
282.508	0.4368
282.86	0.4325
283.212	0.4253
283.564	0.4226
283.916	0.4185
284.267	0.4117
284.619	0.4069
284.971	0.4075
285.322	0.4013
285.673	0.3973
286.025	0.3926
286.376	0.3875
286.727	0.3849
287.078	0.3826
287.429	0.3742
287.78	0.369
288.131	0.3662
288.482	0.361
288.833	0.3571
289.183	0.3517
289.534	0.3504
289.884	0.3449
290.235	0.3407
290.585	0.3331
290.935	0.3285
291.285	0.3239
291.635	0.3227
291.985	0.3184
292.335	0.3121
292.685	0.3091
293.035	0.3072
293.384	0.3017
293.734	0.2968
294.083	0.2931
294.433	0.2875
294.782	0.2857
295.131	0.2796
295.48	0.2749
295.829	0.2718
296.179	0.2682
296.527	0.2648
296.876	0.2608
297.225	0.257
297.574	0.2519
297.922	0.2494
298.271	0.2461
298.619	0.2412
298.968	0.2376
299.316	0.2348
299.664	0.2312
300.012	0.2291
300.36	0.2244
300.708	0.222
301.056	0.2196
301.404	0.2169
301.752	0.2134
302.099	0.2101
302.447	0.2078
302.794	0.2054
303.142	0.2025
303.489	0.1989
303.836	0.1977
304.183	0.1939
304.531	0.1927
304.878	0.1899
305.224	0.1898
305.571	0.1855
305.918	0.1832
306.265	0.1836
306.611	0.1805
306.958	0.1793
307.304	0.1778
307.651	0.1769
307.997	0.1753
308.343	0.1742
308.689	0.1724
309.035	0.1709
309.381	0.1702
309.727	0.1695
310.073	0.1696
310.419	0.1682
310.764	0.1663
311.11	0.1654
311.455	0.1656
311.801	0.1655
312.146	0.1646
312.491	0.1643
312.837	0.1632
313.182	0.1634
313.527	0.1638
313.872	0.1638
314.216	0.1643
314.561	0.1632
314.906	0.1639
315.251	0.1638
315.595	0.1648
315.94	0.1652
316.284	0.1653
316.628	0.1657
316.972	0.167
317.317	0.1671
317.661	0.167
318.005	0.168
318.348	0.1697
318.692	0.17
319.036	0.1702
319.38	0.1708
319.723	0.1719
320.067	0.173
320.41	0.1734
320.754	0.1759
321.097	0.1774
321.44	0.1766
321.783	0.179
322.126	0.1805
322.469	0.1812
322.812	0.1825
323.155	0.1844
323.498	0.1855
323.84	0.1869
324.183	0.1894
324.525	0.1915
324.868	0.1929
325.21	0.193
325.552	0.1956
325.894	0.1963
326.236	0.1983
326.578	0.1996
326.92	0.2016
327.262	0.2029
327.604	0.2048
327.946	0.2066
328.287	0.2077
328.629	0.2105
328.97	0.2116
329.312	0.2132
329.653	0.2149
329.994	0.217
330.335	0.219
330.676	0.2204
331.017	0.2234
331.358	0.2253
331.699	0.2263
332.04	0.2285
332.38	0.2296
332.721	0.2319
333.061	0.2346
333.402	0.236
333.742	0.2376
334.083	0.2397
334.423	0.2408
334.763	0.2426
335.103	0.2434
335.443	0.245
335.783	0.2462
336.123	0.2479
336.462	0.2488
336.802	0.2517
337.141	0.2528
337.481	0.2533
337.82	0.2551
338.16	0.2572
338.499	0.2589
338.838	0.2594
339.177	0.2621
339.516	0.2636
339.855	0.2651
340.194	0.2661
340.533	0.2669
340.872	0.2686
341.21	0.2694
341.549	0.2705
341.887	0.2712
342.226	0.2725
342.564	0.2737
342.902	0.2736
343.24	0.2741
343.578	0.2748
343.916	0.2766
344.254	0.2762
344.592	0.2761
344.93	0.2775
345.268	0.2773
345.605	0.2774
345.943	0.2786
346.28	0.2784
346.618	0.2783
346.955	0.2792
347.292	0.2793
347.629	0.2787
347.966	0.2797
348.303	0.2804
348.64	0.2801
348.977	0.2796
349.314	0.2809
349.65	0.2802
349.987	0.2798
350.324	0.2815
350.66	0.2797
350.996	0.2792
351.333	0.279
351.669	0.279
352.005	0.2779
352.341	0.2768
352.677	0.2757
353.013	0.275
353.349	0.2739
353.685	0.2733
354.02	0.2713
354.356	0.2705
354.691	0.2691
355.027	0.2683
355.362	0.2679
355.697	0.2669
356.033	0.2661
356.368	0.2638
356.703	0.2627
357.038	0.2628
357.373	0.261
357.707	0.2602
358.042	0.259
358.377	0.258
358.711	0.2568
359.046	0.256
359.38	0.2553
359.715	0.2539
360.049	0.2528
360.383	0.2513
360.717	0.2497
361.051	0.2481
361.385	0.247
361.719	0.2441
362.053	0.2431
362.387	0.2409
362.72	0.2393
363.054	0.2368
363.387	0.2352
363.721	0.2338
364.054	0.231
364.387	0.2286
364.721	0.2275
365.054	0.2251
365.387	0.2236
365.72	0.2209
366.053	0.2195
366.385	0.2168
366.718	0.2158
367.051	0.2154
367.383	0.2132
367.716	0.2114
368.048	0.2103
368.381	0.208
368.713	0.2071
369.045	0.2054
369.377	0.2037
369.709	0.2024
370.041	0.2011
370.373	0.1995
370.705	0.1975
371.037	0.1956
371.368	0.194
371.7	0.1936
372.031	0.19
372.363	0.1876
372.694	0.1861
373.025	0.1831
373.356	0.1805
373.688	0.1792
374.019	0.1765
374.35	0.1743
374.68	0.1723
375.011	0.1703
375.342	0.1677
375.673	0.1665
376.003	0.1633
376.334	0.162
376.664	0.1594
376.995	0.1578
377.325	0.155
377.655	0.1546
377.985	0.1527
378.315	0.1509
378.645	0.1499
378.975	0.1483
379.305	0.1465
379.635	0.1458
379.964	0.1443
380.294	0.1422
380.623	0.141
380.953	0.1391
381.282	0.1377
381.611	0.1356
381.941	0.1349
382.27	0.1329
382.599	0.1311
382.928	0.1297
383.257	0.1286
383.585	0.1263
383.914	0.125
384.243	0.123
384.571	0.1211
384.9	0.1188
385.228	0.1173
385.557	0.1155
385.885	0.1133
386.213	0.1122
386.541	0.1103
386.869	0.1081
387.197	0.106
387.525	0.105
387.853	0.103
388.181	0.1014
388.508	0.0993
388.836	0.0983
389.164	0.0964
389.491	0.096
389.818	0.0938
390.146	0.0925
390.473	0.0914
390.8	0.0906
391.127	0.0879
391.454	0.0871
391.781	0.0859
392.108	0.0853
392.435	0.0832
392.761	0.0829
393.088	0.0818
393.415	0.0809
393.741	0.0801
394.067	0.0788
394.394	0.0782
394.72	0.0768
395.046	0.0759
395.372	0.0745
395.698	0.0745
396.024	0.0727
396.35	0.072
396.676	0.0705
397.001	0.0696
397.327	0.0689
397.653	0.0682
397.978	0.0664
398.303	0.0649
398.629	0.0638
398.954	0.0633
399.279	0.0624
399.604	0.0619
399.929	0.0614
400.254	0.0605
400.579	0.0601
400.904	0.059
401.229	0.0578
401.553	0.0571
401.878	0.0565
402.202	0.0555
402.527	0.0549
402.851	0.0552
403.175	0.054
403.5	0.0538
403.824	0.0535
404.148	0.0527
404.472	0.0518
404.796	0.0514
405.119	0.0516
405.443	0.0511
405.767	0.0503
406.09	0.0501
406.414	0.0496
406.737	0.0495
407.061	0.0491
407.384	0.049
407.707	0.0488
408.03	0.048
408.353	0.0486
408.676	0.0485
408.999	0.0477
409.322	0.0479
409.645	0.0474
409.968	0.0471
410.29	0.047
410.613	0.0473
410.935	0.0472
411.258	0.0464
411.58	0.0472
411.902	0.0463
412.224	0.0461
412.546	0.0459
412.868	0.0459
413.19	0.0459
413.512	0.046
413.834	0.0452
414.156	0.0452
414.477	0.0456
414.799	0.0455
415.121	0.0451
415.442	0.0458
415.763	0.0453
416.085	0.0456
416.406	0.0456
416.727	0.0458
417.048	0.0451
417.369	0.045
417.69	0.0453
418.011	0.0449
418.331	0.045
418.652	0.0452
418.973	0.0448
419.293	0.0457
419.614	0.0452
419.934	0.0454
420.254	0.045
420.574	0.0451
420.895	0.0455
421.215	0.0453
421.535	0.0449
421.855	0.0446
422.174	0.0449
422.494	0.0448
422.814	0.0449
423.134	0.045
423.453	0.0445
423.773	0.0451
424.092	0.0454
424.411	0.045
424.731	0.045
425.05	0.045
425.369	0.0452
425.688	0.0451
426.007	0.0447
426.326	0.0449
426.644	0.0449
426.963	0.0458
427.282	0.0451
427.6	0.0446
427.919	0.0449
428.237	0.0454
428.556	0.045
428.874	0.0455
429.192	0.0458
429.51	0.0462
429.828	0.0456
430.146	0.0458
430.464	0.0445
430.782	0.0456
431.1	0.0457
431.418	0.0452
431.735	0.0452
432.053	0.0461
432.37	0.0455
432.688	0.0461
433.005	0.0458
433.322	0.0455
433.639	0.0455
433.957	0.0462
434.274	0.0455
434.591	0.0456
434.907	0.0455
435.224	0.0458
435.541	0.0452
435.858	0.046
436.174	0.046
436.491	0.0455
436.807	0.044
437.124	0.0448
437.44	0.0452
437.756	0.0453
438.072	0.0456
438.388	0.0451
438.704	0.0449
439.02	0.0456
439.336	0.0444
439.652	0.0444
439.968	0.0442
440.283	0.044
440.599	0.0438
440.914	0.0449
441.23	0.0453
441.545	0.0443
441.86	0.044
442.175	0.0448
442.491	0.0442
442.806	0.0445
443.121	0.0436
443.435	0.0438
443.75	0.0437
444.065	0.0443
444.38	0.044
444.694	0.0444
445.009	0.0432
445.323	0.0438
445.638	0.0426
445.952	0.0436
446.266	0.0437
446.58	0.044
446.894	0.0433
447.208	0.0435
447.522	0.0435
447.836	0.0425
448.15	0.0422
448.464	0.0427
448.777	0.0427
449.091	0.0426
449.404	0.0423
449.718	0.0417
450.031	0.0421
450.345	0.0418
450.658	0.0425
450.971	0.0415
451.284	0.0417
451.597	0.0415
451.91	0.0417
452.223	0.0415
452.535	0.0405
452.848	0.041
453.161	0.04
453.473	0.0409
453.786	0.0402
454.098	0.0401
454.411	0.0412
454.723	0.0394
455.035	0.0398
455.347	0.0392
455.659	0.0391
455.971	0.04
456.283	0.0391
456.595	0.0394
456.907	0.0389
457.218	0.0385
457.53	0.0386
457.841	0.0385
458.153	0.0387
458.464	0.0383
458.776	0.0386
459.087	0.0383
459.398	0.0376
459.709	0.0374
460.02	0.0378
460.331	0.0366
460.642	0.0369
460.953	0.037
461.263	0.0362
461.574	0.0361
461.885	0.0359
462.195	0.0358
462.506	0.0353
462.816	0.0352
463.126	0.0364
463.437	0.0353
463.747	0.0342
464.057	0.0345
464.367	0.0342
464.677	0.034
464.987	0.0332
465.296	0.0337
465.606	0.033
465.916	0.0336
466.225	0.0333
466.535	0.0333
466.844	0.033
467.154	0.033
467.463	0.032
467.772	0.0322
468.081	0.0321
468.39	0.0322
468.699	0.0323
469.008	0.0309
469.317	0.0307
469.626	0.0303
469.935	0.0301
470.243	0.03
470.552	0.03
470.86	0.0298
471.169	0.0294
471.477	0.0293
471.785	0.0296
472.093	0.029
472.402	0.0288
472.71	0.0292
473.018	0.0281
473.326	0.0276
473.633	0.0287
473.941	0.0284
474.249	0.0273
474.556	0.0279
474.864	0.0273
475.171	0.0271
475.479	0.0266
475.786	0.0255
476.094	0.0268
476.401	0.0258
476.708	0.0257
477.015	0.026
477.322	0.026
477.629	0.0257
477.936	0.026
478.242	0.0238
478.549	0.0245
478.856	0.0247
479.162	0.0236
479.469	0.0238
479.775	0.0244
480.081	0.0231
480.388	0.0227
480.694	0.0231
481	0.0231
481.306	0.0224
481.612	0.0227
481.918	0.0224
482.224	0.0219
482.53	0.0209
482.835	0.0216
483.141	0.0207
483.446	0.0215
483.752	0.0206
484.057	0.0208
484.363	0.0198
484.668	0.0201
484.973	0.0192
485.278	0.0195
485.583	0.0204
485.888	0.0196
486.193	0.0178
486.498	0.0176
486.803	0.018
487.107	0.018
487.412	0.0179
487.717	0.0179
488.021	0.0175
488.325	0.0184
488.63	0.0177
488.934	0.0179
489.238	0.0175
489.542	0.016
489.846	0.017
490.15	0.0172
490.454	0.016
490.758	0.0152
491.062	0.0157
491.366	0.0156
491.669	0.0157
491.973	0.0153
492.276	0.0152
492.58	0.0146
492.883	0.0146
493.186	0.0145
493.489	0.0141
493.792	0.013
494.096	0.0133
494.399	0.0137
494.701	0.0138
495.004	0.0121
495.307	0.0134
495.61	0.0121
495.912	0.0129
496.215	0.0117
496.517	0.0122
496.82	0.012
497.122	0.0115
497.424	0.0115
497.727	0.0117
498.029	0.0102
498.331	0.0113
498.633	0.0116
498.935	0.0111
499.237	0.0096
499.538	0.0099
499.84	0.0106
500.142	0.0098
500.443	0.0094
500.745	0.0097
501.046	0.0086
501.348	0.0093
501.649	0.008
501.95	0.0083
502.251	0.0087
502.552	0.009
502.853	0.0083
503.154	0.0074
503.455	0.0081
503.756	0.0076
504.057	0.009
504.357	0.007
504.658	0.0085
504.958	0.0083
505.259	0.0074
505.559	0.0069
505.859	0.0065
506.16	0.007
506.46	0.0072
506.76	0.007
507.06	0.0067
507.36	0.0065
507.66	0.0063
507.96	0.008
508.259	0.0064
508.559	0.0074
508.859	0.0063
509.158	0.0063
509.457	0.0061
509.757	0.0056
510.056	0.0053
510.355	0.0057
510.655	0.005
510.954	0.0058
511.253	0.0055
511.552	0.0057
511.851	0.0058
512.149	0.0037
512.448	0.0042
512.747	0.0049
513.045	0.0045
513.344	0.004
513.642	0.0042
513.941	0.0036
514.239	0.0042
514.537	0.0032
514.836	0.0041
515.134	0.0026
515.432	0.0043
515.73	0.0029
516.028	0.0034
516.326	0.0035
516.623	0.0028
516.921	0.0022
517.219	0.0022
517.516	0.0029
517.814	0.0028
518.111	0.0039
518.409	0.0016
518.706	0.0021
519.003	0.0035
519.3	0.002
519.597	0.0013
519.894	0.0027
520.191	0.002
520.488	0.0022
520.785	0.0016
521.082	0.0028
521.378	0.0012
521.675	0.0014
521.971	0.0009
522.268	0.0021
522.564	0.0016
522.861	0.0019
523.157	0.0017
523.453	0.0025
523.749	0.0017
524.045	0.0015
524.341	0.0018
524.637	0.001
524.933	0.0006
525.229	0.0008
525.524	-0.0001
525.82	0.0002
526.115	-0.0007
526.411	0.0012
526.706	0.0014
527.002	0.0018
527.297	-0.0001
527.592	0.0014
527.887	0.0023
528.182	0.0015
528.477	0.0006
528.772	0.0018
529.067	0.0013
529.362	0.001
529.657	0.0005
529.951	0.0008
530.246	-0.0001
530.54	0.0007
530.835	0.0006
531.129	0.001
531.423	-0.0002
531.718	0.0007
532.012	0.0003
532.306	0.0006
532.6	-0.0001
532.894	0.0005
533.188	0.0013
533.482	-0.0009
533.775	0.0003
534.069	0.0007
534.363	-0.0013
534.656	-0.0012
534.95	0.0008
535.243	-0.0001
535.536	-0.0001
535.83	-0.0013
536.123	-0.0004
536.416	0.0003
536.709	-0.0004
537.002	-0.0002
537.295	-0.0005
537.588	-0.0003
537.881	-0.0007
538.173	-0.0003
538.466	0.0001
538.759	-0.0003
539.051	-0.0008
539.344	-0.0004
539.636	0.0006
539.928	-0.0001
540.22	0.0008
540.513	0.0004
540.805	0.0011
541.097	-0.0007
541.389	-0.0004
541.681	-0.0001
541.972	0.0007
542.264	0.0005
542.556	0.0013
542.847	0.0011
543.139	0.0004
543.431	0.0001
543.722	0.0012
544.013	-0.0002
544.305	0
544.596	-0.0004
544.887	0.0012
545.178	0.0013
545.469	-0
545.76	0.0006
546.051	0.0009
546.342	-0.0008
546.632	-0.0004
546.923	-0.0002
547.214	-0.0005
547.504	-0.0002
547.795	-0.0005
548.085	-0.0009
548.375	-0.0004
548.666	-0.0013
548.956	-0.0007
549.246	-0.0013
549.536	0.0002
549.826	-0.0003
550.116	0.0008
550.406	-0.0017
550.695	-0.0015
550.985	-0.0003
551.275	-0.0008
551.564	-0.0006
551.854	0.0004
552.143	-0.0022
552.433	-0.0021
552.722	-0.002
553.011	-0.0005
553.3	-0.001
553.589	-0.0008
553.879	-0.0012
554.167	-0.0014
554.456	0.0004
554.745	0.0008
555.034	-0.0006
555.323	0.0009
555.611	0.0001
555.9	-0.0006
556.188	-0.0018
556.477	0.0005
556.765	-0.003
557.053	-0.0014
557.342	-0.0009
557.63	-0.0012
557.918	-0.0005
558.206	0.0011
558.494	0.0001
558.782	-0.0002
559.069	0.0006
559.357	0.0007
559.645	-0.0005
559.932	0.0003
560.22	-0.0001
560.507	-0.001
560.795	-0.0012
561.082	-0.0011
561.37	-0.0008
561.657	-0.0008
561.944	-0.0007
562.231	-0.0003
562.518	-0.0002
562.805	0
563.092	0.0009
563.379	0.001
563.665	0.0003
563.952	-0.0001
564.239	0.0005
564.525	0.0005
564.811	0.0012
565.098	0
565.384	-0.0007
565.67	0.0002
565.957	0.0002
566.243	0.0011
566.529	-0
566.815	-0
567.101	0.0008
567.387	-0.0002
567.672	0.0002
567.958	0.001
568.244	0.0008
568.529	0.0006
568.815	-0.0005
569.1	-0.0006
569.386	-0.0002
569.671	0.0005
569.956	0.0004
570.242	0.0007
570.527	-0.0008
570.812	0.0003
571.097	0.0003
571.382	-0.0007
571.666	0.0008
571.951	-0.0001
572.236	-0.0001
572.521	-0.0003
572.805	0.0002
573.09	-0.0007
573.374	-0.0005
573.659	-0.0007
573.943	-0.0007
574.227	-0.0003
574.511	-0.0012
574.795	-0.0001
575.079	0.0002
575.363	-0.0002
575.647	-0.0007
575.931	0.0007
576.215	-0.0009
576.499	-0.0008
576.782	-0.0011
577.066	-0.0004
577.349	-0.0003
577.633	-0.0008
577.916	-0.0003
578.2	-0.0003
578.483	-0.0005
578.766	-0.0005
579.049	-0.0005
579.332	0.0006
579.615	0.0005
579.898	0.0001
580.181	0.0005
580.464	0.0007
580.746	0.0005
581.029	-0.0007
581.312	-0.0007
581.594	-0.0007
581.877	-0.0009
582.159	-0.0009
582.441	-0.0013
582.724	-0.0012
583.006	0.0008
583.288	0.001
583.57	0.0003
583.852	0.0004
584.134	0.0003
584.416	0.0002
584.697	0.0007
584.979	0.0001
585.261	-0.001
585.542	-0.0008
585.824	-0.001
586.105	-0.0008
586.387	-0.0011
586.668	-0.0004
586.949	0.0009
587.231	0.0005
587.512	0.0005
587.793	0.0003
588.074	-0.0004
588.355	0
588.636	-0
588.916	-0.0003
589.197	-0.0001
589.478	-0.0009
589.758	-0.0002
590.039	0.0002
590.319	0.0001
590.6	0.001
590.88	0.0002
591.16	0.0009
591.441	0.0015
591.721	0.0007
592.001	-0
592.281	0.0003
592.561	-0.0007
592.841	0.0001
593.12	-0.0011
593.4	-0.0011
593.68	-0.0018
593.959	-0.0011
594.239	-0.0014
594.518	-0.0004
594.798	0.0002
595.077	-0.0007
595.356	-0.0003
595.636	-0.0011
595.915	-0.0009
596.194	-0.0001
596.473	-0
596.752	0.0004
597.031	0.001
597.31	0.0007
597.588	-0.0002
597.867	-0
598.146	-0.0008
598.424	0.0004
598.703	0.0004
598.981	-0.0013
599.259	-0.0013
599.538	-0.0012
599.816	-0.0001
600.094	0.0003
600.372	-0.0021
600.65	-0.0011
600.928	-0.0009
601.206	-0.0005
601.484	0.0001
601.762	-0.0007
602.04	-0.0005
602.317	0
602.595	0.0001
602.872	0.0003
603.15	0.0011
603.427	-0.0005
603.704	-0.0012
603.982	-0.0006
604.259	-0.0012
604.536	-0.0006
604.813	-0.0007
605.09	-0.0004
605.367	-0.0011
605.644	-0.0009
605.921	-0.0012
606.197	-0.001
606.474	-0.0005
606.751	-0.0001
607.027	-0.0008
607.304	-0
607.58	-0.0007
607.856	-0.0014
608.133	-0.0014
608.409	-0
608.685	-0.0007
608.961	-0.001
609.237	-0.0001
609.513	-0.0003
609.789	-0.0004
610.065	-0
610.341	-0.0002
610.616	0.0002
610.892	0.0008
611.167	0.0017
611.443	0.0008
611.718	0.0015
611.994	-0.0002
612.269	-0
612.544	-0.0003
612.819	-0.001
613.095	-0.0007
613.37	0.0002
613.645	-0.0011
613.919	-0.0011
614.194	-0.0001
614.469	0.0003
614.744	0.0004
615.019	-0.0013
615.293	-0.0008
615.568	-0.0008
615.842	0.0002
616.116	0.0012
616.391	0.0011
616.665	0.0013
616.939	0
617.213	0.0009
617.488	0.0014
617.762	0.0002
618.035	0.0005
618.309	-0.0006
618.583	0.0006
618.857	0.0011
619.131	0.0014
619.404	0.0004
619.678	0.0012
619.951	-0.0006
620.225	-0.0004
620.498	-0.0014
620.771	0.0002
621.045	-0.0018
621.318	-0.0015
621.591	-0.0019
621.864	-0.0017
622.137	-0.002
622.41	-0.0019
622.683	-0.0021
622.956	-0.0011
623.228	-0.0005
623.501	-0
623.774	-0.0006
624.046	-0.0009
624.319	-0.0004
624.591	-0.0011
624.863	-0.0006
625.136	0.0002
625.408	0.0007
625.68	0.0005
625.952	0.0002
626.224	0.0002
626.496	0.0002
626.768	-0.001
627.04	0
627.311	-0.0011
627.583	-0.0006
627.855	0.0007
628.126	0.0011
628.398	0.0019
628.669	0.0012
628.941	0.0027
629.212	0.0017
629.483	0.0013
629.755	0.0002
630.026	0.0002
630.297	0.0009
630.568	0.0009
630.839	0.0003
631.11	-0.0002
631.38	0.0011
631.651	0.0015
631.922	0.0015
632.192	0.0008
632.463	-0.0004
632.733	-0.0007
633.004	0.0007
633.274	0.0011
633.545	0.0006
633.815	-0.0004
634.085	-0.001
634.355	-0.0011
634.625	-0.0015
634.895	-0.0006
635.165	-0.0011
635.435	-0.001
635.705	-0.0008
635.974	-0.0015
636.244	-0.0008
636.514	-0.0002
636.783	-0.001
637.053	-0.001
637.322	-0.0008
637.591	-0.0004
637.861	-0.0018
638.13	-0.002
638.399	-0.0022
638.668	-0.0019
638.937	-0.002
639.206	-0.0027
639.475	-0.0033
639.744	-0.0024
640.013	-0.0022
640.281	-0.0012
640.55	-0.001
640.819	-0.0012
641.087	-0.0012
641.356	-0.0003
641.624	0.0001
641.892	0.0003
642.161	-0.0007
642.429	-0.0004
642.697	-0.0008
642.965	-0.0005
643.233	-0.0017
643.501	-0.0019
643.769	-0.001
644.037	0
644.305	-0.0008
644.572	-0.0007
644.84	-0.0007
645.108	-0.0017
645.375	-0.0019
645.643	-0.0009
645.91	0.0008
646.177	0.001
646.445	0.002
646.712	0.0037
646.979	0.003
647.246	0.0038
647.513	0.0039
647.78	0.0021
648.047	0.0021
648.314	-0.001
648.58	-0.001
648.847	-0.0007
649.114	0.0012
649.38	0.0004
649.647	-0.0006
649.913	-0.0008
650.18	-0
650.446	0.0006
650.712	-0.0009
650.978	-0.0011
651.245	-0.001
651.511	-0.0004
651.777	-0.0008
652.043	-0.0003
652.309	0.0006
652.574	0.0017
652.84	0.0022
653.106	0.0015
653.371	0.002
653.637	0.0028
653.903	0.0019
654.168	0.0032
654.433	0.0037
654.699	0.0028
654.964	0.0045
655.229	0.0022
655.494	0.0017
655.759	-0.0007
656.024	0.0004
656.289	-0
656.554	-0.0012
656.819	-0.0003
657.084	0.0008
657.349	0.0013
657.613	0.0011
657.878	0.0005
658.142	-0.0005
658.407	0.0001
658.671	0.0013
658.936	0.001
659.2	0.0013
659.464	0.0015
659.728	0.002
659.992	0.0004
660.256	0.0014
660.52	0.0007
660.784	0.0005
661.048	0.0007
661.312	0.0007
661.575	0.0007
661.839	0.0011
662.103	0.0005
662.366	0.0004
662.63	-0.0007
662.893	0.0003
663.156	-0.0004
663.42	-0.0011
663.683	-0.0015
663.946	-0.0026
664.209	-0.0026
664.472	-0.0025
664.735	-0.0012
664.998	-0.0006
665.261	-0.0008
665.524	-0.001
665.786	-0.0007
666.049	-0.0004
666.312	0.0009
666.574	0.0001
666.837	0.0003
667.099	0.0002
667.361	-0.0007
667.624	-0.0009
667.886	-0.0021
668.148	-0.0012
668.41	-0.0006
668.672	-0.0017
668.934	0.0005
669.196	0.001
669.458	0.0019
669.72	0.0019
669.982	0.0017
670.243	0.0014
670.505	0.0005
670.766	0.0008
671.028	0.0009
671.289	-0.0001
671.551	-0.0001
671.812	-0.0008
672.073	-0.0005
672.334	-0.0007
672.596	-0.0013
672.857	-0.0015
673.118	-0.0015
673.379	-0.0019
673.639	-0.0026
673.9	-0.002
674.161	-0.0018
674.422	-0.002
674.682	-0.0017
674.943	-0.0017
675.203	-0.0011
675.464	-0.0018
675.724	-0.0031
675.985	-0.0027
676.245	-0.0028
676.505	-0.0023
676.765	-0.0027
677.025	-0.0016
677.285	-0.002
677.545	0
677.805	0
678.065	-0.0006
678.325	-0.0006
678.585	-0.0007
678.844	-0.0021
679.104	-0.0026
679.363	-0.0027
679.623	-0.0026
679.882	-0.0027
680.142	-0.002
680.401	-0.0019
680.66	-0.0009
680.919	0.0002
681.178	-0
681.437	-0.0005
681.696	-0.0016
681.955	-0.0002
682.214	-0.0003
682.473	-0.0015
682.732	-0.0004
682.99	-0.0007
683.249	0.0004
683.508	-0.0011
683.766	-0.0015
684.024	-0.0011
684.283	-0.0004
684.541	-0.0007
684.799	-0.0004
685.058	-0.0003
685.316	-0.0011
685.574	-0.0011
685.832	-0.0017
686.09	-0.0015
686.348	-0.0033
686.606	-0.0028
686.863	-0.0028
687.121	-0.0015
687.379	-0.0009
687.636	-0.0014
687.894	-0.0005
688.151	0.0004
688.409	-0
688.666	-0.0014
688.923	-0.002
689.181	-0.0023
689.438	-0.0023
689.695	-0.0022
689.952	-0.0034
690.209	-0.0034
690.466	-0.0027
690.723	-0.0021
690.979	-0.0023
691.236	-0.0027
691.493	-0.0017
691.75	-0.0013
692.006	-0.0012
692.263	-0.0015
692.519	-0.0016
692.775	-0.0012
693.032	-0.0015
693.288	-0.0008
693.544	-0.0012
693.8	-0.0002
694.056	-0.0007
694.313	-0.0007
694.568	-0.0007
694.824	-0.0017
695.08	-0.0014
695.336	-0.0024
695.592	-0.0028
695.847	-0.0017
696.103	-0.0013
696.359	-0.0018
696.614	-0.002
696.869	-0.0018
697.125	-0.0031
697.38	-0.0024
697.635	-0.0017
697.891	-0.0009
698.146	-0.0006
698.401	-0.0008
698.656	-0.0016
698.911	-0.0015
699.166	-0.0005
699.42	-0.0002
699.675	0.0001
699.93	-0.0005
700.185	-0.0009
700.439	-0.0005
700.694	-0.001
700.948	-0.0013
701.203	-0.0013
701.457	-0.0027
701.711	-0.0031
701.965	-0.0025
702.22	-0.0021
702.474	-0.0029
702.728	-0.0015
702.982	-0.0017
703.236	-0.001
703.49	-0.0011
703.743	-0.0014
703.997	-0.0015
704.251	-0.002
704.504	-0.0009
704.758	-0.0026
705.012	-0.0023
705.265	-0.0011
705.518	-0.0012
705.772	-0.0013
706.025	-0.0011
706.278	-0.0016
706.531	-0.0017
706.785	-0.0027
707.038	-0.0022
707.291	-0.0021
707.543	-0.003
707.796	-0.0023
708.049	-0.0028
708.302	-0.0033
708.555	-0.0031
708.807	-0.0017
709.06	-0.0017
709.312	-0.0014
709.565	-0.0021
709.817	-0.0033
710.069	-0.0022
710.322	-0.0036
710.574	-0.0043
710.826	-0.0036
711.078	-0.0035
711.33	-0.0033
711.582	-0.0036
711.834	-0.0044
712.086	-0.0046
712.338	-0.0053
712.59	-0.0053
712.841	-0.0056
713.093	-0.0057
713.344	-0.0058
713.596	-0.0047
713.847	-0.0036
714.099	-0.0039
714.35	-0.0039
714.601	-0.0036
714.853	-0.003
715.104	-0.0029
715.355	-0.0031
715.606	-0.0027
715.857	-0.0019
716.108	-0.0028
716.359	-0.002
716.609	-0.0025
716.86	-0.0027
717.111	-0.002
717.361	-0.0018
717.612	0.0002
717.863	-0.0004
718.113	0.0012
718.363	0.0005
718.614	0.0013
718.864	0.0016
719.114	0.0005
719.364	0.0011
719.614	0.001
719.865	0.0008
720.114	0.0017
720.364	0.002
720.614	0.0026
720.864	0.0015
721.114	0.0018
721.364	0.0012
721.613	0.0019
721.863	0.0009
722.112	0.0008
722.362	0.0006
722.611	-0.0009
722.86	-0.0012
723.11	-0.0006
723.359	-0.001
723.608	-0.0007
723.857	-0.0013
724.106	0
724.355	0.0001
724.604	-0
724.853	0.0002
725.102	-0.0023
725.351	-0.0015
725.599	-0.0027
725.848	-0.0023
726.097	-0.0022
726.345	-0.0023
726.594	-0.0029
726.842	-0.0019
727.09	-0.0036
727.339	-0.0042
727.587	-0.0047
727.835	-0.0044
728.083	-0.0035
728.331	-0.0047
728.579	-0.0039
728.827	-0.0031
729.075	-0.0022
729.323	-0.0028
729.571	-0.0028
729.818	-0.0017
730.066	-0.0024
730.314	-0.0014
730.561	-0.0003
730.809	-0.0004
731.056	-0.0007
731.303	-0.0005
731.551	-0.0006
731.798	-0.0003
732.045	-0.0007
732.292	0.001
732.539	0.0007
732.786	0.002
733.033	0.001
733.28	0.0008
733.527	0.0009
733.774	0.0009
734.021	-0.0013
734.267	-0.0019
734.514	-0.0021
734.76	-0.0031
735.007	-0.0025
735.253	-0.0032
735.5	-0.0027
735.746	-0.0027
735.992	-0.0023
736.238	-0.0025
736.485	-0.0016
736.731	-0.0011
736.977	-0.002
737.223	-0.0022
737.469	-0.0022
737.715	-0.0017
737.96	-0.0022
738.206	-0.0029
738.452	-0.0027
738.697	-0.0027
738.943	-0.0025
739.189	-0.0029
739.434	-0.0017
739.679	-0.0033
739.925	-0.0036
740.17	-0.0049
740.415	-0.0056
740.66	-0.0063
740.906	-0.006
741.151	-0.0052
741.396	-0.0059
741.641	-0.0058
741.886	-0.0057
742.13	-0.0036
742.375	-0.0038
742.62	-0.0037
742.865	-0.0032
743.109	-0.0013
743.354	-0.0004
743.598	0.0001
743.843	-0.0003
744.087	0.0005
744.331	0.0014
744.576	0.0016
744.82	0.0026
745.064	0.0022
745.308	0.0027
745.552	0.0016
745.796	0.0006
746.04	0.0013
746.284	0.001
746.528	0.0013
746.771	0.0032
747.015	0.002
747.259	0.001
747.502	0.0009
747.746	-0.0001
747.989	0.0006
748.233	-0
748.476	0.0011
748.719	0.0014
748.963	0.0029
749.206	0.0031
749.449	0.0009
749.692	0.0012
749.935	0.0016
750.178	-0.0005
750.421	-0.0002
750.664	-0.0007
750.906	0.0009
751.149	0.0002
751.392	0.0004
751.635	-0.0009
751.877	-0.0008
752.12	-0.0011
752.362	-0.0008
752.604	-0.0008
752.847	0.0007
753.089	0.0011
753.331	0.0013
753.573	0.0002
753.816	-0.0008
754.058	-0.0017
754.3	-0.0029
754.542	-0.0022
754.783	-0.0025
755.025	-0.0022
755.267	-0.0007
755.509	-0.0017
755.75	-0.0011
755.992	-0.0015
756.234	-0.0024
756.475	-0.0026
756.716	-0.0023
756.958	-0.0025
757.199	-0.0019
757.44	-0.0017
757.682	-0.0017
757.923	-0.0012
758.164	-0.0006
758.405	-0.0008
758.646	0.0006
758.887	0.0013
759.128	0.0003
759.369	-0.0003
759.609	0.001
759.85	0.0004
760.091	0.0009
760.331	0.0008
760.572	-0.0001
760.812	-0.0004
761.053	-0.0013
761.293	-0.0011
761.533	0.0001
761.774	0.0008
762.014	0.0009
762.254	0.0003
762.494	-0.0008
762.734	-0.0008
762.974	-0.0026
763.214	-0.0019
763.454	-0.0017
763.694	-0.0019
763.933	-0.0025
764.173	-0.0045
764.413	-0.0052
764.652	-0.0051
764.892	-0.0046
765.131	-0.0039
765.371	-0.0035
765.61	-0.0035
765.849	-0.0036
766.089	-0.0021
766.328	-0.002
766.567	-0.0019
766.806	-0.0017
767.045	-0.0009
767.284	-0.0013
767.523	-0.0013
767.762	-0.0019
768.001	-0.0014
768.239	-0.0012
768.478	-0.0006
768.717	0.0004
768.955	-0
769.194	-0.0009
769.432	0.0013
769.671	0.0016
769.909	0.0009
770.148	0.0009
770.386	0.0018
770.624	0.0022
770.862	0.002
771.1	0.0025
771.338	0.0019
771.576	-0.0003
771.814	0.0008
772.052	0.0021
772.29	0.002
772.528	0.0029
772.765	0.004
773.003	0.0039
773.24	0.0033
773.478	0.0017
773.716	0.002
773.953	0.0017
774.19	0.0016
774.428	0.0028
774.665	0.003
774.902	0.0038
775.139	0.0044
775.376	0.0031
775.613	0.0029
775.85	0.0025
776.087	0.0016
776.324	0.0017
776.561	0.0009
776.798	-0.0001
777.034	0.0004
777.271	0.0013
777.508	0.0019
777.744	0.0021
777.981	0.0029
778.217	0.0027
778.454	0.0015
778.69	0.0007
778.926	-0.0004
779.162	-0.0005
779.399	-0.001
779.635	-0.0016
779.871	-0.0014
780.107	-0.0015
780.343	-0.0019
780.579	-0.0007
780.814	-0.0019
781.05	-0.0005
781.286	-0.0017
781.522	-0.0013
781.757	-0.0009
781.993	-0.0007
782.228	-0.0018
782.464	-0.0006
782.699	-0.0024
782.934	-0.003
783.17	-0.0029
783.405	-0.0023
783.64	-0.0028
783.875	-0.0035
784.11	-0.0041
784.345	-0.0026
784.58	-0.0026
784.815	-0.0024
785.05	-0.0033
785.285	-0.0038
785.52	-0.0035
785.754	-0.0052
785.989	-0.0052
786.223	-0.0061
786.458	-0.0058
786.692	-0.0053
786.927	-0.0038
787.161	-0.0036
787.396	-0.0047
787.63	-0.0041
787.864	-0.0063
788.098	-0.0055
788.332	-0.0045
788.566	-0.004
788.8	-0.0036
789.034	-0.0023
789.268	-0.0021
789.502	-0.0021
789.736	-0.0023
789.969	-0.0028
790.203	-0.0026
790.437	-0.0043
790.67	-0.0049
790.904	-0.0061
791.137	-0.0064
791.37	-0.0064
791.604	-0.0074
791.837	-0.0076
792.07	-0.0063
792.303	-0.0064
792.537	-0.0058
792.77	-0.0063
793.003	-0.0057
793.236	-0.0052
793.469	-0.0056
793.701	-0.0043
793.934	-0.0034
794.167	-0.0028
794.4	-0.0028
794.632	-0.0024
794.865	-0.0018
795.097	-0.0018
795.33	-0.0033
795.562	-0.0013
795.795	-0.0012
796.027	-0.0006
796.259	-0.0005
796.491	-0.0003
796.724	-0.0003
796.956	0.0012
797.188	0.0007
797.42	0.0007
797.652	0.0008
797.883	0.0003
798.115	0.0009
798.347	0.0006
798.579	0.0021
798.81	0.0025
799.042	0.0028
799.274	0.0013
799.505	0.0009
799.737	0.0013
799.968	0.0003
800.199	-0.0007
800.431	-0.0008
800.662	-0.0008
800.893	0.0001
801.124	-0.0009
801.355	-0.0011
801.586	-0.0014
801.817	-0.0018
802.048	-0.003
802.279	-0.0031
802.51	-0.0024
802.741	-0.0007
802.971	0.0005
803.202	0.0002
803.433	0.0013
803.663	-0.0002
803.894	-0.0011
804.124	-0.002
804.354	-0.0006
804.585	-0.0011
804.815	0.0001
805.045	-0.0004
805.275	0.0001
805.506	-0.0467
805.736	0.0483
805.966	0.1489
806.196	-0.0049
