Data from 03 0.5 mM K2Cr2O7 0.3 mM BQDS 1 M H2SO4 5 min_Absorbance_0173.txt Node
Date: Tue Dec 14 08:04:44 EST 2021
User: kwabilab-user
Spectrometer: HDX00518
Trigger mode: 0
Integration Time (sec): 5.000000E-2
Scans to average: 50
Nonlinearity correction enabled: false
Boxcar width: 0
Storing dark spectrum: false
XAxis mode: Wavelengths
Number of Pixels in Spectrum: 2068
>>>>>Begin Spectral Data<<<<<
195.27	0.0943
195.642	0.3188
196.014	0.0799
196.386	0.0586
196.758	-0.0046
197.129	-0.0059
197.501	-0.0153
197.872	0.0069
198.244	0.0238
198.615	0.0535
198.986	0.0504
199.357	0.0532
199.728	0.0377
200.099	0.0555
200.47	0.0197
200.841	0.0338
201.212	0.0463
201.582	0.0564
201.953	0.0485
202.323	0.0361
202.694	0.027
203.064	0.0352
203.434	0.0389
203.804	0.0232
204.174	0.0381
204.544	0.0377
204.914	0.029
205.284	0.0482
205.653	0.0221
206.023	0.0187
206.393	0.0115
206.762	0.0414
207.131	0.0517
207.501	0.0389
207.87	0.0434
208.239	0.0392
208.608	0.0174
208.977	0.0188
209.346	0.0293
209.715	0.0333
210.083	0.018
210.452	0.0421
210.82	0.0579
211.189	0.0308
211.557	0.0398
211.925	-0.0004
212.294	0.0394
212.662	0.0309
213.03	0.0328
213.398	0.0572
213.766	0.0611
214.133	0.0589
214.501	0.0563
214.869	0.0422
215.236	0.0297
215.604	0.0606
215.971	0.0585
216.338	0.0589
216.705	0.0565
217.072	0.0719
217.439	0.0529
217.806	0.0785
218.173	0.0696
218.54	0.0867
218.907	0.0972
219.273	0.0956
219.64	0.0865
220.006	0.104
220.373	0.0983
220.739	0.1227
221.105	0.1435
221.471	0.1667
221.837	0.1617
222.203	0.171
222.569	0.2084
222.935	0.2229
223.3	0.2307
223.666	0.2473
224.031	0.2975
224.397	0.2873
224.762	0.2986
225.127	0.3521
225.493	0.3502
225.858	0.3815
226.223	0.4226
226.588	0.4281
226.952	0.4619
227.317	0.4745
227.682	0.4931
228.046	0.4816
228.411	0.5206
228.775	0.537
229.14	0.5433
229.504	0.5621
229.868	0.5936
230.232	0.5776
230.596	0.5981
230.96	0.6188
231.324	0.6046
231.688	0.6218
232.052	0.6407
232.415	0.6268
232.779	0.6367
233.142	0.6487
233.505	0.6548
233.869	0.6561
234.232	0.6637
234.595	0.6505
234.958	0.6732
235.321	0.6587
235.684	0.65
236.047	0.6566
236.409	0.6507
236.772	0.671
237.134	0.6624
237.497	0.6696
237.859	0.6659
238.222	0.6614
238.584	0.6512
238.946	0.6505
239.308	0.648
239.67	0.642
240.032	0.6479
240.393	0.6478
240.755	0.6367
241.117	0.6413
241.478	0.6379
241.84	0.6405
242.201	0.6244
242.562	0.625
242.924	0.6212
243.285	0.6258
243.646	0.6193
244.007	0.6211
244.368	0.6172
244.728	0.6233
245.089	0.616
245.45	0.6117
245.81	0.6143
246.171	0.6131
246.531	0.6038
246.891	0.6097
247.252	0.6073
247.612	0.6023
247.972	0.5957
248.332	0.6021
248.692	0.6021
249.051	0.6037
249.411	0.6093
249.771	0.5874
250.13	0.5919
250.49	0.5942
250.849	0.5944
251.208	0.5902
251.568	0.5944
251.927	0.5893
252.286	0.591
252.645	0.585
253.004	0.5897
253.363	0.589
253.721	0.586
254.08	0.5866
254.439	0.5878
254.797	0.5741
255.155	0.5804
255.514	0.5802
255.872	0.5856
256.23	0.5757
256.588	0.5783
256.946	0.5716
257.304	0.5761
257.662	0.5749
258.02	0.5763
258.377	0.5716
258.735	0.569
259.093	0.5657
259.45	0.5661
259.807	0.5706
260.165	0.5687
260.522	0.5613
260.879	0.5609
261.236	0.5636
261.593	0.5603
261.95	0.5548
262.306	0.5577
262.663	0.5499
263.02	0.5501
263.376	0.5501
263.733	0.5453
264.089	0.5398
264.445	0.5386
264.802	0.5348
265.158	0.5387
265.514	0.5315
265.87	0.5311
266.226	0.5304
266.581	0.5282
266.937	0.5192
267.293	0.521
267.648	0.5185
268.004	0.5182
268.359	0.511
268.714	0.5064
269.07	0.5092
269.425	0.5048
269.78	0.5006
270.135	0.4942
270.49	0.4978
270.844	0.4952
271.199	0.486
271.554	0.4847
271.908	0.4826
272.263	0.4853
272.617	0.481
272.972	0.4726
273.326	0.4665
273.68	0.4688
274.034	0.4611
274.388	0.4623
274.742	0.4595
275.096	0.4539
275.45	0.454
275.803	0.4476
276.157	0.4478
276.51	0.4426
276.864	0.4357
277.217	0.4321
277.571	0.4297
277.924	0.4247
278.277	0.4219
278.63	0.4202
278.983	0.4133
279.336	0.4108
279.688	0.4049
280.041	0.4025
280.394	0.3972
280.746	0.3941
281.099	0.3908
281.451	0.3866
281.803	0.3806
282.156	0.376
282.508	0.3737
282.86	0.37
283.212	0.3636
283.564	0.3612
283.916	0.3585
284.267	0.3504
284.619	0.3489
284.971	0.3462
285.322	0.3426
285.673	0.3375
286.025	0.3316
286.376	0.331
286.727	0.3279
287.078	0.3257
287.429	0.3175
287.78	0.316
288.131	0.3121
288.482	0.3065
288.833	0.3021
289.183	0.2968
289.534	0.2955
289.884	0.2927
290.235	0.2868
290.585	0.2838
290.935	0.2793
291.285	0.2735
291.635	0.2719
291.985	0.2673
292.335	0.2635
292.685	0.2612
293.035	0.2572
293.384	0.2532
293.734	0.2502
294.083	0.2457
294.433	0.2424
294.782	0.2401
295.131	0.2351
295.48	0.2307
295.829	0.228
296.179	0.224
296.527	0.2214
296.876	0.2179
297.225	0.2142
297.574	0.2102
297.922	0.2084
298.271	0.2066
298.619	0.2008
298.968	0.1989
299.316	0.196
299.664	0.1934
300.012	0.1908
300.36	0.1874
300.708	0.1845
301.056	0.1813
301.404	0.1792
301.752	0.178
302.099	0.1743
302.447	0.1728
302.794	0.1701
303.142	0.1681
303.489	0.1657
303.836	0.164
304.183	0.1625
304.531	0.161
304.878	0.1587
305.224	0.1576
305.571	0.1549
305.918	0.1536
306.265	0.153
306.611	0.1507
306.958	0.1499
307.304	0.1481
307.651	0.1478
307.997	0.1471
308.343	0.1451
308.689	0.1439
309.035	0.1431
309.381	0.1428
309.727	0.1415
310.073	0.1411
310.419	0.1406
310.764	0.1388
311.11	0.1395
311.455	0.1394
311.801	0.1386
312.146	0.1383
312.491	0.139
312.837	0.1382
313.182	0.1373
313.527	0.1385
313.872	0.1379
314.216	0.1381
314.561	0.1383
314.906	0.1378
315.251	0.139
315.595	0.1395
315.94	0.1395
316.284	0.1398
316.628	0.1403
316.972	0.1412
317.317	0.1415
317.661	0.141
318.005	0.1425
318.348	0.1441
318.692	0.1451
319.036	0.1451
319.38	0.1453
319.723	0.1466
320.067	0.1476
320.41	0.1495
320.754	0.1502
321.097	0.1513
321.44	0.1517
321.783	0.1535
322.126	0.155
322.469	0.1552
322.812	0.1568
323.155	0.1586
323.498	0.1594
323.84	0.1605
324.183	0.163
324.525	0.1647
324.868	0.166
325.21	0.1666
325.552	0.1691
325.894	0.1702
326.236	0.1708
326.578	0.1725
326.92	0.1744
327.262	0.1763
327.604	0.1775
327.946	0.1797
328.287	0.1811
328.629	0.1835
328.97	0.1841
329.312	0.1856
329.653	0.1869
329.994	0.1891
330.335	0.1908
330.676	0.1929
331.017	0.1948
331.358	0.1967
331.699	0.1981
332.04	0.1997
332.38	0.2012
332.721	0.2031
333.061	0.205
333.402	0.2063
333.742	0.2086
334.083	0.2105
334.423	0.2109
334.763	0.2129
335.103	0.2142
335.443	0.2156
335.783	0.2172
336.123	0.218
336.462	0.2198
336.802	0.2221
337.141	0.2233
337.481	0.2243
337.82	0.2258
338.16	0.2264
338.499	0.2283
338.838	0.2297
339.177	0.232
339.516	0.2332
339.855	0.2338
340.194	0.2359
340.533	0.2365
340.872	0.2374
341.21	0.2391
341.549	0.2399
341.887	0.2403
342.226	0.2414
342.564	0.2421
342.902	0.2429
343.24	0.2431
343.578	0.2439
343.916	0.2448
344.254	0.2455
344.592	0.2452
344.93	0.2459
345.268	0.246
345.605	0.2461
345.943	0.2462
346.28	0.247
346.618	0.2474
346.955	0.2481
347.292	0.2476
347.629	0.2484
347.966	0.2492
348.303	0.2494
348.64	0.2498
348.977	0.2499
349.314	0.2496
349.65	0.2492
349.987	0.2499
350.324	0.2504
350.66	0.2492
350.996	0.2482
351.333	0.2488
351.669	0.2479
352.005	0.2478
352.341	0.2464
352.677	0.2462
353.013	0.2454
353.349	0.2441
353.685	0.2427
354.02	0.2419
354.356	0.2411
354.691	0.2396
355.027	0.2383
355.362	0.2388
355.697	0.238
356.033	0.2366
356.368	0.2356
356.703	0.2349
357.038	0.2341
357.373	0.2325
357.707	0.2316
358.042	0.2307
358.377	0.2313
358.711	0.2292
359.046	0.2275
359.38	0.227
359.715	0.2264
360.049	0.2252
360.383	0.2236
360.717	0.2226
361.051	0.2215
361.385	0.2205
361.719	0.2176
362.053	0.2162
362.387	0.2146
362.72	0.2132
363.054	0.2111
363.387	0.2095
363.721	0.2078
364.054	0.2058
364.387	0.2035
364.721	0.2026
365.054	0.2006
365.387	0.1989
365.72	0.1966
366.053	0.1951
366.385	0.1936
366.718	0.1924
367.051	0.1908
367.383	0.1897
367.716	0.1881
368.048	0.1871
368.381	0.1851
368.713	0.1841
369.045	0.1825
369.377	0.181
369.709	0.1796
370.041	0.1795
370.373	0.1767
370.705	0.1745
371.037	0.1735
371.368	0.1717
371.7	0.171
372.031	0.1687
372.363	0.167
372.694	0.1648
373.025	0.1625
373.356	0.16
373.688	0.1595
374.019	0.1566
374.35	0.1546
374.68	0.153
375.011	0.1508
375.342	0.1486
375.673	0.1469
376.003	0.1445
376.334	0.1436
376.664	0.1416
376.995	0.1396
377.325	0.1377
377.655	0.1366
377.985	0.1351
378.315	0.133
378.645	0.1319
378.975	0.131
379.305	0.1294
379.635	0.1285
379.964	0.1275
380.294	0.1254
380.623	0.1246
380.953	0.1232
381.282	0.1214
381.611	0.1197
381.941	0.1187
382.27	0.1168
382.599	0.1154
382.928	0.1137
383.257	0.1128
383.585	0.1106
383.914	0.1103
384.243	0.1082
384.571	0.1059
384.9	0.1041
385.228	0.102
385.557	0.1006
385.885	0.0991
386.213	0.0977
386.541	0.0964
386.869	0.0942
387.197	0.0924
387.525	0.0919
387.853	0.0891
388.181	0.0881
388.508	0.0868
388.836	0.0854
389.164	0.0833
389.491	0.0829
389.818	0.0808
390.146	0.0801
390.473	0.0791
390.8	0.0775
391.127	0.0762
391.454	0.0755
391.781	0.0742
392.108	0.073
392.435	0.0717
392.761	0.0715
393.088	0.0704
393.415	0.0701
393.741	0.0691
394.067	0.0683
394.394	0.0673
394.72	0.0658
395.046	0.0653
395.372	0.0645
395.698	0.0638
396.024	0.0627
396.35	0.0614
396.676	0.0605
397.001	0.0594
397.327	0.059
397.653	0.0581
397.978	0.0566
398.303	0.0561
398.629	0.0545
398.954	0.0533
399.279	0.053
399.604	0.0527
399.929	0.0519
400.254	0.0514
400.579	0.0507
400.904	0.05
401.229	0.0489
401.553	0.0492
401.878	0.0485
402.202	0.0474
402.527	0.0468
402.851	0.0472
403.175	0.0462
403.5	0.0458
403.824	0.0454
404.148	0.045
404.472	0.0439
404.796	0.0441
405.119	0.0437
405.443	0.0429
405.767	0.042
406.09	0.0425
406.414	0.0421
406.737	0.0418
407.061	0.0417
407.384	0.0418
407.707	0.0415
408.03	0.0407
408.353	0.0412
408.676	0.0405
408.999	0.0405
409.322	0.0411
409.645	0.0407
409.968	0.0403
410.29	0.04
410.613	0.0404
410.935	0.0397
411.258	0.0399
411.58	0.0391
411.902	0.0393
412.224	0.0391
412.546	0.0388
412.868	0.0388
413.19	0.0387
413.512	0.0393
413.834	0.0385
414.156	0.0388
414.477	0.0391
414.799	0.0387
415.121	0.0395
415.442	0.0386
415.763	0.0388
416.085	0.0386
416.406	0.0393
416.727	0.0394
417.048	0.0384
417.369	0.0383
417.69	0.0384
418.011	0.0375
418.331	0.0386
418.652	0.0388
418.973	0.0387
419.293	0.0386
419.614	0.0394
419.934	0.0399
420.254	0.0392
420.574	0.0392
420.895	0.039
421.215	0.0392
421.535	0.0387
421.855	0.0385
422.174	0.0383
422.494	0.0383
422.814	0.0384
423.134	0.0383
423.453	0.0388
423.773	0.0389
424.092	0.0389
424.411	0.0382
424.731	0.0386
425.05	0.0384
425.369	0.0387
425.688	0.0388
426.007	0.0388
426.326	0.0387
426.644	0.0384
426.963	0.0396
427.282	0.0392
427.6	0.0387
427.919	0.0384
428.237	0.039
428.556	0.039
428.874	0.039
429.192	0.0391
429.51	0.0394
429.828	0.0388
430.146	0.0386
430.464	0.0386
430.782	0.0389
431.1	0.0391
431.418	0.0383
431.735	0.0387
432.053	0.0391
432.37	0.0393
432.688	0.0393
433.005	0.0393
433.322	0.0392
433.639	0.0399
433.957	0.0399
434.274	0.0394
434.591	0.0391
434.907	0.0387
435.224	0.0391
435.541	0.0391
435.858	0.0396
436.174	0.0399
436.491	0.0388
436.807	0.038
437.124	0.0385
437.44	0.0394
437.756	0.0385
438.072	0.0399
438.388	0.039
438.704	0.0385
439.02	0.0391
439.336	0.0387
439.652	0.038
439.968	0.0377
440.283	0.0381
440.599	0.0383
440.914	0.0388
441.23	0.0388
441.545	0.038
441.86	0.0382
442.175	0.0381
442.491	0.0383
442.806	0.0385
443.121	0.0382
443.435	0.0372
443.75	0.0374
444.065	0.0376
444.38	0.0378
444.694	0.0378
445.009	0.0376
445.323	0.0377
445.638	0.0369
445.952	0.0382
446.266	0.0382
446.58	0.0375
446.894	0.0375
447.208	0.0373
447.522	0.0374
447.836	0.0367
448.15	0.0359
448.464	0.0368
448.777	0.0369
449.091	0.0361
449.404	0.0371
449.718	0.0367
450.031	0.0361
450.345	0.0366
450.658	0.0367
450.971	0.0361
451.284	0.0362
451.597	0.036
451.91	0.0359
452.223	0.036
452.535	0.0351
452.848	0.0352
453.161	0.035
453.473	0.0354
453.786	0.0346
454.098	0.0347
454.411	0.0354
454.723	0.0341
455.035	0.0342
455.347	0.0336
455.659	0.0336
455.971	0.0342
456.283	0.0339
456.595	0.0339
456.907	0.0335
457.218	0.0332
457.53	0.0323
457.841	0.0329
458.153	0.0327
458.464	0.0328
458.776	0.0325
459.087	0.0318
459.398	0.0324
459.709	0.0314
460.02	0.032
460.331	0.0308
460.642	0.0322
460.953	0.0309
461.263	0.0306
461.574	0.0305
461.885	0.0303
462.195	0.0312
462.506	0.0303
462.816	0.0305
463.126	0.0303
463.437	0.0299
463.747	0.0293
464.057	0.0286
464.367	0.0288
464.677	0.0284
464.987	0.0284
465.296	0.029
465.606	0.0276
465.916	0.028
466.225	0.0279
466.535	0.0276
466.844	0.0285
467.154	0.0275
467.463	0.0273
467.772	0.0272
468.081	0.027
468.39	0.0269
468.699	0.0265
469.008	0.0261
469.317	0.0254
469.626	0.0252
469.935	0.0249
470.243	0.0252
470.552	0.0249
470.86	0.0251
471.169	0.0244
471.477	0.0258
471.785	0.0246
472.093	0.0248
472.402	0.0236
472.71	0.0249
473.018	0.0234
473.326	0.0223
473.633	0.0238
473.941	0.0237
474.249	0.0231
474.556	0.0244
474.864	0.0237
475.171	0.0221
475.479	0.0216
475.786	0.0215
476.094	0.0217
476.401	0.0206
476.708	0.0211
477.015	0.0213
477.322	0.0208
477.629	0.0207
477.936	0.0211
478.242	0.0196
478.549	0.0201
478.856	0.0208
479.162	0.0197
479.469	0.0194
479.775	0.0197
480.081	0.0195
480.388	0.019
480.694	0.0186
481	0.0184
481.306	0.0191
481.612	0.0189
481.918	0.0183
482.224	0.0173
482.53	0.0176
482.835	0.0176
483.141	0.0177
483.446	0.0172
483.752	0.0167
484.057	0.0166
484.363	0.0163
484.668	0.0164
484.973	0.015
485.278	0.0154
485.583	0.0156
485.888	0.0154
486.193	0.0141
486.498	0.0148
486.803	0.0146
487.107	0.0143
487.412	0.0138
487.717	0.0147
488.021	0.014
488.325	0.0147
488.63	0.0144
488.934	0.0139
489.238	0.0142
489.542	0.0136
489.846	0.0131
490.15	0.014
490.454	0.0127
490.758	0.0127
491.062	0.0124
491.366	0.0124
491.669	0.0118
491.973	0.0122
492.276	0.012
492.58	0.0121
492.883	0.0107
493.186	0.0112
493.489	0.0113
493.792	0.0102
494.096	0.0102
494.399	0.0097
494.701	0.0102
495.004	0.0094
495.307	0.0105
495.61	0.0089
495.912	0.0099
496.215	0.0083
496.517	0.0085
496.82	0.009
497.122	0.0083
497.424	0.0093
497.727	0.0081
498.029	0.0079
498.331	0.0084
498.633	0.0089
498.935	0.0077
499.237	0.0079
499.538	0.0076
499.84	0.0074
500.142	0.0073
500.443	0.0068
500.745	0.0069
501.046	0.0063
501.348	0.0063
501.649	0.0055
501.95	0.0058
502.251	0.0054
502.552	0.0054
502.853	0.0057
503.154	0.0055
503.455	0.0057
503.756	0.0054
504.057	0.006
504.357	0.0045
504.658	0.0053
504.958	0.0059
505.259	0.0049
505.559	0.004
505.859	0.0044
506.16	0.005
506.46	0.0047
506.76	0.0053
507.06	0.0048
507.36	0.0038
507.66	0.0036
507.96	0.0053
508.259	0.0036
508.559	0.0049
508.859	0.0045
509.158	0.0041
509.457	0.0026
509.757	0.0038
510.056	0.0037
510.355	0.0043
510.655	0.0032
510.954	0.0032
511.253	0.0032
511.552	0.003
511.851	0.0024
512.149	0.0027
512.448	0.0022
512.747	0.0034
513.045	0.0023
513.344	0.0024
513.642	0.0015
513.941	0.0018
514.239	0.0019
514.537	0.0004
514.836	0.0018
515.134	0
515.432	0.0028
515.73	0.0013
516.028	0.0012
516.326	0.0015
516.623	0.0017
516.921	-0.0008
517.219	0.0009
517.516	0.0014
517.814	0.001
518.111	0.0011
518.409	0.0003
518.706	0.0011
519.003	0.0018
519.3	0.0009
519.597	0.0006
519.894	0.0012
520.191	0.0005
520.488	0.0016
520.785	0.0005
521.082	0.0013
521.378	-0.0001
521.675	0.0004
521.971	-0.0004
522.268	0.0006
522.564	0.0008
522.861	0.0013
523.157	0.0014
523.453	0.0014
523.749	0.0003
524.045	0.0004
524.341	0
524.637	-0.0002
524.933	0.0002
525.229	0.0007
525.524	-0.0007
525.82	-0.0004
526.115	-0.0001
526.411	0.0009
526.706	0.0005
527.002	0.0001
527.297	-0.0005
527.592	0.0002
527.887	0.0011
528.182	0.0008
528.477	0.0007
528.772	0.0006
529.067	-0.0005
529.362	-0.0004
529.657	0.0009
529.951	-0.0004
530.246	-0.0013
530.54	0.0006
530.835	-0.0012
531.129	-0.0004
531.423	-0
531.718	0.0002
532.012	0.0003
532.306	-0.0001
532.6	-0.0016
532.894	-0.0001
533.188	0.0004
533.482	-0.0004
533.775	-0.0007
534.069	-0.0008
534.363	-0.0022
534.656	-0.0017
534.95	0.0002
535.243	-0.0007
535.536	-0.0009
535.83	-0.0022
536.123	-0.0011
536.416	-0.0002
536.709	-0.0007
537.002	-0.0018
537.295	-0.0009
537.588	-0.0017
537.881	-0.0016
538.173	-0.0018
538.466	-0.002
538.759	-0.001
539.051	-0.0008
539.344	-0.0012
539.636	-0.0015
539.928	-0.0007
540.22	-0.0003
540.513	-0.0005
540.805	-0.0004
541.097	-0.0024
541.389	-0.0015
541.681	-0.0007
541.972	-0.0002
542.264	0.0004
542.556	-0.0003
542.847	0.0003
543.139	-0.0002
543.431	-0.0006
543.722	-0.0004
544.013	0.0004
544.305	-0.0001
544.596	-0.0008
544.887	-0.0001
545.178	-0.0001
545.469	-0.0019
545.76	-0.0002
546.051	0.0002
546.342	-0.0009
546.632	-0.0006
546.923	-0.0014
547.214	-0.0013
547.504	-0.0011
547.795	-0.0018
548.085	-0.0018
548.375	-0.001
548.666	-0.0016
548.956	-0.0013
549.246	-0.0011
549.536	-0.0001
549.826	-0.001
550.116	-0.0009
550.406	-0.0016
550.695	-0.0016
550.985	-0.0008
551.275	-0.0007
551.564	-0.0009
551.854	-0.0005
552.143	-0.0011
552.433	-0.0025
552.722	-0.0028
553.011	-0.0011
553.3	-0.0009
553.589	-0.0001
553.879	-0.0009
554.167	-0
554.456	0.001
554.745	0.0007
555.034	-0.0011
555.323	0.0002
555.611	-0.0011
555.9	-0.0004
556.188	-0.0014
556.477	-0.0002
556.765	-0.0032
557.053	-0.0018
557.342	-0.0001
557.63	-0.0008
557.918	-0.0003
558.206	0.0005
558.494	-0.0005
558.782	0.0004
559.069	0.0013
559.357	0.0016
559.645	0.0006
559.932	0.0003
560.22	-0.0015
560.507	-0.001
560.795	-0.0021
561.082	-0.0024
561.37	-0.0009
561.657	-0.0011
561.944	-0.001
562.231	-0.0008
562.518	-0.0005
562.805	-0.0002
563.092	-0
563.379	0.0004
563.665	0.0001
563.952	0.0001
564.239	-0.0002
564.525	0.0002
564.811	0.0006
565.098	0.0012
565.384	0.0002
565.67	0.0004
565.957	0.0015
566.243	0.0023
566.529	0.0011
566.815	0.0005
567.101	0.0018
567.387	0.0011
567.672	0.0005
567.958	0.0004
568.244	0
568.529	0.0011
568.815	0.0001
569.1	-0.001
569.386	-0.001
569.671	0.0006
569.956	0.0002
570.242	-0.0004
570.527	-0.0008
570.812	0.0005
571.097	0.0002
571.382	-0.0015
571.666	0.0007
571.951	-0.0007
572.236	-0.0007
572.521	-0.0001
572.805	-0.0004
573.09	-0.0001
573.374	-0.0011
573.659	0.0002
573.943	-0.0009
574.227	-0.0009
574.511	-0.0011
574.795	-0.0011
575.079	-0.0007
575.363	-0.0008
575.647	-0.0013
575.931	-0.0001
576.215	-0.0012
576.499	-0.0011
576.782	-0.001
577.066	-0.0009
577.349	0.0002
577.633	-0.0009
577.916	-0.0013
578.2	-0.0006
578.483	-0.0014
578.766	-0.0002
579.049	-0.0004
579.332	0.0007
579.615	0.0001
579.898	-0.0001
580.181	0.0002
580.464	0.0008
580.746	-0.0001
581.029	-0.0004
581.312	-0.0011
581.594	-0.0018
581.877	-0.0019
582.159	-0.0013
582.441	-0.0012
582.724	-0.0003
583.006	-0.0001
583.288	0.0004
583.57	0.0003
583.852	-0.0003
584.134	0.0001
584.416	-0.0002
584.697	-0.0004
584.979	-0.0015
585.261	-0.003
585.542	-0.0022
585.824	-0.0017
586.105	-0.0021
586.387	-0.0016
586.668	-0.0011
586.949	0.0001
587.231	0.0002
587.512	-0.0006
587.793	-0.0006
588.074	-0.0017
588.355	-0.0007
588.636	-0.0008
588.916	-0.001
589.197	0
589.478	-0.0008
589.758	0.0004
590.039	-0.0005
590.319	0.0001
590.6	0.0013
590.88	0.0008
591.16	0.0009
591.441	0.0006
591.721	-0.0009
592.001	-0
592.281	-0.0001
592.561	-0.0001
592.841	-0.002
593.12	-0.0027
593.4	-0.0014
593.68	-0.0025
593.959	-0.0011
594.239	-0.0013
594.518	0.0002
594.798	0.0008
595.077	-0.001
595.356	-0.0006
595.636	-0.0012
595.915	-0.0007
596.194	0.0001
596.473	0.0006
596.752	0.0009
597.031	-0.0001
597.31	-0
597.588	-0.0009
597.867	-0.0007
598.146	-0.0008
598.424	-0.0003
598.703	-0.0001
598.981	-0.0024
599.259	-0.0022
599.538	-0.001
599.816	0.0002
600.094	-0.0008
600.372	-0.0021
600.65	-0.001
600.928	-0.0008
601.206	0.0001
601.484	-0.0006
601.762	0.0003
602.04	0.0003
602.317	-0.0006
602.595	0.0002
602.872	-0.0005
603.15	0.0005
603.427	-0.0016
603.704	-0.0016
603.982	-0.0005
604.259	-0.0006
604.536	0.0005
604.813	-0.0004
605.09	-0.001
605.367	-0.0013
605.644	-0.0017
605.921	-0.001
606.197	-0.0018
606.474	-0.0014
606.751	-0.001
607.027	-0.0006
607.304	-0.0013
607.58	-0.0011
607.856	-0.0018
608.133	-0.0017
608.409	-0.0004
608.685	-0.0007
608.961	-0.0015
609.237	0.0005
609.513	-0.0006
609.789	-0.0008
610.065	-0.0003
610.341	-0.0007
610.616	0.001
610.892	0.0009
611.167	0.0011
611.443	0.0002
611.718	-0.0001
611.994	0.0003
612.269	0.0004
612.544	0.0002
612.819	-0.0001
613.095	-0.0005
613.37	0.0006
613.645	-0
613.919	-0.0004
614.194	0.0004
614.469	0.0008
614.744	-0.0001
615.019	-0.0012
615.293	0.0001
615.568	-0.0005
615.842	0.0002
616.116	0.0011
616.391	0.0011
616.665	0.0012
616.939	0.0005
617.213	0.0011
617.488	0.0014
617.762	0.0007
618.035	-0.0001
618.309	-0.0013
618.583	0.0006
618.857	0.0024
619.131	0.0016
619.404	0.002
619.678	0.002
619.951	0.0002
620.225	0.0005
620.498	0.0009
620.771	0.0007
621.045	-0.0001
621.318	0.0001
621.591	-0.0007
621.864	-0.0014
622.137	-0.0013
622.41	-0.0004
622.683	-0.0005
622.956	0.001
623.228	0.0011
623.501	0.0011
623.774	0.0013
624.046	0.0017
624.319	0.0006
624.591	-0.0001
624.863	-0.0006
625.136	0.0013
625.408	0.0019
625.68	0.0016
625.952	0.0018
626.224	0.003
626.496	0.0024
626.768	0.0012
627.04	0.0015
627.311	0.0014
627.583	0.0012
627.855	0.0023
628.126	0.0015
628.398	0.0022
628.669	0.0046
628.941	0.0031
629.212	0.002
629.483	0.0024
629.755	0.0018
630.026	0.0019
630.297	0.0016
630.568	0.0023
630.839	0.003
631.11	0.0024
631.38	0.0033
631.651	0.0034
631.922	0.0042
632.192	0.0024
632.463	0.0023
632.733	0.0022
633.004	0.0024
633.274	0.0035
633.545	0.0031
633.815	0.0025
634.085	0.0007
634.355	0.0001
634.625	-0.0008
634.895	0.0004
635.165	0.0011
635.435	-0.0003
635.705	0.0009
635.974	0.0002
636.244	0.0008
636.514	0.0017
636.783	0.0013
637.053	0.0013
637.322	0.0021
637.591	0.0012
637.861	0.0012
638.13	0.0005
638.399	0.0007
638.668	0.0006
638.937	-0.0002
639.206	0.0005
639.475	0.0008
639.744	0.0005
640.013	0.0011
640.281	0.002
640.55	0.0018
640.819	0.0021
641.087	0.0027
641.356	0.0023
641.624	0.0036
641.892	0.0044
642.161	0.0033
642.429	0.0021
642.697	0.0021
642.965	0.0018
643.233	0.0005
643.501	0
643.769	0.0006
644.037	0.0014
644.305	0.002
644.572	0.0015
644.84	-0.0001
645.108	-0.001
645.375	-0.0002
645.643	0.0005
645.91	0.002
646.177	0.0024
646.445	0.0021
646.712	0.0041
646.979	0.004
647.246	0.0042
647.513	0.0038
647.78	0.0037
648.047	0.0019
648.314	0.0012
648.58	0.0008
648.847	0.0017
649.114	0.0028
649.38	0.0018
649.647	0.0018
649.913	0.0013
650.18	0.0024
650.446	0.0026
650.712	0.0017
650.978	0.0015
651.245	0.0009
651.511	0.0016
651.777	0.0008
652.043	0.0015
652.309	0.0025
652.574	0.0038
652.84	0.0027
653.106	0.0021
653.371	0.0023
653.637	0.003
653.903	0.0031
654.168	0.0044
654.433	0.0051
654.699	0.0049
654.964	0.0056
655.229	0.0034
655.494	0.0014
655.759	-0.0037
656.024	-0.0002
656.289	-0
656.554	-0.0006
656.819	0.0003
657.084	0.0023
657.349	0.0022
657.613	0.0018
657.878	0.0018
658.142	0.0014
658.407	0.0014
658.671	0.0017
658.936	0.0021
659.2	0.0024
659.464	0.0025
659.728	0.0022
659.992	0.0018
660.256	0.0022
660.52	0.0022
660.784	0.0005
661.048	0.0015
661.312	0.0009
661.575	0.0026
661.839	0.003
662.103	0.0025
662.366	0.002
662.63	0.0014
662.893	0.0017
663.156	0.0017
663.42	0.0005
663.683	-0.0013
663.946	-0.0008
664.209	-0.0009
664.472	-0.0024
664.735	0
664.998	0.0003
665.261	0.0003
665.524	0.0007
665.786	0.0008
666.049	0.0008
666.312	0.0016
666.574	0
666.837	0.0016
667.099	0.0014
667.361	0.0019
667.624	0.0006
667.886	0.0003
668.148	0.0001
668.41	0.0002
668.672	-0.0005
668.934	0.0014
669.196	0.0007
669.458	0.0007
669.72	0.0023
669.982	0.0017
670.243	0.0026
670.505	0.0012
670.766	0.0021
671.028	0.0021
671.289	0.0013
671.551	0.0008
671.812	-0.0008
672.073	0.0006
672.334	0.0008
672.596	-0.0002
672.857	-0.0001
673.118	0.0011
673.379	0
673.639	-0.0003
673.9	-0.0003
674.161	0.0008
674.422	-0.0001
674.682	0.0005
674.943	0.0007
675.203	0.0006
675.464	-0.0001
675.724	-0.0012
675.985	-0.0006
676.245	-0.0011
676.505	-0.0005
676.765	0.0001
677.025	0.0001
677.285	0.0003
677.545	0.0021
677.805	0.0008
678.065	0.0006
678.325	0.0017
678.585	-0.0001
678.844	0
679.104	0
679.363	-0.0012
679.623	-0.0009
679.882	-0.0007
680.142	0.0007
680.401	0
680.66	0.0016
680.919	0.003
681.178	0.003
681.437	0.0023
681.696	0.0012
681.955	0.0013
682.214	0.0015
682.473	0.001
682.732	-0.0009
682.99	0.0001
683.249	0.0019
683.508	0.0009
683.766	0.0004
684.024	0.0001
684.283	0.001
684.541	0.0002
684.799	0.0004
685.058	0.0007
685.316	-0.0008
685.574	-0.0012
685.832	-0.001
686.09	-0.0001
686.348	-0.0012
686.606	-0.0009
686.863	-0.0003
687.121	0.0011
687.379	0.0013
687.636	0.0006
687.894	0.0014
688.151	0.0024
688.409	0.0018
688.666	0.0009
688.923	0.0006
689.181	0.0003
689.438	-0.001
689.695	-0.0007
689.952	-0.0008
690.209	-0
690.466	0.0005
690.723	0.0006
690.979	0.001
691.236	0.0004
691.493	0.0002
691.75	0.0016
692.006	0.0012
692.263	0.0008
692.519	0.0008
692.775	0.0009
693.032	-0.0003
693.288	0.0005
693.544	0.0005
693.8	0.0011
694.056	0.0009
694.313	0.0005
694.568	0.0009
694.824	0
695.08	-0
695.336	-0.0015
695.592	-0.0017
695.847	-0.0001
696.103	0.0004
696.359	0.0006
696.614	-0
696.869	-0.0007
697.125	-0.0029
697.38	-0.0022
697.635	-0.0006
697.891	-0.0002
698.146	0.0006
698.401	0.0007
698.656	0.0007
698.911	0.0015
699.166	0.0016
699.42	0.0026
699.675	0.0023
699.93	0.0019
700.185	0.0016
700.439	0.0018
700.694	0.0018
700.948	0.0015
701.203	0.001
701.457	0.0006
701.711	-0
701.965	-0.0008
702.22	-0.001
702.474	-0.001
702.728	-0.0015
702.982	-0.001
703.236	-0.0004
703.49	0.0004
703.743	-0.0001
703.997	0.0001
704.251	-0.0001
704.504	-0.0003
704.758	-0.0008
705.012	0.0009
705.265	0.0019
705.518	0.0023
705.772	0.0023
706.025	0.0022
706.278	0.0008
706.531	0.0002
706.785	0.0002
707.038	-0.0013
707.291	-0.0001
707.543	-0.0007
707.796	-0.001
708.049	-0.0016
708.302	-0.002
708.555	-0.0027
708.807	-0.0024
709.06	-0.0027
709.312	-0.0021
709.565	-0.0022
709.817	-0.0024
710.069	-0.0022
710.322	-0.002
710.574	-0.003
710.826	-0.0028
711.078	-0.0022
711.33	-0.0012
711.582	-0.0026
711.834	-0.0022
712.086	-0.0031
712.338	-0.0026
712.59	-0.0021
712.841	-0.004
713.093	-0.004
713.344	-0.0034
713.596	-0.0031
713.847	-0.0011
714.099	-0.0014
714.35	-0.0016
714.601	-0.0013
714.853	-0.0012
715.104	-0.0011
715.355	-0.0008
715.606	-0.0011
715.857	-0.0006
716.108	-0.0002
716.359	0.0001
716.609	-0.0009
716.86	0.0001
717.111	0.0004
717.361	-0.0002
717.612	0.0008
717.863	0.0016
718.113	0.0026
718.363	0.0001
718.614	0.0025
718.864	0.0035
719.114	0.0026
719.364	0.0027
719.614	0.0022
719.865	0.0031
720.114	0.004
720.364	0.0044
720.614	0.0037
720.864	0.0027
721.114	0.002
721.364	0.0031
721.613	0.0018
721.863	0.0008
722.112	0.0008
722.362	0
722.611	0.0004
722.86	0.0007
723.11	0.0004
723.359	-0
723.608	0.0005
723.857	0.0005
724.106	0.0008
724.355	0.0009
724.604	0.0019
724.853	0.0013
725.102	0.0003
725.351	0.0007
725.599	-0.0011
725.848	-0.0002
726.097	0.0008
726.345	0.0003
726.594	-0.0007
726.842	-0
727.09	-0.0022
727.339	-0.0025
727.587	-0.0038
727.835	-0.0028
728.083	-0.0021
728.331	-0.0025
728.579	-0.001
728.827	-0.0001
729.075	0.0002
729.323	-0.0004
729.571	-0.0003
729.818	0.0002
730.066	0.0003
730.314	0.0001
730.561	0.0016
730.809	0.001
731.056	0.0004
731.303	0.0014
731.551	0.0014
731.798	0.0009
732.045	0.001
732.292	0.0025
732.539	0.0017
732.786	0.0015
733.033	0.0004
733.28	0.0006
733.527	0.0004
733.774	-0.0001
734.021	-0.0014
734.267	-0.0012
734.514	-0.002
734.76	-0.0027
735.007	-0.0022
735.253	-0.0015
735.5	-0.0021
735.746	-0.003
735.992	-0.0014
736.238	-0.0004
736.485	-0.0002
736.731	0.001
736.977	0
737.223	0.0004
737.469	0.0005
737.715	0.0016
737.96	0.002
738.206	0.0001
738.452	0.0008
738.697	0.0008
738.943	0.0003
739.189	-0.001
739.434	0
739.679	-0.0004
739.925	0.0005
740.17	-0.0005
740.415	-0.0008
740.66	-0.0014
740.906	-0.0012
741.151	-0.001
741.396	-0.0021
741.641	-0.0022
741.886	-0.0016
742.13	-0.001
742.375	-0.0001
742.62	-0.0014
742.865	-0.0016
743.109	0.0007
743.354	0.0014
743.598	0.0022
743.843	0.003
744.087	0.0029
744.331	0.0039
744.576	0.0039
744.82	0.0047
745.064	0.0052
745.308	0.0057
745.552	0.0049
745.796	0.0035
746.04	0.004
746.284	0.0025
746.528	0.0045
746.771	0.0057
747.015	0.0051
747.259	0.0036
747.502	0.0029
747.746	0.002
747.989	0.0033
748.233	0.0035
748.476	0.0045
748.719	0.0054
748.963	0.0064
749.206	0.0054
749.449	0.0033
749.692	0.0039
749.935	0.004
750.178	0.0032
750.421	0.0022
750.664	0.0028
750.906	0.0045
751.149	0.0052
751.392	0.0037
751.635	0.002
751.877	0.0022
752.12	0.0015
752.362	0.0016
752.604	0.0018
752.847	0.0034
753.089	0.0045
753.331	0.0053
753.573	0.0035
753.816	0.0028
754.058	0.0016
754.3	0.0003
754.542	0.0005
754.783	-0.0011
755.025	-0.0011
755.267	-0.0008
755.509	-0.0012
755.75	-0.0013
755.992	-0.0008
756.234	-0.0006
756.475	-0.0016
756.716	-0.0015
756.958	-0.0016
757.199	-0.0005
757.44	-0.0003
757.682	-0.0015
757.923	0.0002
758.164	0.002
758.405	0.0025
758.646	0.0046
758.887	0.0035
759.128	0.0033
759.369	0.0015
759.609	0.0032
759.85	0.0029
760.091	0.0035
760.331	0.0032
760.572	0.0008
760.812	-0
761.053	-0.0001
761.293	0.0006
761.533	0.0006
761.774	0.0028
762.014	0.0026
762.254	0.0026
762.494	0.0009
762.734	0.0013
762.974	-0.0001
763.214	0.0009
763.454	0.0006
763.694	0.0001
763.933	-0.0013
764.173	-0.003
764.413	-0.0038
764.652	-0.0041
764.892	-0.0035
765.131	-0.0029
765.371	-0.0022
765.61	-0.0015
765.849	-0.0025
766.089	-0.0007
766.328	-0.0001
766.567	-0.0002
766.806	-0.0003
767.045	0.0001
767.284	-0.0013
767.523	-0.0012
767.762	-0.0017
768.001	-0.0026
768.239	-0.0024
768.478	-0.0018
768.717	-0.0008
768.955	-0.0007
769.194	-0.001
769.432	0.0004
769.671	0.0008
769.909	0.0024
770.148	0.0016
770.386	0.0027
770.624	0.0032
770.862	0.003
771.1	0.005
771.338	0.004
771.576	0.0032
771.814	0.0045
772.052	0.0043
772.29	0.005
772.528	0.0051
772.765	0.0064
773.003	0.006
773.24	0.0067
773.478	0.0052
773.716	0.0053
773.953	0.0048
774.19	0.0045
774.428	0.0063
774.665	0.0057
774.902	0.0069
775.139	0.0058
775.376	0.0046
775.613	0.0044
775.85	0.0039
776.087	0.0035
776.324	0.0028
776.561	0.0023
776.798	0.0017
777.034	0.0019
777.271	0.003
777.508	0.0031
777.744	0.0047
777.981	0.0051
778.217	0.006
778.454	0.0046
778.69	0.004
778.926	0.0022
779.162	0.003
779.399	0.003
779.635	0.0029
779.871	0.0034
780.107	0.0036
780.343	0.0024
780.579	0.0032
780.814	0.0021
781.05	0.0023
781.286	0.0011
781.522	0.0015
781.757	0.0018
781.993	0.0029
782.228	0.0018
782.464	0.0026
782.699	0.0012
782.934	0.001
783.17	0.0012
783.405	0.0016
783.64	0.0009
783.875	0
784.11	0.0009
784.345	0.002
784.58	0.0033
784.815	0.004
785.05	0.0019
785.285	0.0005
785.52	0.0009
785.754	0.0006
785.989	-0.0009
786.223	-0.002
786.458	-0.0018
786.692	-0.0005
786.927	-0.0003
787.161	0.0009
787.396	-0.0001
787.63	0.0001
787.864	-0.0024
788.098	-0.0034
788.332	-0.0028
788.566	-0.0029
788.8	-0.0028
789.034	-0.002
789.268	-0.0016
789.502	-0.0004
789.736	-0.0003
789.969	0.0004
790.203	0.0004
790.437	-0.0009
790.67	-0.0017
790.904	-0.0024
791.137	-0.0028
791.37	-0.0032
791.604	-0.0047
791.837	-0.0046
792.07	-0.0037
792.303	-0.0041
792.537	-0.0029
792.77	-0.0037
793.003	-0.0026
793.236	-0.0026
793.469	-0.0029
793.701	-0.001
793.934	-0.0002
794.167	-0.0006
794.4	-0.001
794.632	0.0004
794.865	0.001
795.097	0.001
795.33	-0
795.562	0.0007
795.795	0.0017
796.027	0.0025
796.259	0.002
796.491	0.0027
796.724	0.0014
796.956	0.0021
797.188	0.0018
797.42	0.0016
797.652	0.0008
797.883	0.0021
798.115	0.0029
798.347	0.0032
798.579	0.0046
798.81	0.0054
799.042	0.0049
799.274	0.004
799.505	0.0037
799.737	0.003
799.968	0.0021
800.199	0.0017
800.431	0.0013
800.662	0.0012
800.893	0.0016
801.124	0.0019
801.355	0.0014
801.586	0.0019
801.817	0.0014
802.048	-0.0003
802.279	0
802.51	0.0019
802.741	0.0022
802.971	0.0026
803.202	0.0024
803.433	0.0029
803.663	0.0014
803.894	0.0008
804.124	0.001
804.354	0.0003
804.585	0.0013
804.815	0.0011
805.045	0.0013
805.275	0.0014
805.506	-0.062
805.736	0.0458
805.966	0.1296
806.196	0.0782
