Data from 03 0.5 mM K2Cr2O7 0.3 mM BQDS 1 M H2SO4 5 min_Absorbance_0187.txt Node
Date: Tue Dec 14 09:14:45 EST 2021
User: kwabilab-user
Spectrometer: HDX00518
Trigger mode: 0
Integration Time (sec): 5.000000E-2
Scans to average: 50
Nonlinearity correction enabled: false
Boxcar width: 0
Storing dark spectrum: false
XAxis mode: Wavelengths
Number of Pixels in Spectrum: 2068
>>>>>Begin Spectral Data<<<<<
195.27	-0.1066
195.642	0.1291
196.014	0.031
196.386	0.0374
196.758	-0.0503
197.129	-0.0455
197.501	-0.039
197.872	-0.0148
198.244	0.0013
198.615	0.0309
198.986	0.0222
199.357	0.0212
199.728	-0.0009
200.099	0.0209
200.47	-0.0064
200.841	0.0036
201.212	0.014
201.582	0.0233
201.953	0.0323
202.323	0.0172
202.694	0.0065
203.064	-0.0037
203.434	0.0117
203.804	-0.0088
204.174	0.018
204.544	0.0034
204.914	0.0082
205.284	0.0023
205.653	-0.0038
206.023	0.0086
206.393	-0.0042
206.762	0.0265
207.131	0.0034
207.501	0.0007
207.87	0.0308
208.239	0.0196
208.608	-0.0104
208.977	-0.0095
209.346	0.008
209.715	-0.0114
210.083	-0.0169
210.452	-0.001
210.82	0.0267
211.189	-0.0164
211.557	0.0187
211.925	-0.0234
212.294	0.008
212.662	0.0071
213.03	0.0068
213.398	0.0037
213.766	0.0119
214.133	0.0078
214.501	0.0269
214.869	0.0087
215.236	0.0012
215.604	0.0138
215.971	0.0174
216.338	0.0232
216.705	0.0316
217.072	0.031
217.439	0.0257
217.806	0.0205
218.173	0.0313
218.54	0.0331
218.907	0.0488
219.273	0.05
219.64	0.0377
220.006	0.0591
220.373	0.0621
220.739	0.0674
221.105	0.1066
221.471	0.1101
221.837	0.1206
222.203	0.1311
222.569	0.1498
222.935	0.1776
223.3	0.1881
223.666	0.2263
224.031	0.2272
224.397	0.2557
224.762	0.2709
225.127	0.3017
225.493	0.3314
225.858	0.357
226.223	0.3688
226.588	0.3901
226.952	0.4158
227.317	0.4337
227.682	0.4556
228.046	0.4548
228.411	0.4766
228.775	0.4958
229.14	0.5118
229.504	0.5219
229.868	0.5381
230.232	0.5513
230.596	0.5585
230.96	0.5869
231.324	0.5745
231.688	0.5817
232.052	0.6215
232.415	0.6023
232.779	0.622
233.142	0.6207
233.505	0.6234
233.869	0.6327
234.232	0.6337
234.595	0.6244
234.958	0.6473
235.321	0.6385
235.684	0.6434
236.047	0.6407
236.409	0.6301
236.772	0.6364
237.134	0.6451
237.497	0.6424
237.859	0.6385
238.222	0.6524
238.584	0.6455
238.946	0.6353
239.308	0.631
239.67	0.6266
240.032	0.6156
240.393	0.6222
240.755	0.6319
241.117	0.6201
241.478	0.6171
241.84	0.6276
242.201	0.6107
242.562	0.6105
242.924	0.6126
243.285	0.6068
243.646	0.6068
244.007	0.6037
244.368	0.5984
244.728	0.6039
245.089	0.6011
245.45	0.599
245.81	0.5957
246.171	0.5895
246.531	0.5952
246.891	0.5831
247.252	0.5816
247.612	0.5917
247.972	0.5917
248.332	0.5841
248.692	0.5816
249.051	0.5791
249.411	0.5829
249.771	0.5855
250.13	0.5803
250.49	0.578
250.849	0.5811
251.208	0.5741
251.568	0.5705
251.927	0.5789
252.286	0.5769
252.645	0.5783
253.004	0.5784
253.363	0.5746
253.721	0.576
254.08	0.5761
254.439	0.5774
254.797	0.5692
255.155	0.5642
255.514	0.5751
255.872	0.5732
256.23	0.5628
256.588	0.5684
256.946	0.5642
257.304	0.561
257.662	0.5609
258.02	0.5644
258.377	0.5572
258.735	0.5582
259.093	0.5596
259.45	0.5508
259.807	0.5505
260.165	0.5508
260.522	0.5534
260.879	0.5497
261.236	0.5497
261.593	0.5435
261.95	0.5412
262.306	0.5383
262.663	0.5351
263.02	0.5376
263.376	0.5339
263.733	0.534
264.089	0.5285
264.445	0.5221
264.802	0.528
265.158	0.5297
265.514	0.5198
265.87	0.5181
266.226	0.5166
266.581	0.5174
266.937	0.5132
267.293	0.509
267.648	0.5033
268.004	0.5024
268.359	0.5004
268.714	0.4943
269.07	0.4933
269.425	0.4925
269.78	0.4862
270.135	0.4872
270.49	0.4847
270.844	0.4827
271.199	0.4776
271.554	0.4766
271.908	0.4673
272.263	0.4702
272.617	0.4649
272.972	0.4664
273.326	0.4602
273.68	0.4628
274.034	0.4532
274.388	0.4514
274.742	0.4526
275.096	0.4452
275.45	0.4429
275.803	0.4379
276.157	0.4351
276.51	0.4291
276.864	0.4286
277.217	0.4249
277.571	0.4235
277.924	0.417
278.277	0.4127
278.63	0.4133
278.983	0.406
279.336	0.4027
279.688	0.397
280.041	0.3894
280.394	0.3922
280.746	0.3901
281.099	0.3806
281.451	0.3817
281.803	0.3738
282.156	0.3692
282.508	0.3665
282.86	0.3625
283.212	0.356
283.564	0.3527
283.916	0.351
284.267	0.3477
284.619	0.3432
284.971	0.3395
285.322	0.3374
285.673	0.3315
286.025	0.3275
286.376	0.325
286.727	0.3201
287.078	0.3189
287.429	0.3128
287.78	0.3119
288.131	0.3076
288.482	0.3022
288.833	0.2978
289.183	0.2919
289.534	0.2905
289.884	0.2857
290.235	0.2823
290.585	0.2801
290.935	0.275
291.285	0.2716
291.635	0.2676
291.985	0.2637
292.335	0.2596
292.685	0.2583
293.035	0.2547
293.384	0.2496
293.734	0.2467
294.083	0.2423
294.433	0.2388
294.782	0.2357
295.131	0.2326
295.48	0.2274
295.829	0.2245
296.179	0.2234
296.527	0.2191
296.876	0.215
297.225	0.212
297.574	0.2075
297.922	0.2061
298.271	0.2028
298.619	0.1987
298.968	0.197
299.316	0.1932
299.664	0.1914
300.012	0.1882
300.36	0.1864
300.708	0.1829
301.056	0.1793
301.404	0.1778
301.752	0.1755
302.099	0.1729
302.447	0.1706
302.794	0.1684
303.142	0.1671
303.489	0.1631
303.836	0.1617
304.183	0.16
304.531	0.1584
304.878	0.1568
305.224	0.1559
305.571	0.1535
305.918	0.1522
306.265	0.1506
306.611	0.1487
306.958	0.1491
307.304	0.1463
307.651	0.1458
307.997	0.145
308.343	0.1441
308.689	0.1429
309.035	0.1412
309.381	0.1414
309.727	0.1403
310.073	0.1398
310.419	0.1389
310.764	0.1384
311.11	0.138
311.455	0.1388
311.801	0.1377
312.146	0.1372
312.491	0.1371
312.837	0.1364
313.182	0.1367
313.527	0.1372
313.872	0.137
314.216	0.137
314.561	0.1364
314.906	0.1369
315.251	0.1374
315.595	0.1382
315.94	0.1389
316.284	0.139
316.628	0.1396
316.972	0.1401
317.317	0.1404
317.661	0.1405
318.005	0.1413
318.348	0.1426
318.692	0.1432
319.036	0.1433
319.38	0.1445
319.723	0.1452
320.067	0.1472
320.41	0.1482
320.754	0.1493
321.097	0.1496
321.44	0.1509
321.783	0.1518
322.126	0.1539
322.469	0.1544
322.812	0.1566
323.155	0.1575
323.498	0.1584
323.84	0.1597
324.183	0.1615
324.525	0.1631
324.868	0.1651
325.21	0.1651
325.552	0.1679
325.894	0.1682
326.236	0.1701
326.578	0.1718
326.92	0.1737
327.262	0.1749
327.604	0.1766
327.946	0.1779
328.287	0.1791
328.629	0.1819
328.97	0.1831
329.312	0.1843
329.653	0.186
329.994	0.1879
330.335	0.1891
330.676	0.191
331.017	0.1926
331.358	0.1946
331.699	0.1965
332.04	0.198
332.38	0.1996
332.721	0.2014
333.061	0.2035
333.402	0.2052
333.742	0.2071
334.083	0.2087
334.423	0.2095
334.763	0.2112
335.103	0.2125
335.443	0.2139
335.783	0.215
336.123	0.2164
336.462	0.2178
336.802	0.2203
337.141	0.2213
337.481	0.2223
337.82	0.2232
338.16	0.2247
338.499	0.227
338.838	0.2276
339.177	0.2297
339.516	0.2311
339.855	0.2322
340.194	0.2333
340.533	0.2344
340.872	0.235
341.21	0.2369
341.549	0.2371
341.887	0.2378
342.226	0.239
342.564	0.2404
342.902	0.2409
343.24	0.2412
343.578	0.2414
343.916	0.2433
344.254	0.2426
344.592	0.2432
344.93	0.2445
345.268	0.2437
345.605	0.2443
345.943	0.2448
346.28	0.2447
346.618	0.2457
346.955	0.2462
347.292	0.2457
347.629	0.247
347.966	0.2459
348.303	0.2467
348.64	0.2477
348.977	0.2472
349.314	0.2479
349.65	0.2465
349.987	0.2476
350.324	0.2477
350.66	0.2476
350.996	0.2464
351.333	0.2459
351.669	0.2459
352.005	0.2456
352.341	0.2449
352.677	0.2437
353.013	0.2427
353.349	0.2425
353.685	0.241
354.02	0.2399
354.356	0.2389
354.691	0.2374
355.027	0.2372
355.362	0.2371
355.697	0.2358
356.033	0.2349
356.368	0.2336
356.703	0.2333
357.038	0.2324
357.373	0.2303
357.707	0.2295
358.042	0.2297
358.377	0.2293
358.711	0.2279
359.046	0.226
359.38	0.2256
359.715	0.2242
360.049	0.2228
360.383	0.2219
360.717	0.2205
361.051	0.2196
361.385	0.2187
361.719	0.216
362.053	0.2151
362.387	0.2132
362.72	0.2111
363.054	0.2089
363.387	0.2074
363.721	0.2063
364.054	0.2051
364.387	0.2026
364.721	0.2008
365.054	0.1996
365.387	0.1976
365.72	0.1958
366.053	0.1944
366.385	0.1927
366.718	0.1903
367.051	0.1894
367.383	0.1888
367.716	0.187
368.048	0.1858
368.381	0.1839
368.713	0.1822
369.045	0.1816
369.377	0.1798
369.709	0.1787
370.041	0.1781
370.373	0.1755
370.705	0.1742
371.037	0.173
371.368	0.1706
371.7	0.1701
372.031	0.1671
372.363	0.1665
372.694	0.1633
373.025	0.1618
373.356	0.1587
373.688	0.1579
374.019	0.1557
374.35	0.1544
374.68	0.1519
375.011	0.1502
375.342	0.1475
375.673	0.1466
376.003	0.1439
376.334	0.1426
376.664	0.1402
376.995	0.1387
377.325	0.1364
377.655	0.1356
377.985	0.1339
378.315	0.1324
378.645	0.1313
378.975	0.1303
379.305	0.1283
379.635	0.1277
379.964	0.1264
380.294	0.1251
380.623	0.1239
380.953	0.1222
381.282	0.1206
381.611	0.1188
381.941	0.1173
382.27	0.1164
382.599	0.1146
382.928	0.1128
383.257	0.1122
383.585	0.1102
383.914	0.1097
384.243	0.1071
384.571	0.1057
384.9	0.1031
385.228	0.1029
385.557	0.1
385.885	0.0986
386.213	0.0981
386.541	0.0963
386.869	0.0943
387.197	0.0923
387.525	0.0908
387.853	0.0895
388.181	0.0878
388.508	0.086
388.836	0.0849
389.164	0.0832
389.491	0.0827
389.818	0.0816
390.146	0.0802
390.473	0.0788
390.8	0.078
391.127	0.0768
391.454	0.075
391.781	0.0748
392.108	0.0729
392.435	0.0719
392.761	0.071
393.088	0.0702
393.415	0.0696
393.741	0.0689
394.067	0.068
394.394	0.0672
394.72	0.0662
395.046	0.0655
395.372	0.0653
395.698	0.0635
396.024	0.063
396.35	0.0619
396.676	0.0606
397.001	0.0595
397.327	0.0593
397.653	0.0583
397.978	0.0564
398.303	0.0559
398.629	0.0544
398.954	0.0534
399.279	0.0532
399.604	0.0531
399.929	0.0523
400.254	0.0511
400.579	0.0519
400.904	0.0503
401.229	0.0494
401.553	0.0487
401.878	0.0489
402.202	0.0472
402.527	0.0471
402.851	0.0472
403.175	0.0457
403.5	0.0456
403.824	0.0455
404.148	0.0449
404.472	0.0449
404.796	0.0439
405.119	0.044
405.443	0.0434
405.767	0.0426
406.09	0.0427
406.414	0.0427
406.737	0.0422
407.061	0.0425
407.384	0.0419
407.707	0.0416
408.03	0.0405
408.353	0.0418
408.676	0.0413
408.999	0.0406
409.322	0.0407
409.645	0.0408
409.968	0.0405
410.29	0.04
410.613	0.0404
410.935	0.0404
411.258	0.04
411.58	0.0395
411.902	0.0399
412.224	0.0395
412.546	0.0392
412.868	0.0391
413.19	0.0395
413.512	0.0388
413.834	0.039
414.156	0.0389
414.477	0.0395
414.799	0.0387
415.121	0.039
415.442	0.0392
415.763	0.0391
416.085	0.0386
416.406	0.039
416.727	0.039
417.048	0.0388
417.369	0.0386
417.69	0.0385
418.011	0.0386
418.331	0.0387
418.652	0.0395
418.973	0.0388
419.293	0.0391
419.614	0.039
419.934	0.0404
420.254	0.0397
420.574	0.0392
420.895	0.0391
421.215	0.0391
421.535	0.0392
421.855	0.0384
422.174	0.0391
422.494	0.0387
422.814	0.0387
423.134	0.039
423.453	0.0389
423.773	0.0391
424.092	0.0387
424.411	0.0386
424.731	0.0385
425.05	0.0389
425.369	0.0389
425.688	0.0391
426.007	0.0391
426.326	0.0394
426.644	0.0396
426.963	0.0398
427.282	0.0392
427.6	0.0385
427.919	0.0392
428.237	0.0395
428.556	0.0395
428.874	0.0393
429.192	0.0396
429.51	0.04
429.828	0.0398
430.146	0.0397
430.464	0.0392
430.782	0.0394
431.1	0.0398
431.418	0.0395
431.735	0.0393
432.053	0.0401
432.37	0.0394
432.688	0.0399
433.005	0.0395
433.322	0.0394
433.639	0.0398
433.957	0.04
434.274	0.0397
434.591	0.0397
434.907	0.0392
435.224	0.0394
435.541	0.0398
435.858	0.0397
436.174	0.0406
436.491	0.039
436.807	0.0387
437.124	0.0392
437.44	0.0402
437.756	0.0395
438.072	0.0401
438.388	0.0398
438.704	0.0393
439.02	0.0388
439.336	0.0392
439.652	0.0391
439.968	0.0384
440.283	0.0381
440.599	0.0385
440.914	0.0391
441.23	0.0391
441.545	0.0382
441.86	0.0381
442.175	0.0384
442.491	0.039
442.806	0.0389
443.121	0.0379
443.435	0.0381
443.75	0.0379
444.065	0.0383
444.38	0.0381
444.694	0.0385
445.009	0.0386
445.323	0.0379
445.638	0.0378
445.952	0.0377
446.266	0.0377
446.58	0.0376
446.894	0.0381
447.208	0.0377
447.522	0.0375
447.836	0.0377
448.15	0.0369
448.464	0.0373
448.777	0.0372
449.091	0.0365
449.404	0.0371
449.718	0.0368
450.031	0.0363
450.345	0.0369
450.658	0.0369
450.971	0.0369
451.284	0.0367
451.597	0.0351
451.91	0.0357
452.223	0.0357
452.535	0.0361
452.848	0.0359
453.161	0.0349
453.473	0.0353
453.786	0.0346
454.098	0.0348
454.411	0.0353
454.723	0.0343
455.035	0.0346
455.347	0.0343
455.659	0.0346
455.971	0.0349
456.283	0.0341
456.595	0.0339
456.907	0.0341
457.218	0.0337
457.53	0.0329
457.841	0.0336
458.153	0.0336
458.464	0.0333
458.776	0.0334
459.087	0.0333
459.398	0.0336
459.709	0.0323
460.02	0.0328
460.331	0.0315
460.642	0.0327
460.953	0.0319
461.263	0.0311
461.574	0.0313
461.885	0.0309
462.195	0.0314
462.506	0.0311
462.816	0.0305
463.126	0.0315
463.437	0.0309
463.747	0.03
464.057	0.0297
464.367	0.0307
464.677	0.0297
464.987	0.029
465.296	0.0293
465.606	0.0284
465.916	0.0283
466.225	0.0288
466.535	0.0288
466.844	0.0288
467.154	0.0283
467.463	0.0277
467.772	0.0279
468.081	0.0279
468.39	0.0276
468.699	0.0274
469.008	0.026
469.317	0.0265
469.626	0.0254
469.935	0.0251
470.243	0.0256
470.552	0.0259
470.86	0.0259
471.169	0.0251
471.477	0.0256
471.785	0.0254
472.093	0.026
472.402	0.0251
472.71	0.0258
473.018	0.0238
473.326	0.0229
473.633	0.0244
473.941	0.0238
474.249	0.0239
474.556	0.0239
474.864	0.0236
475.171	0.0233
475.479	0.022
475.786	0.0224
476.094	0.022
476.401	0.0219
476.708	0.0216
477.015	0.0221
477.322	0.0218
477.629	0.0212
477.936	0.0212
478.242	0.0196
478.549	0.0206
478.856	0.0207
479.162	0.02
479.469	0.0199
479.775	0.0207
480.081	0.0197
480.388	0.019
480.694	0.0197
481	0.0196
481.306	0.0187
481.612	0.0182
481.918	0.0183
482.224	0.0182
482.53	0.0179
482.835	0.0181
483.141	0.0176
483.446	0.0175
483.752	0.0169
484.057	0.0171
484.363	0.0165
484.668	0.0174
484.973	0.0162
485.278	0.0161
485.583	0.0157
485.888	0.0156
486.193	0.0147
486.498	0.015
486.803	0.0157
487.107	0.0151
487.412	0.0144
487.717	0.0148
488.021	0.0146
488.325	0.0154
488.63	0.0146
488.934	0.0153
489.238	0.0145
489.542	0.0133
489.846	0.0141
490.15	0.0142
490.454	0.0123
490.758	0.0123
491.062	0.0126
491.366	0.0135
491.669	0.0125
491.973	0.0128
492.276	0.0126
492.58	0.0123
492.883	0.0124
493.186	0.0124
493.489	0.0111
493.792	0.0105
494.096	0.0113
494.399	0.0105
494.701	0.011
495.004	0.0103
495.307	0.0106
495.61	0.0101
495.912	0.0109
496.215	0.0089
496.517	0.0093
496.82	0.0094
497.122	0.0096
497.424	0.0098
497.727	0.0093
498.029	0.0082
498.331	0.0089
498.633	0.0088
498.935	0.0087
499.237	0.0083
499.538	0.008
499.84	0.0082
500.142	0.0081
500.443	0.0075
500.745	0.007
501.046	0.0071
501.348	0.0076
501.649	0.0064
501.95	0.0068
502.251	0.0064
502.552	0.0063
502.853	0.0061
503.154	0.006
503.455	0.0062
503.756	0.006
504.057	0.0065
504.357	0.0048
504.658	0.0066
504.958	0.0062
505.259	0.0055
505.559	0.0054
505.859	0.0049
506.16	0.0048
506.46	0.0054
506.76	0.0063
507.06	0.0053
507.36	0.0045
507.66	0.0048
507.96	0.0059
508.259	0.0039
508.559	0.0052
508.859	0.0046
509.158	0.0043
509.457	0.0039
509.757	0.0042
510.056	0.004
510.355	0.0042
510.655	0.0034
510.954	0.0035
511.253	0.0036
511.552	0.0033
511.851	0.0039
512.149	0.0028
512.448	0.003
512.747	0.0035
513.045	0.0025
513.344	0.0027
513.642	0.0019
513.941	0.0021
514.239	0.0032
514.537	0.002
514.836	0.0025
515.134	0.0005
515.432	0.0035
515.73	0.002
516.028	0.0027
516.326	0.0021
516.623	0.0014
516.921	0.001
517.219	0.0016
517.516	0.0026
517.814	0.0013
518.111	0.0024
518.409	0.0005
518.706	0.0008
519.003	0.0018
519.3	0.0005
519.597	0.0002
519.894	0.0029
520.191	0.0009
520.488	0.001
520.785	0.001
521.082	0.0011
521.378	0.0002
521.675	0.0014
521.971	-0.0004
522.268	0.0011
522.564	0.0001
522.861	0.0008
523.157	0.0001
523.453	0.0018
523.749	0.0013
524.045	0.0013
524.341	0.0008
524.637	0.0009
524.933	-0.0007
525.229	0.0007
525.524	-0.0004
525.82	-0.0007
526.115	-0
526.411	0.0002
526.706	0.0001
527.002	0.0011
527.297	-0.0004
527.592	0
527.887	0.0016
528.182	0.0003
528.477	0.0019
528.772	0.0004
529.067	0
529.362	0.001
529.657	0.0003
529.951	0.001
530.246	-0.0002
530.54	0.0003
530.835	0.0002
531.129	0.0003
531.423	0.0001
531.718	0.0003
532.012	-0.0008
532.306	0.0004
532.6	-0.0012
532.894	0.0001
533.188	0.0002
533.482	-0.0002
533.775	-0.0001
534.069	0.0001
534.363	-0.0015
534.656	-0.0018
534.95	0.0006
535.243	-0.0001
535.536	-0.0004
535.83	-0.0019
536.123	-0.0001
536.416	-0.0007
536.709	-0.0004
537.002	-0.0001
537.295	-0.0008
537.588	-0.0015
537.881	-0.0008
538.173	-0.0005
538.466	-0.0004
538.759	-0.0011
539.051	-0.0003
539.344	-0.002
539.636	-0.001
539.928	0.0002
540.22	0.0003
540.513	-0.0003
540.805	0.0002
541.097	-0.0012
541.389	-0.0018
541.681	0.0005
541.972	0.0002
542.264	0.0004
542.556	0.0001
542.847	0.0007
543.139	0.0003
543.431	-0
543.722	0.0002
544.013	0.0008
544.305	0.0004
544.596	-0.0013
544.887	-0
545.178	-0.0001
545.469	-0.0014
545.76	-0
546.051	0.0012
546.342	-0.0004
546.632	-0.0002
546.923	-0.001
547.214	-0.0006
547.504	-0.0007
547.795	-0.0012
548.085	-0.0023
548.375	-0.0016
548.666	-0.0006
548.956	-0.0001
549.246	-0.0004
549.536	0.0005
549.826	0.0006
550.116	-0.0009
550.406	-0.0014
550.695	-0.0016
550.985	-0.0001
551.275	-0.0011
551.564	-0.0009
551.854	0.0004
552.143	-0.0012
552.433	-0.0018
552.722	-0.0016
553.011	-0
553.3	-0.0002
553.589	0.0005
553.879	0.0003
554.167	-0.0001
554.456	0.0005
554.745	0.0011
555.034	-0.0005
555.323	0.0003
555.611	0.0002
555.9	-0.0001
556.188	-0.0016
556.477	-0.0002
556.765	-0.0025
557.053	-0.0009
557.342	0.0004
557.63	-0.0004
557.918	0.0005
558.206	0.0002
558.494	0.0004
558.782	-0.0004
559.069	0.0013
559.357	0.0011
559.645	0.0009
559.932	0.0002
560.22	-0.0003
560.507	-0.0002
560.795	-0.0018
561.082	-0.0014
561.37	-0.0005
561.657	-0.0005
561.944	-0.0005
562.231	0.0001
562.518	0
562.805	0.0003
563.092	0.0003
563.379	0.0007
563.665	-0.0002
563.952	0.0004
564.239	0.0014
564.525	0.0007
564.811	0.0014
565.098	0.001
565.384	0
565.67	0.001
565.957	0.002
566.243	0.0019
566.529	0.0008
566.815	0.0011
567.101	0.0015
567.387	0.0009
567.672	0.0005
567.958	0.0015
568.244	0
568.529	0.0014
568.815	0.0001
569.1	-0.0003
569.386	-0.0005
569.671	0.0005
569.956	-0
570.242	-0.0001
570.527	-0.0006
570.812	0.0005
571.097	0.0004
571.382	-0.0001
571.666	0.0009
571.951	-0.0009
572.236	-0.0002
572.521	0.0009
572.805	0.0011
573.09	0.0005
573.374	-0.001
573.659	-0
573.943	-0.0005
574.227	-0.0009
574.511	-0.0009
574.795	-0.0001
575.079	0.0003
575.363	-0.0014
575.647	-0.0007
575.931	0.0007
576.215	-0.0009
576.499	-0.0007
576.782	-0.0009
577.066	0.0001
577.349	0.0003
577.633	-0.0005
577.916	-0.0009
578.2	-0.0002
578.483	-0.0009
578.766	0.0004
579.049	-0.0005
579.332	0.0022
579.615	0.0004
579.898	0.0001
580.181	0.0004
580.464	0.0014
580.746	0.0005
581.029	0.0004
581.312	-0.0007
581.594	-0.0019
581.877	-0.0014
582.159	-0.0007
582.441	-0.0007
582.724	-0.0006
583.006	0.0009
583.288	0.0007
583.57	0.0006
583.852	0.0006
584.134	0.0012
584.416	0.0003
584.697	-0.0001
584.979	-0.0011
585.261	-0.0018
585.542	-0.0007
585.824	-0.0009
586.105	-0.0009
586.387	-0.0004
586.668	-0.0007
586.949	0.0004
587.231	0.0007
587.512	0.0003
587.793	0.0007
588.074	-0.0006
588.355	0.0013
588.636	-0.0001
588.916	-0.0007
589.197	0.0005
589.478	0.0006
589.758	0.0012
590.039	0.0003
590.319	0.0007
590.6	0.0017
590.88	0.0012
591.16	0.0019
591.441	0.0018
591.721	0.0002
592.001	0.0002
592.281	0.0007
592.561	0.001
592.841	-0.0006
593.12	-0.0024
593.4	-0.0011
593.68	-0.0023
593.959	-0.0009
594.239	-0.0001
594.518	0.0005
594.798	0.001
595.077	-0.0013
595.356	-0.0002
595.636	-0.0003
595.915	0.0001
596.194	0.0009
596.473	0.0009
596.752	0.0013
597.031	0.0005
597.31	-0.0001
597.588	0
597.867	-0.0001
598.146	-0.0006
598.424	0.0009
598.703	0.0004
598.981	-0.002
599.259	-0.0018
599.538	-0
599.816	0.0003
600.094	-0.0007
600.372	-0.0013
600.65	-0.0007
600.928	-0.0004
601.206	0
601.484	0.0002
601.762	0.0008
602.04	0.0007
602.317	-0
602.595	0.0006
602.872	0.0003
603.15	0.0013
603.427	-0.001
603.704	-0.0014
603.982	-0.0001
604.259	-0
604.536	-0.0004
604.813	-0.0003
605.09	0.0003
605.367	-0.0013
605.644	-0.0012
605.921	-0.0004
606.197	-0.0007
606.474	0.0003
606.751	-0.0003
607.027	-0.0008
607.304	-0.0005
607.58	-0.0009
607.856	-0.0008
608.133	-0.0006
608.409	-0.0006
608.685	-0.0009
608.961	-0.0008
609.237	0.0006
609.513	-0
609.789	-0.0005
610.065	-0.0002
610.341	-0.0009
610.616	0.001
610.892	0.0012
611.167	0.0011
611.443	0.0008
611.718	0.0013
611.994	0.0003
612.269	0.0004
612.544	0.0005
612.819	0.0004
613.095	-0.0005
613.37	0.0011
613.645	-0.0007
613.919	0.0001
614.194	0.0011
614.469	0.0006
614.744	0.0005
615.019	-0.0009
615.293	-0.0003
615.568	-0.0001
615.842	0
616.116	0.0017
616.391	0.0016
616.665	0.0012
616.939	0.001
617.213	0.0016
617.488	0.0017
617.762	0.0006
618.035	0.0003
618.309	-0.0003
618.583	0.0014
618.857	0.0028
619.131	0.002
619.404	0.0021
619.678	0.0022
619.951	0.0002
620.225	0.0003
620.498	0.0004
620.771	0.0009
621.045	0.0004
621.318	0.0004
621.591	-0.001
621.864	-0.0011
622.137	-0.0012
622.41	-0.0011
622.683	0.0002
622.956	0.0008
623.228	0.0005
623.501	0.001
623.774	0.0011
624.046	0.0009
624.319	0
624.591	-0.0006
624.863	-0.0003
625.136	0.0012
625.408	0.0013
625.68	0.0008
625.952	0.0018
626.224	0.0023
626.496	0.0028
626.768	0.0017
627.04	0.0005
627.311	-0.0005
627.583	0.0007
627.855	0.0021
628.126	0.0021
628.398	0.0036
628.669	0.004
628.941	0.003
629.212	0.0027
629.483	0.0022
629.755	0.0017
630.026	0.0026
630.297	0.0021
630.568	0.0015
630.839	0.0025
631.11	0.0029
631.38	0.0027
631.651	0.003
631.922	0.0026
632.192	0.0016
632.463	0.0012
632.733	0.0015
633.004	0.0025
633.274	0.0032
633.545	0.003
633.815	0.0025
634.085	0.0011
634.355	0.0003
634.625	0.0012
634.895	0.0013
635.165	0.0014
635.435	0.0003
635.705	0.0003
635.974	-0.0003
636.244	0.0015
636.514	0.0021
636.783	0.0008
637.053	0.0012
637.322	0.0024
637.591	0.003
637.861	0.0011
638.13	0.0016
638.399	0.0005
638.668	0.0003
638.937	-0.0006
639.206	-0.0004
639.475	0.0008
639.744	-0.0003
640.013	0.0016
640.281	0.0016
640.55	0.0008
640.819	0.0019
641.087	0.0021
641.356	0.0025
641.624	0.0032
641.892	0.0039
642.161	0.0039
642.429	0.0033
642.697	0.0018
642.965	0.002
643.233	0.0012
643.501	0.0002
643.769	0.0014
644.037	0.0012
644.305	0.0017
644.572	0.0014
644.84	0.0012
645.108	0.0002
645.375	0.0001
645.643	0.0018
645.91	0.0026
646.177	0.0044
646.445	0.0031
646.712	0.0053
646.979	0.0057
647.246	0.0057
647.513	0.0057
647.78	0.0041
648.047	0.003
648.314	0.001
648.58	0.0012
648.847	0.0022
649.114	0.003
649.38	0.0021
649.647	0.0019
649.913	0.0017
650.18	0.0025
650.446	0.0027
650.712	0.0004
650.978	0.002
651.245	0.0006
651.511	0.0017
651.777	0.0028
652.043	0.002
652.309	0.002
652.574	0.004
652.84	0.0041
653.106	0.0032
653.371	0.0041
653.637	0.0049
653.903	0.0048
654.168	0.0056
654.433	0.0062
654.699	0.005
654.964	0.0064
655.229	0.0043
655.494	0.0026
655.759	-0.0023
656.024	0.0004
656.289	-0
656.554	0.0024
656.819	0.002
657.084	0.003
657.349	0.0027
657.613	0.0019
657.878	0.0023
658.142	0.0015
658.407	0.0022
658.671	0.0036
658.936	0.0028
659.2	0.0029
659.464	0.0034
659.728	0.0042
659.992	0.0037
660.256	0.0023
660.52	0.0028
660.784	0.0018
661.048	0.0025
661.312	0.0018
661.575	0.0023
661.839	0.0029
662.103	0.0016
662.366	0.0017
662.63	0.0008
662.893	0.0008
663.156	0.0016
663.42	0.0004
663.683	0.0001
663.946	-0.0015
664.209	-0.0005
664.472	-0.001
664.735	0.0002
664.998	0.0007
665.261	0.0008
665.524	0.0006
665.786	0.0012
666.049	0.0006
666.312	0.0005
666.574	0.0013
666.837	0.0011
667.099	0.0019
667.361	0.0013
667.624	0.0016
667.886	0.0003
668.148	0.0006
668.41	0.0018
668.672	0.0008
668.934	0.0015
669.196	0.0009
669.458	0.0021
669.72	0.0028
669.982	0.0023
670.243	0.0023
670.505	0.0018
670.766	0.0028
671.028	0.0023
671.289	0.0007
671.551	0.0013
671.812	-0.0005
672.073	0.0013
672.334	0.0009
672.596	0.0001
672.857	-0.0005
673.118	0.0015
673.379	0.0004
673.639	-0.0002
673.9	0.0002
674.161	0.0008
674.422	0
674.682	0.0011
674.943	0.001
675.203	0.0017
675.464	0.0009
675.724	-0.0001
675.985	0.0002
676.245	0.0005
676.505	0.001
676.765	0.0001
677.025	0.0007
677.285	0.0014
677.545	0.0026
677.805	0.0019
678.065	0.001
678.325	0.0024
678.585	0.0018
678.844	0
679.104	-0.0005
679.363	-0.0006
679.623	-0.0005
679.882	0.0002
680.142	0.0006
680.401	0.0004
680.66	0.0024
680.919	0.003
681.178	0.0037
681.437	0.0028
681.696	0.0013
681.955	0.0029
682.214	0.0026
682.473	0.0026
682.732	0.0008
682.99	0.0019
683.249	0.0023
683.508	0.0019
683.766	0.0005
684.024	0.0002
684.283	0.001
684.541	0.0006
684.799	0.0017
685.058	0.0012
685.316	-0.0001
685.574	0.0003
685.832	-0
686.09	-0.0003
686.348	-0.0016
686.606	-0.0008
686.863	-0.001
687.121	0.001
687.379	0.0008
687.636	0.0006
687.894	0.0022
688.151	0.0026
688.409	0.0017
688.666	0.0006
688.923	0.0001
689.181	0.001
689.438	0.0007
689.695	0.0007
689.952	-0.0013
690.209	0.0003
690.466	-0.0011
690.723	0.0003
690.979	0.0013
691.236	-0.0002
691.493	0.0005
691.75	0.0014
692.006	0.0017
692.263	0.0011
692.519	0.0007
692.775	0.001
693.032	0.0012
693.288	0.0006
693.544	0.0007
693.8	0.0015
694.056	0.0015
694.313	0.001
694.568	0.0009
694.824	0.0003
695.08	0.0004
695.336	-0.0012
695.592	-0.0021
695.847	-0.0001
696.103	-0.0003
696.359	0.0006
696.614	0.0004
696.869	-0.0006
697.125	-0.0031
697.38	-0.0021
697.635	0.0001
697.891	0.0005
698.146	0.0013
698.401	0.0011
698.656	0.0009
698.911	0.0016
699.166	0.0016
699.42	0.0015
699.675	0.0013
699.93	0.0019
700.185	0.0008
700.439	0.0009
700.694	0.0019
700.948	0.0002
701.203	-0.0005
701.457	0.0003
701.711	-0.0006
701.965	-0.0011
702.22	-0.0007
702.474	-0.0011
702.728	-0.0011
702.982	-0.0014
703.236	-0.0002
703.49	0.0005
703.743	-0.0001
703.997	0.0006
704.251	0.0003
704.504	0.0003
704.758	-0.0003
705.012	0.0015
705.265	0.0015
705.518	0.0028
705.772	0.0019
706.025	0.0023
706.278	0.0013
706.531	-0
706.785	-0.0004
707.038	-0.0016
707.291	-0.0005
707.543	-0.0007
707.796	-0.0008
708.049	-0.0008
708.302	-0.0019
708.555	-0.0012
708.807	-0.0007
709.06	-0.0019
709.312	-0.001
709.565	-0.0018
709.817	-0.002
710.069	-0.0014
710.322	-0.0026
710.574	-0.0026
710.826	-0.0025
711.078	-0.0016
711.33	-0.0014
711.582	-0.0026
711.834	-0.0024
712.086	-0.0019
712.338	-0.0024
712.59	-0.0017
712.841	-0.0036
713.093	-0.003
713.344	-0.003
713.596	-0.0027
713.847	-0.0011
714.099	-0.001
714.35	-0.0012
714.601	-0.0016
714.853	-0.0009
715.104	0.0001
715.355	-0.0003
715.606	0.0001
715.857	0.0004
716.108	-0.0002
716.359	0.0004
716.609	-0.0007
716.86	0.0002
717.111	0.0008
717.361	0.0004
717.612	0.0009
717.863	0.0026
718.113	0.0027
718.363	0.0016
718.614	0.0036
718.864	0.0034
719.114	0.003
719.364	0.0034
719.614	0.0021
719.865	0.0029
720.114	0.0038
720.364	0.004
720.614	0.0048
720.864	0.0033
721.114	0.0034
721.364	0.0033
721.613	0.0031
721.863	0.0023
722.112	0.0026
722.362	0.001
722.611	0.0015
722.86	0.0016
723.11	0.0013
723.359	0.0007
723.608	0.0005
723.857	0.0006
724.106	0.0011
724.355	0.0019
724.604	0.0029
724.853	0.0016
725.102	-0.0006
725.351	0.0001
725.599	-0.0008
725.848	0.0005
726.097	0.0012
726.345	0.0005
726.594	-0.0016
726.842	-0.0002
727.09	-0.0021
727.339	-0.0027
727.587	-0.0027
727.835	-0.003
728.083	-0.001
728.331	-0.002
728.579	-0.0006
728.827	0.0007
729.075	0.0012
729.323	0.0002
729.571	-0
729.818	0.0006
730.066	-0.0001
730.314	0.0003
730.561	0.0027
730.809	0.0018
731.056	0.0006
731.303	0.0022
731.551	0.0021
731.798	0.0013
732.045	0.0014
732.292	0.0032
732.539	0.0026
732.786	0.0027
733.033	0.0019
733.28	0.0028
733.527	0.0022
733.774	0.0007
734.021	-0.0014
734.267	-0.0017
734.514	-0.0018
734.76	-0.0018
735.007	-0.0013
735.253	-0.002
735.5	-0.0024
735.746	-0.0024
735.992	-0.0012
736.238	-0.0004
736.485	0.0012
736.731	0.0011
736.977	0
737.223	0.0001
737.469	0.0008
737.715	0.001
737.96	0.0006
738.206	-0.0005
738.452	-0.0005
738.697	-0.0012
738.943	-0.0008
739.189	-0.0021
739.434	-0.0013
739.679	-0.001
739.925	-0.0005
740.17	-0.0023
740.415	-0.0012
740.66	-0.0026
740.906	-0.0018
741.151	-0.0013
741.396	-0.0019
741.641	-0.0028
741.886	-0.002
742.13	-0.0011
742.375	-0.0004
742.62	-0.0016
742.865	-0.002
743.109	0.0004
743.354	0.0013
743.598	0.0018
743.843	0.0019
744.087	0.0032
744.331	0.0033
744.576	0.0044
744.82	0.0045
745.064	0.0051
745.308	0.0055
745.552	0.0046
745.796	0.0035
746.04	0.0035
746.284	0.0029
746.528	0.0035
746.771	0.0052
747.015	0.0054
747.259	0.0042
747.502	0.0031
747.746	0.0032
747.989	0.0035
748.233	0.0027
748.476	0.0041
748.719	0.0041
748.963	0.0057
749.206	0.005
749.449	0.0026
749.692	0.0033
749.935	0.0033
750.178	0.0018
750.421	0.0014
750.664	0.0022
750.906	0.0032
751.149	0.0039
751.392	0.0028
751.635	0.0016
751.877	0.0021
752.12	0.0012
752.362	0.0017
752.604	0.0022
752.847	0.0028
753.089	0.0039
753.331	0.0045
753.573	0.0038
753.816	0.0021
754.058	0.0016
754.3	0.0006
754.542	0.0006
754.783	-0.0003
755.025	-0
755.267	0.0003
755.509	0.0002
755.75	-0.0006
755.992	0.0007
756.234	0.0004
756.475	0.0002
756.716	-0.001
756.958	-0.0008
757.199	-0.0002
757.44	-0.001
757.682	-0.0007
757.923	0.0007
758.164	0.0018
758.405	0.0011
758.646	0.0032
758.887	0.0029
759.128	0.0022
759.369	0.0017
759.609	0.002
759.85	0.0024
760.091	0.0031
760.331	0.0023
760.572	0.0005
760.812	-0.0001
761.053	-0.0005
761.293	0.0003
761.533	-0.0003
761.774	0.0017
762.014	0.002
762.254	0.0011
762.494	0.0005
762.734	0.0004
762.974	-0.0011
763.214	-0.0002
763.454	-0.0001
763.694	-0.0008
763.933	-0.0009
764.173	-0.0017
764.413	-0.0038
764.652	-0.0039
764.892	-0.0031
765.131	-0.0025
765.371	-0.002
765.61	-0.0025
765.849	-0.0019
766.089	-0.0009
766.328	-0.0001
766.567	0.0001
766.806	-0.0002
767.045	0.0014
767.284	-0.0007
767.523	-0.0001
767.762	-0.002
768.001	-0.0004
768.239	-0.0006
768.478	0.0004
768.717	0.0006
768.955	-0.0002
769.194	-0.0003
769.432	0.0017
769.671	0.0021
769.909	0.0027
770.148	0.0023
770.386	0.0025
770.624	0.0037
770.862	0.0038
771.1	0.0051
771.338	0.0032
771.576	0.003
771.814	0.0035
772.052	0.0038
772.29	0.0055
772.528	0.0049
772.765	0.0064
773.003	0.0065
773.24	0.0062
773.478	0.0043
773.716	0.0053
773.953	0.0046
774.19	0.0047
774.428	0.0061
774.665	0.0057
774.902	0.0068
775.139	0.0058
775.376	0.0051
775.613	0.005
775.85	0.0037
776.087	0.0028
776.324	0.0028
776.561	0.0026
776.798	0.0021
777.034	0.0014
777.271	0.003
777.508	0.0024
777.744	0.0038
777.981	0.0044
778.217	0.0044
778.454	0.0041
778.69	0.0027
778.926	0.0017
779.162	0.0024
779.399	0.0027
779.635	0.0022
779.871	0.0028
780.107	0.002
780.343	0.0009
780.579	0.002
780.814	0.0011
781.05	0.0018
781.286	0.0005
781.522	0.0015
781.757	0.0027
781.993	0.002
782.228	0.0014
782.464	0.002
782.699	0.0011
782.934	0.0004
783.17	0.0006
783.405	0.0009
783.64	0.0003
783.875	-0.0012
784.11	-0.0011
784.345	0.0008
784.58	0.0017
784.815	0.0024
785.05	0.0012
785.285	0
785.52	-0.0008
785.754	-0.0019
785.989	-0.0022
786.223	-0.0034
786.458	-0.003
786.692	-0.0013
786.927	-0.0009
787.161	0.0004
787.396	-0.0014
787.63	-0.0008
787.864	-0.0017
788.098	-0.0016
788.332	-0.0027
788.566	-0.0014
788.8	-0.0011
789.034	-0.001
789.268	-0.0007
789.502	-0.0003
789.736	-0
789.969	0.0001
790.203	-0.0001
790.437	-0.0017
790.67	-0.0013
790.904	-0.0023
791.137	-0.0028
791.37	-0.003
791.604	-0.0044
791.837	-0.0047
792.07	-0.0035
792.303	-0.0046
792.537	-0.0038
792.77	-0.005
793.003	-0.0042
793.236	-0.0036
793.469	-0.0035
793.701	-0.0016
793.934	-0.0016
794.167	-0.0019
794.4	-0.0013
794.632	-0.0005
794.865	0.0001
795.097	0.0007
795.33	-0.001
795.562	-0.0003
795.795	-0
796.027	0.0012
796.259	0.0004
796.491	0
796.724	-0
796.956	0.0015
797.188	0.0017
797.42	0.0009
797.652	0.0008
797.883	0.0015
798.115	0.0029
798.347	0.0028
798.579	0.0046
798.81	0.0053
799.042	0.0058
799.274	0.0041
799.505	0.0036
799.737	0.004
799.968	0.0025
800.199	0.0023
800.431	0.002
800.662	0.002
800.893	0.0027
801.124	0.0025
801.355	0.0018
801.586	0.0024
801.817	0.0017
802.048	-0.0005
802.279	0.0004
802.51	0.0014
802.741	0.0015
802.971	0.0026
803.202	0.0019
803.433	0.0022
803.663	0.0018
803.894	0.0014
804.124	0.0009
804.354	0.0015
804.585	0.0018
804.815	0.003
805.045	0.002
805.275	0.0019
805.506	-0.0407
805.736	0.0092
805.966	0.0215
806.196	0.0961
