Data from 03 0.5 mM K2Cr2O7 0.3 mM BQDS 1 M H2SO4 5 min_Absorbance_0155.txt Node
Date: Tue Dec 14 06:34:44 EST 2021
User: kwabilab-user
Spectrometer: HDX00518
Trigger mode: 0
Integration Time (sec): 5.000000E-2
Scans to average: 50
Nonlinearity correction enabled: false
Boxcar width: 0
Storing dark spectrum: false
XAxis mode: Wavelengths
Number of Pixels in Spectrum: 2068
>>>>>Begin Spectral Data<<<<<
195.27	-0.0497
195.642	0.0229
196.014	-0.0561
196.386	0.0912
196.758	-0.0315
197.129	-0.0231
197.501	-0.0213
197.872	0.0167
198.244	0.0384
198.615	0.0346
198.986	0.0409
199.357	0.0345
199.728	0.0276
200.099	0.0385
200.47	0.0116
200.841	0.0177
201.212	0.044
201.582	0.0429
201.953	0.0266
202.323	0.0492
202.694	0.0402
203.064	0.0233
203.434	0.0381
203.804	0.0279
204.174	0.0414
204.544	0.0225
204.914	0.0411
205.284	0.0514
205.653	0.011
206.023	0.0269
206.393	0.0047
206.762	0.0459
207.131	0.0332
207.501	0.0216
207.87	0.0394
208.239	0.0342
208.608	0.023
208.977	0.0311
209.346	0.0454
209.715	0.0209
210.083	0.013
210.452	0.0288
210.82	0.0187
211.189	0.0135
211.557	0.0398
211.925	-0.0057
212.294	0.0152
212.662	0.0108
213.03	0.0336
213.398	0.0474
213.766	0.0339
214.133	0.0202
214.501	0.0393
214.869	0.0253
215.236	0.0182
215.604	0.0425
215.971	0.0509
216.338	0.083
216.705	0.05
217.072	0.0581
217.439	0.0411
217.806	0.0617
218.173	0.0587
218.54	0.0516
218.907	0.0729
219.273	0.0591
219.64	0.082
220.006	0.0848
220.373	0.0881
220.739	0.1019
221.105	0.1303
221.471	0.1473
221.837	0.1448
222.203	0.1787
222.569	0.1796
222.935	0.198
223.3	0.2161
223.666	0.2491
224.031	0.2643
224.397	0.2756
224.762	0.3009
225.127	0.3167
225.493	0.3413
225.858	0.3648
226.223	0.3898
226.588	0.398
226.952	0.4461
227.317	0.4616
227.682	0.469
228.046	0.4718
228.411	0.4981
228.775	0.5057
229.14	0.5311
229.504	0.5559
229.868	0.5706
230.232	0.563
230.596	0.5878
230.96	0.6116
231.324	0.5878
231.688	0.6051
232.052	0.6298
232.415	0.6305
232.779	0.6469
233.142	0.6516
233.505	0.6401
233.869	0.6687
234.232	0.6621
234.595	0.6493
234.958	0.6459
235.321	0.6497
235.684	0.6651
236.047	0.655
236.409	0.66
236.772	0.6594
237.134	0.6625
237.497	0.6579
237.859	0.6614
238.222	0.6604
238.584	0.6498
238.946	0.6485
239.308	0.645
239.67	0.6474
240.032	0.6336
240.393	0.6373
240.755	0.6295
241.117	0.6336
241.478	0.6368
241.84	0.6426
242.201	0.6303
242.562	0.6209
242.924	0.6267
243.285	0.6222
243.646	0.6254
244.007	0.6216
244.368	0.6196
244.728	0.6184
245.089	0.6121
245.45	0.6163
245.81	0.6113
246.171	0.6124
246.531	0.6079
246.891	0.6039
247.252	0.6058
247.612	0.6032
247.972	0.6005
248.332	0.6007
248.692	0.6017
249.051	0.6006
249.411	0.6062
249.771	0.5934
250.13	0.5986
250.49	0.5941
250.849	0.5956
251.208	0.5971
251.568	0.5994
251.927	0.5945
252.286	0.5887
252.645	0.5989
253.004	0.5932
253.363	0.5889
253.721	0.5958
254.08	0.595
254.439	0.5862
254.797	0.581
255.155	0.5792
255.514	0.588
255.872	0.5913
256.23	0.5915
256.588	0.5888
256.946	0.5853
257.304	0.5862
257.662	0.5886
258.02	0.585
258.377	0.5812
258.735	0.5723
259.093	0.5774
259.45	0.5724
259.807	0.5734
260.165	0.5704
260.522	0.5768
260.879	0.5683
261.236	0.567
261.593	0.5646
261.95	0.5623
262.306	0.5587
262.663	0.5573
263.02	0.5563
263.376	0.5566
263.733	0.5531
264.089	0.5505
264.445	0.5434
264.802	0.5472
265.158	0.5476
265.514	0.5414
265.87	0.5411
266.226	0.5358
266.581	0.5371
266.937	0.5382
267.293	0.5285
267.648	0.5253
268.004	0.5242
268.359	0.5217
268.714	0.5145
269.07	0.5105
269.425	0.5098
269.78	0.5063
270.135	0.508
270.49	0.5015
270.844	0.5016
271.199	0.5008
271.554	0.4978
271.908	0.4882
272.263	0.4893
272.617	0.4873
272.972	0.4823
273.326	0.478
273.68	0.4758
274.034	0.4724
274.388	0.473
274.742	0.4693
275.096	0.4639
275.45	0.4623
275.803	0.4579
276.157	0.4538
276.51	0.4433
276.864	0.4429
277.217	0.4425
277.571	0.4393
277.924	0.4342
278.277	0.4315
278.63	0.4293
278.983	0.423
279.336	0.4161
279.688	0.4129
280.041	0.4095
280.394	0.4077
280.746	0.4026
281.099	0.3969
281.451	0.3965
281.803	0.3873
282.156	0.3849
282.508	0.3849
282.86	0.3785
283.212	0.3681
283.564	0.3672
283.916	0.369
284.267	0.363
284.619	0.3558
284.971	0.3538
285.322	0.3492
285.673	0.3438
286.025	0.3411
286.376	0.3362
286.727	0.3316
287.078	0.3296
287.429	0.3245
287.78	0.3205
288.131	0.3155
288.482	0.3142
288.833	0.3072
289.183	0.304
289.534	0.2993
289.884	0.2961
290.235	0.293
290.585	0.2894
290.935	0.2864
291.285	0.2806
291.635	0.2776
291.985	0.2733
292.335	0.2696
292.685	0.2658
293.035	0.2634
293.384	0.2579
293.734	0.2552
294.083	0.2512
294.433	0.2459
294.782	0.2455
295.131	0.2406
295.48	0.2357
295.829	0.2321
296.179	0.2301
296.527	0.2263
296.876	0.2229
297.225	0.2198
297.574	0.2164
297.922	0.2134
298.271	0.2098
298.619	0.2064
298.968	0.2023
299.316	0.2005
299.664	0.1984
300.012	0.1951
300.36	0.1913
300.708	0.1901
301.056	0.1866
301.404	0.1834
301.752	0.1828
302.099	0.1793
302.447	0.1766
302.794	0.1738
303.142	0.1722
303.489	0.17
303.836	0.1689
304.183	0.1651
304.531	0.1645
304.878	0.1618
305.224	0.1611
305.571	0.1587
305.918	0.157
306.265	0.1559
306.611	0.1545
306.958	0.1542
307.304	0.1507
307.651	0.1508
307.997	0.1496
308.343	0.1491
308.689	0.1475
309.035	0.1462
309.381	0.1463
309.727	0.1448
310.073	0.1449
310.419	0.1442
310.764	0.1429
311.11	0.1435
311.455	0.1424
311.801	0.1415
312.146	0.1418
312.491	0.1418
312.837	0.1403
313.182	0.1416
313.527	0.1406
313.872	0.1409
314.216	0.1409
314.561	0.1408
314.906	0.1409
315.251	0.1422
315.595	0.1426
315.94	0.143
316.284	0.1427
316.628	0.1442
316.972	0.1442
317.317	0.1451
317.661	0.1447
318.005	0.1457
318.348	0.1473
318.692	0.148
319.036	0.1478
319.38	0.1492
319.723	0.1497
320.067	0.1516
320.41	0.1522
320.754	0.1533
321.097	0.1541
321.44	0.1547
321.783	0.1564
322.126	0.1582
322.469	0.1582
322.812	0.1603
323.155	0.1621
323.498	0.1634
323.84	0.1651
324.183	0.1665
324.525	0.1682
324.868	0.1696
325.21	0.1696
325.552	0.172
325.894	0.1734
326.236	0.1749
326.578	0.1763
326.92	0.1787
327.262	0.1802
327.604	0.1818
327.946	0.1834
328.287	0.1849
328.629	0.1873
328.97	0.1881
329.312	0.1893
329.653	0.1905
329.994	0.1927
330.335	0.1946
330.676	0.1971
331.017	0.1986
331.358	0.2003
331.699	0.2019
332.04	0.2031
332.38	0.2057
332.721	0.2064
333.061	0.2093
333.402	0.2108
333.742	0.213
334.083	0.2141
334.423	0.215
334.763	0.217
335.103	0.218
335.443	0.2196
335.783	0.2218
336.123	0.2222
336.462	0.224
336.802	0.2258
337.141	0.2268
337.481	0.2285
337.82	0.2295
338.16	0.231
338.499	0.2323
338.838	0.2337
339.177	0.2353
339.516	0.2365
339.855	0.2377
340.194	0.239
340.533	0.24
340.872	0.2417
341.21	0.2423
341.549	0.2439
341.887	0.244
342.226	0.2448
342.564	0.2462
342.902	0.2474
343.24	0.2482
343.578	0.2478
343.916	0.2487
344.254	0.2488
344.592	0.25
344.93	0.2505
345.268	0.2508
345.605	0.2506
345.943	0.2508
346.28	0.2516
346.618	0.252
346.955	0.2517
347.292	0.2521
347.629	0.2527
347.966	0.2523
348.303	0.2523
348.64	0.254
348.977	0.2536
349.314	0.2535
349.65	0.2537
349.987	0.2537
350.324	0.2542
350.66	0.2528
350.996	0.253
351.333	0.2529
351.669	0.2521
352.005	0.2517
352.341	0.2511
352.677	0.2499
353.013	0.2494
353.349	0.2478
353.685	0.2472
354.02	0.2454
354.356	0.2442
354.691	0.2431
355.027	0.2423
355.362	0.2429
355.697	0.2418
356.033	0.2417
356.368	0.2394
356.703	0.2378
357.038	0.2387
357.373	0.2371
357.707	0.236
358.042	0.2349
358.377	0.2342
358.711	0.2332
359.046	0.2312
359.38	0.2314
359.715	0.2302
360.049	0.2285
360.383	0.2272
360.717	0.2263
361.051	0.2252
361.385	0.224
361.719	0.2209
362.053	0.22
362.387	0.2182
362.72	0.216
363.054	0.2152
363.387	0.2135
363.721	0.2116
364.054	0.2089
364.387	0.2073
364.721	0.2058
365.054	0.2036
365.387	0.2018
365.72	0.1999
366.053	0.199
366.385	0.1974
366.718	0.1954
367.051	0.1941
367.383	0.1924
367.716	0.1907
368.048	0.1907
368.381	0.1883
368.713	0.1871
369.045	0.1857
369.377	0.1829
369.709	0.1825
370.041	0.1816
370.373	0.1803
370.705	0.178
371.037	0.1762
371.368	0.175
371.7	0.175
372.031	0.1718
372.363	0.17
372.694	0.1672
373.025	0.1656
373.356	0.1631
373.688	0.1618
374.019	0.1591
374.35	0.1573
374.68	0.1556
375.011	0.1538
375.342	0.1508
375.673	0.1498
376.003	0.1468
376.334	0.1455
376.664	0.1438
376.995	0.1426
377.325	0.1397
377.655	0.1383
377.985	0.1372
378.315	0.1356
378.645	0.1346
378.975	0.1332
379.305	0.1318
379.635	0.1312
379.964	0.1295
380.294	0.1274
380.623	0.1264
380.953	0.1251
381.282	0.1234
381.611	0.1221
381.941	0.1208
382.27	0.12
382.599	0.1175
382.928	0.1161
383.257	0.1146
383.585	0.1133
383.914	0.1125
384.243	0.1092
384.571	0.1085
384.9	0.1053
385.228	0.1047
385.557	0.1029
385.885	0.1007
386.213	0.0996
386.541	0.0986
386.869	0.0965
387.197	0.0943
387.525	0.0934
387.853	0.0915
388.181	0.0907
388.508	0.0879
388.836	0.0869
389.164	0.0852
389.491	0.0845
389.818	0.0836
390.146	0.0818
390.473	0.0807
390.8	0.0795
391.127	0.0776
391.454	0.0775
391.781	0.076
392.108	0.0748
392.435	0.0741
392.761	0.0723
393.088	0.072
393.415	0.0709
393.741	0.0707
394.067	0.0694
394.394	0.069
394.72	0.0676
395.046	0.0665
395.372	0.0659
395.698	0.0655
396.024	0.0642
396.35	0.0631
396.676	0.0622
397.001	0.0612
397.327	0.06
397.653	0.0593
397.978	0.058
398.303	0.0571
398.629	0.0555
398.954	0.0549
399.279	0.0543
399.604	0.054
399.929	0.0532
400.254	0.053
400.579	0.0525
400.904	0.0514
401.229	0.0504
401.553	0.0503
401.878	0.0493
402.202	0.0488
402.527	0.0481
402.851	0.0481
403.175	0.0474
403.5	0.0465
403.824	0.0465
404.148	0.0462
404.472	0.045
404.796	0.0447
405.119	0.0447
405.443	0.0445
405.767	0.0433
406.09	0.0435
406.414	0.0433
406.737	0.043
407.061	0.0431
407.384	0.0429
407.707	0.0427
408.03	0.0417
408.353	0.0425
408.676	0.0417
408.999	0.0415
409.322	0.0414
409.645	0.0415
409.968	0.0414
410.29	0.0411
410.613	0.0414
410.935	0.0411
411.258	0.0404
411.58	0.0405
411.902	0.0404
412.224	0.0403
412.546	0.04
412.868	0.0396
413.19	0.0397
413.512	0.0401
413.834	0.0393
414.156	0.0399
414.477	0.0399
414.799	0.0396
415.121	0.0398
415.442	0.0398
415.763	0.0394
416.085	0.0395
416.406	0.0402
416.727	0.0401
417.048	0.0396
417.369	0.0388
417.69	0.0392
418.011	0.0392
418.331	0.039
418.652	0.0399
418.973	0.0393
419.293	0.0399
419.614	0.0396
419.934	0.0404
420.254	0.0401
420.574	0.0399
420.895	0.0402
421.215	0.0397
421.535	0.0395
421.855	0.0394
422.174	0.0394
422.494	0.0393
422.814	0.0392
423.134	0.0394
423.453	0.0399
423.773	0.0396
424.092	0.0393
424.411	0.0399
424.731	0.0397
425.05	0.0391
425.369	0.0395
425.688	0.0398
426.007	0.0396
426.326	0.0396
426.644	0.0396
426.963	0.0406
427.282	0.0396
427.6	0.0396
427.919	0.0397
428.237	0.0396
428.556	0.0398
428.874	0.0396
429.192	0.0404
429.51	0.0409
429.828	0.0396
430.146	0.04
430.464	0.0393
430.782	0.04
431.1	0.0402
431.418	0.0399
431.735	0.0399
432.053	0.0404
432.37	0.0406
432.688	0.0397
433.005	0.0403
433.322	0.0403
433.639	0.0399
433.957	0.0404
434.274	0.0403
434.591	0.0399
434.907	0.0404
435.224	0.0402
435.541	0.04
435.858	0.0406
436.174	0.0409
436.491	0.0396
436.807	0.0391
437.124	0.0397
437.44	0.0398
437.756	0.0397
438.072	0.0404
438.388	0.0405
438.704	0.0401
439.02	0.0403
439.336	0.0393
439.652	0.0397
439.968	0.039
440.283	0.0385
440.599	0.0391
440.914	0.0398
441.23	0.0396
441.545	0.0395
441.86	0.0386
442.175	0.0396
442.491	0.0393
442.806	0.0391
443.121	0.0386
443.435	0.0386
443.75	0.0388
444.065	0.0385
444.38	0.0392
444.694	0.0386
445.009	0.0384
445.323	0.0385
445.638	0.0383
445.952	0.0386
446.266	0.0386
446.58	0.0383
446.894	0.0381
447.208	0.0382
447.522	0.0385
447.836	0.038
448.15	0.0373
448.464	0.038
448.777	0.0375
449.091	0.0371
449.404	0.0375
449.718	0.0365
450.031	0.0371
450.345	0.0368
450.658	0.0371
450.971	0.0372
451.284	0.0368
451.597	0.0361
451.91	0.0364
452.223	0.0355
452.535	0.0352
452.848	0.0363
453.161	0.0352
453.473	0.0356
453.786	0.0359
454.098	0.035
454.411	0.0359
454.723	0.0349
455.035	0.0343
455.347	0.0348
455.659	0.0348
455.971	0.0349
456.283	0.0342
456.595	0.0341
456.907	0.0354
457.218	0.0332
457.53	0.0325
457.841	0.0338
458.153	0.034
458.464	0.0338
458.776	0.034
459.087	0.0337
459.398	0.0331
459.709	0.0329
460.02	0.0328
460.331	0.0322
460.642	0.0328
460.953	0.0324
461.263	0.0316
461.574	0.0314
461.885	0.0313
462.195	0.0311
462.506	0.0313
462.816	0.0311
463.126	0.0311
463.437	0.0307
463.747	0.0298
464.057	0.0298
464.367	0.0298
464.677	0.0295
464.987	0.0286
465.296	0.0296
465.606	0.0289
465.916	0.0291
466.225	0.029
466.535	0.0288
466.844	0.0291
467.154	0.0292
467.463	0.0274
467.772	0.028
468.081	0.0274
468.39	0.0268
468.699	0.0273
469.008	0.0265
469.317	0.0266
469.626	0.0248
469.935	0.0254
470.243	0.0261
470.552	0.0258
470.86	0.026
471.169	0.0256
471.477	0.0253
471.785	0.0248
472.093	0.025
472.402	0.0246
472.71	0.025
473.018	0.0241
473.326	0.0236
473.633	0.0247
473.941	0.0242
474.249	0.0236
474.556	0.0242
474.864	0.0236
475.171	0.0233
475.479	0.0232
475.786	0.0225
476.094	0.0222
476.401	0.0221
476.708	0.022
477.015	0.022
477.322	0.0217
477.629	0.0217
477.936	0.021
478.242	0.0201
478.549	0.0207
478.856	0.0212
479.162	0.0207
479.469	0.0212
479.775	0.0206
480.081	0.0192
480.388	0.0197
480.694	0.019
481	0.0196
481.306	0.0188
481.612	0.019
481.918	0.0185
482.224	0.0183
482.53	0.0181
482.835	0.0187
483.141	0.0187
483.446	0.0186
483.752	0.017
484.057	0.018
484.363	0.0169
484.668	0.0175
484.973	0.0163
485.278	0.0162
485.583	0.0162
485.888	0.0158
486.193	0.0148
486.498	0.0146
486.803	0.0151
487.107	0.015
487.412	0.0152
487.717	0.015
488.021	0.0144
488.325	0.0156
488.63	0.0145
488.934	0.0148
489.238	0.0146
489.542	0.0128
489.846	0.0132
490.15	0.014
490.454	0.0132
490.758	0.0133
491.062	0.0127
491.366	0.0132
491.669	0.0129
491.973	0.0133
492.276	0.0123
492.58	0.0128
492.883	0.0113
493.186	0.012
493.489	0.0116
493.792	0.0102
494.096	0.0108
494.399	0.0102
494.701	0.0108
495.004	0.0096
495.307	0.0104
495.61	0.0094
495.912	0.0107
496.215	0.0089
496.517	0.0088
496.82	0.0091
497.122	0.0087
497.424	0.0086
497.727	0.009
498.029	0.0083
498.331	0.0091
498.633	0.0089
498.935	0.009
499.237	0.0082
499.538	0.0084
499.84	0.0079
500.142	0.0079
500.443	0.0074
500.745	0.0073
501.046	0.0068
501.348	0.0073
501.649	0.0063
501.95	0.0059
502.251	0.0058
502.552	0.0067
502.853	0.0057
503.154	0.0056
503.455	0.006
503.756	0.0058
504.057	0.0071
504.357	0.0045
504.658	0.0057
504.958	0.0061
505.259	0.0062
505.559	0.0052
505.859	0.0044
506.16	0.0045
506.46	0.0052
506.76	0.0054
507.06	0.0046
507.36	0.0042
507.66	0.0046
507.96	0.0049
508.259	0.0037
508.559	0.005
508.859	0.0042
509.158	0.0035
509.457	0.0029
509.757	0.0045
510.056	0.0037
510.355	0.0044
510.655	0.0023
510.954	0.0033
511.253	0.0033
511.552	0.0033
511.851	0.0035
512.149	0.0025
512.448	0.0024
512.747	0.003
513.045	0.002
513.344	0.0015
513.642	0.002
513.941	0.0022
514.239	0.0018
514.537	0.0014
514.836	0.0023
515.134	0.0009
515.432	0.0038
515.73	0.0013
516.028	0.0015
516.326	0.0021
516.623	0.002
516.921	0.001
517.219	0.0021
517.516	0.0023
517.814	0.0018
518.111	0.0013
518.409	0.0001
518.706	0.0005
519.003	0.0018
519.3	0.0015
519.597	0.0009
519.894	0.0012
520.191	0.0013
520.488	0.0013
520.785	0.0005
521.082	0.0017
521.378	-0.0001
521.675	0.0006
521.971	-0.0009
522.268	0.0009
522.564	-0.0002
522.861	0.0012
523.157	0.0003
523.453	0.001
523.749	0.0007
524.045	0.0011
524.341	0.0011
524.637	0.0006
524.933	-0.0003
525.229	-0
525.524	-0.0002
525.82	-0.0002
526.115	-0.0004
526.411	-0.0003
526.706	-0.0002
527.002	0.001
527.297	-0.0014
527.592	0.0003
527.887	0.0014
528.182	0.0002
528.477	0.0003
528.772	-0
529.067	-0.0004
529.362	-0.0004
529.657	0.0004
529.951	0.0003
530.246	-0.0008
530.54	0.0002
530.835	-0.0009
531.129	-0.0007
531.423	-0.0001
531.718	-0.0002
532.012	-0.0006
532.306	-0.001
532.6	-0.0022
532.894	-0.0007
533.188	0.0002
533.482	-0.0009
533.775	-0.0003
534.069	-0.0005
534.363	-0.0019
534.656	-0.0021
534.95	-0.0001
535.243	-0.0015
535.536	-0.0001
535.83	-0.0025
536.123	-0.0012
536.416	-0.001
536.709	-0.0009
537.002	-0.001
537.295	-0.001
537.588	-0.0019
537.881	-0.0015
538.173	-0.0015
538.466	-0.0015
538.759	-0.0002
539.051	-0.0012
539.344	-0.0018
539.636	-0.0014
539.928	-0.0005
540.22	-0.0009
540.513	-0.0003
540.805	-0.0004
541.097	-0.0018
541.389	-0.0023
541.681	-0.0002
541.972	0.0006
542.264	0.0014
542.556	0
542.847	0.0009
543.139	-0.0002
543.431	-0.0003
543.722	-0.0004
544.013	0.0003
544.305	-0.0013
544.596	-0.0009
544.887	-0.0002
545.178	-0.0008
545.469	-0.0005
545.76	-0.0009
546.051	-0.0001
546.342	-0
546.632	-0.0012
546.923	-0.0009
547.214	-0.0006
547.504	-0.0014
547.795	-0.002
548.085	-0.0017
548.375	-0.0014
548.666	-0.0011
548.956	-0.0009
549.246	-0.0001
549.536	-0.0002
549.826	-0.0002
550.116	-0.0005
550.406	-0.0009
550.695	-0.0022
550.985	-0.0006
551.275	-0.0013
551.564	-0.0003
551.854	0.0004
552.143	-0.0009
552.433	-0.0025
552.722	-0.0027
553.011	-0.0008
553.3	-0.0003
553.589	0.0001
553.879	-0.0003
554.167	-0.001
554.456	0.0006
554.745	-0.0005
555.034	-0.0002
555.323	0
555.611	-0.0007
555.9	-0.0008
556.188	-0.0018
556.477	-0.0007
556.765	-0.0031
557.053	-0.0014
557.342	-0.0016
557.63	-0.0006
557.918	0.0003
558.206	-0.0002
558.494	-0.0004
558.782	-0.0003
559.069	0.0011
559.357	0.0008
559.645	-0.0005
559.932	-0.0002
560.22	-0.0007
560.507	-0.001
560.795	-0.0015
561.082	-0.002
561.37	0.0004
561.657	-0.0019
561.944	-0.001
562.231	-0.0007
562.518	-0.0004
562.805	-0
563.092	-0.0004
563.379	0.0005
563.665	0.0002
563.952	0.0004
564.239	0.0001
564.525	0.0006
564.811	0.0013
565.098	-0
565.384	-0.0008
565.67	0.0004
565.957	0.0018
566.243	0.0018
566.529	0.0009
566.815	0.0006
567.101	0.0013
567.387	0.0007
567.672	0.0001
567.958	0.0005
568.244	0.0003
568.529	0.0003
568.815	-0.0005
569.1	-0.001
569.386	-0.0012
569.671	-0.0004
569.956	-0.0004
570.242	-0.0007
570.527	-0.0016
570.812	-0.0003
571.097	0.0004
571.382	-0.0006
571.666	-0
571.951	-0.0006
572.236	-0.0002
572.521	-0.0008
572.805	-0.0009
573.09	-0.0001
573.374	-0.0013
573.659	-0.0014
573.943	-0.001
574.227	-0.0011
574.511	-0.0013
574.795	-0.0006
575.079	-0.0003
575.363	-0.0012
575.647	-0.0013
575.931	-0
576.215	-0.001
576.499	-0.0012
576.782	-0.0016
577.066	-0.0009
577.349	-0.0001
577.633	-0.0009
577.916	-0.0013
578.2	-0.0008
578.483	-0.0013
578.766	-0.0005
579.049	-0.0008
579.332	0.0007
579.615	0.0001
579.898	-0.0004
580.181	-0
580.464	0.0008
580.746	-0.0003
581.029	-0.0005
581.312	-0.0011
581.594	-0.0017
581.877	-0.0017
582.159	-0.0012
582.441	-0.0012
582.724	-0.001
583.006	-0.0002
583.288	0.0002
583.57	0.0006
583.852	0.0007
584.134	0.0005
584.416	-0.0009
584.697	-0.0005
584.979	-0.0014
585.261	-0.0019
585.542	-0.0019
585.824	-0.0017
586.105	-0.0015
586.387	-0.0006
586.668	-0.0007
586.949	-0.0011
587.231	-0.0002
587.512	-0.0006
587.793	-0.0003
588.074	-0.0011
588.355	0.0001
588.636	-0.0005
588.916	-0.0013
589.197	-0.0003
589.478	0.0001
589.758	-0.0004
590.039	-0
590.319	0.0006
590.6	0.0011
590.88	0.0006
591.16	0.0004
591.441	0.0002
591.721	0
592.001	-0.0006
592.281	-0.0005
592.561	0.0005
592.841	-0.0012
593.12	-0.0028
593.4	-0.0019
593.68	-0.0024
593.959	-0.0021
594.239	-0.0015
594.518	-0.0004
594.798	0.0005
595.077	-0.0013
595.356	-0.0009
595.636	-0.0016
595.915	-0.0008
596.194	0.0004
596.473	0.0007
596.752	0.0003
597.031	0.0006
597.31	-0.0008
597.588	-0.0007
597.867	-0.0006
598.146	-0.0011
598.424	-0
598.703	-0.0005
598.981	-0.0024
599.259	-0.0014
599.538	-0.0009
599.816	-0.0004
600.094	-0.0009
600.372	-0.0022
600.65	-0.0014
600.928	-0.0014
601.206	-0.0005
601.484	-0
601.762	0.0004
602.04	-0.0002
602.317	-0.0004
602.595	-0.0006
602.872	-0.0001
603.15	0.0004
603.427	-0.0021
603.704	-0.0017
603.982	-0.0011
604.259	-0.0006
604.536	-0.0014
604.813	-0.0007
605.09	-0.0003
605.367	-0.0015
605.644	-0.0011
605.921	-0.0006
606.197	-0.0013
606.474	-0.0007
606.751	-0.0006
607.027	-0.0011
607.304	-0.0012
607.58	-0.0012
607.856	-0.0017
608.133	-0.0018
608.409	-0.0009
608.685	-0.0017
608.961	-0.0011
609.237	-0.0007
609.513	-0.0006
609.789	-0.0007
610.065	-0.0015
610.341	-0.0013
610.616	0.0001
610.892	0.0004
611.167	0.0011
611.443	-0.0003
611.718	-0
611.994	0.0001
612.269	0.0003
612.544	0.0001
612.819	-0.0006
613.095	-0.0007
613.37	-0.0003
613.645	-0.0007
613.919	-0.001
614.194	0.0005
614.469	0.0006
614.744	-0.0003
615.019	-0.0008
615.293	-0.0007
615.568	-0.0008
615.842	-0
616.116	0.0013
616.391	0.0006
616.665	0.0013
616.939	-0.0001
617.213	0.0018
617.488	0.001
617.762	-0.0003
618.035	0.0005
618.309	-0.0015
618.583	0.0005
618.857	0.0016
619.131	0.0021
619.404	0.0014
619.678	0.0021
619.951	-0.0004
620.225	-0.0002
620.498	-0.0003
620.771	0.0002
621.045	0
621.318	-0.0008
621.591	-0.0013
621.864	-0.0015
622.137	-0.0017
622.41	-0.0012
622.683	-0.0006
622.956	-0.0003
623.228	0.0003
623.501	0.0003
623.774	0.0009
624.046	0
624.319	-0.0011
624.591	-0.0011
624.863	-0.0008
625.136	0.0005
625.408	0.0016
625.68	0.0005
625.952	0.0019
626.224	0.0017
626.496	0.0014
626.768	0.0014
627.04	0.0007
627.311	-0
627.583	0
627.855	0.0018
628.126	0.0016
628.398	0.0023
628.669	0.0032
628.941	0.0027
629.212	0.0015
629.483	0.0013
629.755	-0.0004
630.026	0.0016
630.297	0.0008
630.568	0.0014
630.839	0.0018
631.11	0.002
631.38	0.0024
631.651	0.0027
631.922	0.0016
632.192	0.0019
632.463	0.0016
632.733	0.0012
633.004	0.0018
633.274	0.0018
633.545	0.0027
633.815	0.0012
634.085	0.0002
634.355	-0.0016
634.625	-0.0007
634.895	-0.001
635.165	-0.0007
635.435	-0
635.705	0.0002
635.974	-0.0005
636.244	0
636.514	0.0011
636.783	0.0006
637.053	0.0014
637.322	0.0015
637.591	0.0014
637.861	-0.0006
638.13	0.0003
638.399	-0.0007
638.668	0.0004
638.937	-0.0008
639.206	-0.0012
639.475	-0.0006
639.744	0.0007
640.013	0.0013
640.281	0.0009
640.55	0.0013
640.819	0.0016
641.087	0.002
641.356	0.0025
641.624	0.0023
641.892	0.0034
642.161	0.0033
642.429	0.0025
642.697	0.0016
642.965	0.0017
643.233	0.0004
643.501	-0.0005
643.769	0.0005
644.037	0.001
644.305	0.001
644.572	0.0012
644.84	0.0004
645.108	-0.0006
645.375	-0.0007
645.643	-0.0003
645.91	0.0018
646.177	0.0034
646.445	0.0023
646.712	0.0049
646.979	0.0045
647.246	0.005
647.513	0.0048
647.78	0.0028
648.047	0.0014
648.314	-0.0003
648.58	0.0006
648.847	0.001
649.114	0.0023
649.38	0.001
649.647	0.0002
649.913	0.002
650.18	0.0014
650.446	0.0018
650.712	0.0007
650.978	0.0009
651.245	0.0001
651.511	0.0006
651.777	0.0012
652.043	0.0007
652.309	0.0013
652.574	0.0023
652.84	0.0033
653.106	0.0028
653.371	0.003
653.637	0.0023
653.903	0.0029
654.168	0.0041
654.433	0.0049
654.699	0.0048
654.964	0.0058
655.229	0.0037
655.494	0.0015
655.759	-0.0031
656.024	-0.0006
656.289	-0
656.554	-0.0003
656.819	0.0002
657.084	0.0018
657.349	0.0024
657.613	0.0024
657.878	0.0017
658.142	0.001
658.407	0.0009
658.671	0.0011
658.936	0.0012
659.2	0.0019
659.464	0.003
659.728	0.0022
659.992	0.0013
660.256	0.0016
660.52	0.0011
660.784	0.0006
661.048	0.0008
661.312	0.0009
661.575	0.0015
661.839	0.0016
662.103	0.0009
662.366	0.0012
662.63	0.0011
662.893	0.0002
663.156	-0
663.42	0.0001
663.683	-0.0019
663.946	-0.0017
664.209	-0.0009
664.472	-0.0024
664.735	-0.0009
664.998	-0.0004
665.261	0.0003
665.524	-0.001
665.786	0.0001
666.049	0.0001
666.312	0.0001
666.574	-0.0004
666.837	0.0006
667.099	0.0013
667.361	0.0018
667.624	0.0011
667.886	0.0006
668.148	0.0005
668.41	0.0011
668.672	-0.0002
668.934	0.0009
669.196	0.0004
669.458	0.0022
669.72	0.0021
669.982	0.002
670.243	0.0021
670.505	0.0012
670.766	0.0022
671.028	0.0021
671.289	0.0006
671.551	0.0007
671.812	-0.0013
672.073	0.0004
672.334	0.0004
672.596	-0.0004
672.857	-0.0001
673.118	0.0001
673.379	0.0001
673.639	-0.0001
673.9	-0.0003
674.161	-0
674.422	-0.0006
674.682	0.0003
674.943	0.0003
675.203	0.0012
675.464	-0.0003
675.724	-0.0011
675.985	-0.001
676.245	-0.0007
676.505	-0.0005
676.765	-0.0012
677.025	0.0003
677.285	0.0004
677.545	0.0016
677.805	0.0007
678.065	0.0006
678.325	0.0017
678.585	0.0009
678.844	-0.0008
679.104	-0.0004
679.363	-0.0023
679.623	-0.0018
679.882	-0.0011
680.142	0.0001
680.401	-0
680.66	0.0012
680.919	0.0022
681.178	0.0031
681.437	0.0024
681.696	0.0005
681.955	0.0013
682.214	0.0015
682.473	0.001
682.732	0.0011
682.99	0.0007
683.249	0.0013
683.508	0.0003
683.766	0.0001
684.024	-0.0004
684.283	0.001
684.541	0.0003
684.799	0.0005
685.058	0.0013
685.316	-0.0008
685.574	-0.0007
685.832	-0.0011
686.09	-0.0004
686.348	-0.0014
686.606	-0.001
686.863	-0.0009
687.121	0.0007
687.379	0.0006
687.636	0.0002
687.894	0.0022
688.151	0.0017
688.409	0.001
688.666	0.0003
688.923	-0.0008
689.181	-0.0001
689.438	-0.0014
689.695	-0.0008
689.952	-0.0017
690.209	-0.0008
690.466	-0.0018
690.723	0.0005
690.979	0.0008
691.236	-0.001
691.493	-0.0003
691.75	0.0002
692.006	0.0005
692.263	0.0006
692.519	0.0005
692.775	0.0003
693.032	0.0002
693.288	0.0007
693.544	-0.0001
693.8	0.0002
694.056	-0.0001
694.313	0.0004
694.568	0.0003
694.824	0.0003
695.08	-0.0007
695.336	-0.0011
695.592	-0.0028
695.847	-0.0013
696.103	-0.0008
696.359	-0.0002
696.614	-0.0005
696.869	-0.0011
697.125	-0.0039
697.38	-0.0023
697.635	-0.0009
697.891	-0.0001
698.146	0.0006
698.401	0.0004
698.656	-0
698.911	0.0007
699.166	0.0019
699.42	0.0021
699.675	0.0013
699.93	0.0014
700.185	0.0002
700.439	0.0007
700.694	0.0008
700.948	0.0005
701.203	-0.0004
701.457	-0
701.711	-0.0011
701.965	-0.0015
702.22	-0.0015
702.474	-0.0014
702.728	-0.0013
702.982	-0.0017
703.236	-0.0011
703.49	-0.001
703.743	-0.0014
703.997	-0.0008
704.251	-0.001
704.504	-0.001
704.758	-0.0012
705.012	-0.0004
705.265	0.0003
705.518	0.0011
705.772	0.001
706.025	0.0008
706.278	0.0001
706.531	0
706.785	-0.0014
707.038	-0.0022
707.291	-0.0012
707.543	-0.0009
707.796	-0.0012
708.049	-0.0017
708.302	-0.0027
708.555	-0.0032
708.807	-0.0017
709.06	-0.0024
709.312	-0.0019
709.565	-0.002
709.817	-0.0024
710.069	-0.0019
710.322	-0.003
710.574	-0.0034
710.826	-0.0031
711.078	-0.0026
711.33	-0.002
711.582	-0.0031
711.834	-0.0025
712.086	-0.0024
712.338	-0.0035
712.59	-0.003
712.841	-0.0046
713.093	-0.0034
713.344	-0.0035
713.596	-0.0036
713.847	-0.0022
714.099	-0.0021
714.35	-0.0021
714.601	-0.0018
714.853	-0.0013
715.104	-0.0014
715.355	-0.0013
715.606	-0.0013
715.857	-0.0007
716.108	-0.0016
716.359	-0.0007
716.609	-0.0013
716.86	-0.0009
717.111	-0.0008
717.361	-0.0006
717.612	0.0007
717.863	0.0011
718.113	0.002
718.363	0.0002
718.614	0.002
718.864	0.0026
719.114	0.0021
719.364	0.0023
719.614	0.0017
719.865	0.0029
720.114	0.0043
720.364	0.0037
720.614	0.0037
720.864	0.0024
721.114	0.0024
721.364	0.0025
721.613	0.0022
721.863	0.0019
722.112	0.0018
722.362	0.0013
722.611	0.0003
722.86	-0.0002
723.11	0.0006
723.359	0.0001
723.608	-0
723.857	0.0007
724.106	0.0019
724.355	0.0017
724.604	0.002
724.853	0.0017
725.102	-0.0005
725.351	-0.0001
725.599	-0.001
725.848	-0.0004
726.097	0.0002
726.345	-0.0005
726.594	-0.0015
726.842	-0.0002
727.09	-0.0025
727.339	-0.0035
727.587	-0.003
727.835	-0.0037
728.083	-0.0023
728.331	-0.0027
728.579	-0.0015
728.827	-0.0006
729.075	-0.0003
729.323	-0.0005
729.571	-0.0005
729.818	-0.0007
730.066	-0.0006
730.314	-0.0002
730.561	0.0012
730.809	0.0007
731.056	0.0003
731.303	0.0008
731.551	0.0006
731.798	0.0009
732.045	0.0006
732.292	0.0022
732.539	0.0018
732.786	0.0023
733.033	0.0012
733.28	0.0013
733.527	0.0006
733.774	-0.0003
734.021	-0.0018
734.267	-0.0018
734.514	-0.0029
734.76	-0.0025
735.007	-0.0019
735.253	-0.0031
735.5	-0.0025
735.746	-0.0025
735.992	-0.0015
736.238	-0.0014
736.485	0.0003
736.731	0.0008
736.977	0
737.223	-0.0004
737.469	-0.0007
737.715	0.0001
737.96	0.0002
738.206	-0.0006
738.452	-0.0004
738.697	-0.0005
738.943	-0.0003
739.189	-0.0012
739.434	-0.0008
739.679	-0.0014
739.925	-0.0003
740.17	-0.0017
740.415	-0.0023
740.66	-0.0033
740.906	-0.0022
741.151	-0.0018
741.396	-0.0025
741.641	-0.0023
741.886	-0.0027
742.13	-0.0015
742.375	-0.0013
742.62	-0.0018
742.865	-0.003
743.109	-0
743.354	0.0002
743.598	0.0021
743.843	0.0022
744.087	0.0025
744.331	0.0031
744.576	0.004
744.82	0.0042
745.064	0.0039
745.308	0.005
745.552	0.0043
745.796	0.0024
746.04	0.0025
746.284	0.001
746.528	0.0027
746.771	0.0043
747.015	0.0042
747.259	0.0029
747.502	0.0026
747.746	0.0017
747.989	0.0027
748.233	0.002
748.476	0.0024
748.719	0.0034
748.963	0.0047
749.206	0.0051
749.449	0.0021
749.692	0.0025
749.935	0.0032
750.178	0.0017
750.421	0.0009
750.664	0.0024
750.906	0.0024
751.149	0.0033
751.392	0.0021
751.635	0.001
751.877	0.0006
752.12	0.0001
752.362	0.0003
752.604	0.0009
752.847	0.0028
753.089	0.0034
753.331	0.0039
753.573	0.0027
753.816	0.0013
754.058	0.0009
754.3	-0.001
754.542	-0.0007
754.783	-0.0015
755.025	-0.001
755.267	-0.0003
755.509	-0.0008
755.75	-0.0013
755.992	-0.001
756.234	-0.0009
756.475	-0.0011
756.716	-0.0018
756.958	-0.0015
757.199	-0.0016
757.44	-0.0009
757.682	-0.0016
757.923	-0
758.164	0.0014
758.405	0.0006
758.646	0.0027
758.887	0.0025
759.128	0.0025
759.369	0.0011
759.609	0.0021
759.85	0.0019
760.091	0.003
760.331	0.0019
760.572	0.0006
760.812	-0.0006
761.053	-0.0006
761.293	-0.0009
761.533	-0.0001
761.774	0.0021
762.014	0.0021
762.254	0.0011
762.494	0.0002
762.734	0.0005
762.974	-0.0005
763.214	-0.0004
763.454	-0.0005
763.694	-0.0009
763.933	-0.0012
764.173	-0.003
764.413	-0.0045
764.652	-0.004
764.892	-0.0035
765.131	-0.0033
765.371	-0.0029
765.61	-0.0032
765.849	-0.0025
766.089	-0.0015
766.328	-0.0005
766.567	-0.0013
766.806	0
767.045	0.0003
767.284	-0.0015
767.523	-0.0005
767.762	-0.0017
768.001	-0.0016
768.239	-0.0022
768.478	-0.0011
768.717	-0.001
768.955	-0.0009
769.194	-0.0011
769.432	0.0004
769.671	0.0011
769.909	0.0013
770.148	0.0013
770.386	0.0024
770.624	0.0026
770.862	0.003
771.1	0.0038
771.338	0.0033
771.576	0.0022
771.814	0.0031
772.052	0.0034
772.29	0.0042
772.528	0.0046
772.765	0.0057
773.003	0.006
773.24	0.0057
773.478	0.0046
773.716	0.0048
773.953	0.0043
774.19	0.0038
774.428	0.0056
774.665	0.005
774.902	0.0061
775.139	0.0056
775.376	0.0045
775.613	0.0049
775.85	0.0038
776.087	0.0025
776.324	0.0023
776.561	0.0018
776.798	0.0015
777.034	0.001
777.271	0.0021
777.508	0.0022
777.744	0.0039
777.981	0.0035
778.217	0.0045
778.454	0.0036
778.69	0.0022
778.926	0.0016
779.162	0.0019
779.399	0.002
779.635	0.0015
779.871	0.0016
780.107	0.0018
780.343	0.0008
780.579	0.0016
780.814	0.0011
781.05	0.0014
781.286	0.0003
781.522	0.0011
781.757	0.0013
781.993	0.0019
782.228	0.0015
782.464	0.0016
782.699	0.0003
782.934	-0.0002
783.17	0.0002
783.405	0.0006
783.64	0.0001
783.875	-0.0007
784.11	-0.0006
784.345	0.0012
784.58	0.0015
784.815	0.0019
785.05	0.0006
785.285	-0.0005
785.52	-0.0004
785.754	-0.0019
785.989	-0.0016
786.223	-0.0034
786.458	-0.0032
786.692	-0.0025
786.927	-0.0008
787.161	-0.0004
787.396	-0.0013
787.63	-0.0014
787.864	-0.0024
788.098	-0.0027
788.332	-0.0029
788.566	-0.002
788.8	-0.0026
789.034	-0.0014
789.268	-0.0017
789.502	-0.0009
789.736	-0.0005
789.969	-0.001
790.203	-0.0007
790.437	-0.001
790.67	-0.0022
790.904	-0.0028
791.137	-0.0037
791.37	-0.0042
791.604	-0.0054
791.837	-0.0048
792.07	-0.0046
792.303	-0.0054
792.537	-0.0045
792.77	-0.0041
793.003	-0.0036
793.236	-0.0033
793.469	-0.0036
793.701	-0.0026
793.934	-0.0016
794.167	-0.0017
794.4	-0.0019
794.632	-0.0008
794.865	0.0002
795.097	0.0003
795.33	-0.0013
795.562	0
795.795	0.0009
796.027	0.0015
796.259	0.0014
796.491	0.001
796.724	0.0006
796.956	0.0019
797.188	0.0013
797.42	0.0007
797.652	0.001
797.883	0.0013
798.115	0.0028
798.347	0.0021
798.579	0.0041
798.81	0.0053
799.042	0.0045
799.274	0.0034
799.505	0.003
799.737	0.0031
799.968	0.0015
800.199	0.0014
800.431	0.0006
800.662	0.0013
800.893	0.0007
801.124	0.0015
801.355	0.0007
801.586	0.0008
801.817	0.0011
802.048	-0.001
802.279	-0.0004
802.51	-0.0003
802.741	0.0011
802.971	0.0012
803.202	0.0005
803.433	0.0015
803.663	0.0004
803.894	0.0005
804.124	0
804.354	0.0011
804.585	0.0009
804.815	0.0011
805.045	0.0016
805.275	0.0005
805.506	-0.0204
805.736	-0.0839
805.966	-0.0589
806.196	-0.0206
