Data from 03 0.5 mM K2Cr2O7 0.3 mM BQDS 1 M H2SO4 5 min_Absorbance_0145.txt Node
Date: Tue Dec 14 05:44:46 EST 2021
User: kwabilab-user
Spectrometer: HDX00518
Trigger mode: 0
Integration Time (sec): 5.000000E-2
Scans to average: 50
Nonlinearity correction enabled: false
Boxcar width: 0
Storing dark spectrum: false
XAxis mode: Wavelengths
Number of Pixels in Spectrum: 2068
>>>>>Begin Spectral Data<<<<<
195.27	-0.1559
195.642	-0.0974
196.014	-0.2377
196.386	-0.1175
196.758	-0.0862
197.129	-0.0681
197.501	-0.0626
197.872	-0.0142
198.244	-0.0021
198.615	0.0152
198.986	0.0048
199.357	0.0155
199.728	-0.0071
200.099	0.0206
200.47	-0.0203
200.841	0.0069
201.212	0.0047
201.582	0.0098
201.953	-0.0049
202.323	0.0072
202.694	0.0069
203.064	-0.0016
203.434	-0.012
203.804	-0.0112
204.174	0.0171
204.544	-0.0088
204.914	-0.0166
205.284	0.007
205.653	-0.0209
206.023	-0.0086
206.393	-0.0298
206.762	0.0062
207.131	0.0009
207.501	-0.0001
207.87	-0.0084
208.239	-0.0023
208.608	-0.0066
208.977	-0.0202
209.346	-0.0147
209.715	-0.0129
210.083	-0.0467
210.452	-0.0272
210.82	0.0046
211.189	-0.0336
211.557	0.0079
211.925	-0.0344
212.294	-0.0091
212.662	-0.0106
213.03	-0.0131
213.398	-0.0016
213.766	0.012
214.133	-0.0034
214.501	0.0013
214.869	0.0235
215.236	-0.0111
215.604	-0.0094
215.971	0.0155
216.338	0.0133
216.705	0.0259
217.072	0.0348
217.439	0.0091
217.806	0.0036
218.173	0.0231
218.54	0.0281
218.907	0.0372
219.273	0.046
219.64	0.036
220.006	0.0531
220.373	0.0458
220.739	0.0816
221.105	0.0744
221.471	0.0862
221.837	0.1043
222.203	0.1253
222.569	0.1209
222.935	0.1521
223.3	0.1815
223.666	0.2184
224.031	0.2152
224.397	0.2426
224.762	0.2776
225.127	0.3039
225.493	0.3267
225.858	0.3473
226.223	0.3554
226.588	0.3795
226.952	0.4052
227.317	0.4101
227.682	0.4221
228.046	0.4516
228.411	0.4746
228.775	0.4772
229.14	0.4941
229.504	0.5197
229.868	0.5222
230.232	0.5349
230.596	0.5528
230.96	0.5664
231.324	0.5684
231.688	0.573
232.052	0.6071
232.415	0.6097
232.779	0.6068
233.142	0.6149
233.505	0.6235
233.869	0.6192
234.232	0.6335
234.595	0.6198
234.958	0.6398
235.321	0.635
235.684	0.6343
236.047	0.6417
236.409	0.6346
236.772	0.6408
237.134	0.643
237.497	0.6466
237.859	0.6426
238.222	0.6385
238.584	0.6297
238.946	0.6294
239.308	0.6314
239.67	0.6236
240.032	0.6271
240.393	0.6261
240.755	0.6186
241.117	0.6345
241.478	0.6297
241.84	0.624
242.201	0.6195
242.562	0.6196
242.924	0.6101
243.285	0.6127
243.646	0.6154
244.007	0.6065
244.368	0.6111
244.728	0.6034
245.089	0.6093
245.45	0.6076
245.81	0.6049
246.171	0.6025
246.531	0.6075
246.891	0.6031
247.252	0.5936
247.612	0.5941
247.972	0.594
248.332	0.5926
248.692	0.5972
249.051	0.6029
249.411	0.5934
249.771	0.5942
250.13	0.5847
250.49	0.5884
250.849	0.5898
251.208	0.5922
251.568	0.5909
251.927	0.5902
252.286	0.5939
252.645	0.5925
253.004	0.5925
253.363	0.5937
253.721	0.6002
254.08	0.5915
254.439	0.5893
254.797	0.5867
255.155	0.5803
255.514	0.5879
255.872	0.5902
256.23	0.5745
256.588	0.5848
256.946	0.5811
257.304	0.5744
257.662	0.5842
258.02	0.5847
258.377	0.5767
258.735	0.5721
259.093	0.5747
259.45	0.5762
259.807	0.5665
260.165	0.575
260.522	0.57
260.879	0.5637
261.236	0.5702
261.593	0.564
261.95	0.5617
262.306	0.5593
262.663	0.5546
263.02	0.5582
263.376	0.5533
263.733	0.5492
264.089	0.5459
264.445	0.5511
264.802	0.5432
265.158	0.547
265.514	0.5355
265.87	0.534
266.226	0.5347
266.581	0.5341
266.937	0.5281
267.293	0.5302
267.648	0.5228
268.004	0.5232
268.359	0.5134
268.714	0.5118
269.07	0.5159
269.425	0.5096
269.78	0.5053
270.135	0.5029
270.49	0.5004
270.844	0.5005
271.199	0.4946
271.554	0.5011
271.908	0.4916
272.263	0.4932
272.617	0.4847
272.972	0.4816
273.326	0.478
273.68	0.4735
274.034	0.473
274.388	0.4702
274.742	0.4684
275.096	0.4651
275.45	0.4586
275.803	0.4573
276.157	0.4549
276.51	0.4505
276.864	0.4449
277.217	0.4428
277.571	0.4394
277.924	0.4355
278.277	0.4312
278.63	0.426
278.983	0.4202
279.336	0.415
279.688	0.4157
280.041	0.414
280.394	0.4077
280.746	0.4093
281.099	0.3981
281.451	0.3939
281.803	0.3856
282.156	0.3868
282.508	0.3833
282.86	0.3796
283.212	0.3739
283.564	0.3706
283.916	0.3708
284.267	0.3604
284.619	0.3588
284.971	0.3553
285.322	0.3526
285.673	0.349
286.025	0.3445
286.376	0.3393
286.727	0.337
287.078	0.3316
287.429	0.3278
287.78	0.3252
288.131	0.3183
288.482	0.3154
288.833	0.3102
289.183	0.3058
289.534	0.3035
289.884	0.3007
290.235	0.2949
290.585	0.2936
290.935	0.2858
291.285	0.2836
291.635	0.2802
291.985	0.2765
292.335	0.2736
292.685	0.2699
293.035	0.2668
293.384	0.2619
293.734	0.2577
294.083	0.2537
294.433	0.2499
294.782	0.2468
295.131	0.2435
295.48	0.2399
295.829	0.2374
296.179	0.2335
296.527	0.2298
296.876	0.2256
297.225	0.2226
297.574	0.2182
297.922	0.2159
298.271	0.2127
298.619	0.2095
298.968	0.2053
299.316	0.204
299.664	0.2
300.012	0.1981
300.36	0.1946
300.708	0.1927
301.056	0.1897
301.404	0.1871
301.752	0.1857
302.099	0.1807
302.447	0.1799
302.794	0.1771
303.142	0.1755
303.489	0.1725
303.836	0.1712
304.183	0.1687
304.531	0.1672
304.878	0.1654
305.224	0.1644
305.571	0.1615
305.918	0.1599
306.265	0.1592
306.611	0.1571
306.958	0.1559
307.304	0.154
307.651	0.1531
307.997	0.1523
308.343	0.1513
308.689	0.1498
309.035	0.1491
309.381	0.1488
309.727	0.1487
310.073	0.1476
310.419	0.1468
310.764	0.1448
311.11	0.1455
311.455	0.1454
311.801	0.145
312.146	0.1446
312.491	0.1441
312.837	0.1431
313.182	0.143
313.527	0.1437
313.872	0.1431
314.216	0.1439
314.561	0.1436
314.906	0.1445
315.251	0.1442
315.595	0.1452
315.94	0.1451
316.284	0.1454
316.628	0.1462
316.972	0.1474
317.317	0.1477
317.661	0.1477
318.005	0.1487
318.348	0.1501
318.692	0.1505
319.036	0.1506
319.38	0.1515
319.723	0.1523
320.067	0.154
320.41	0.1554
320.754	0.1562
321.097	0.1569
321.44	0.1576
321.783	0.1593
322.126	0.1614
322.469	0.1615
322.812	0.1632
323.155	0.1645
323.498	0.1655
323.84	0.1674
324.183	0.1684
324.525	0.1706
324.868	0.173
325.21	0.1728
325.552	0.175
325.894	0.1764
326.236	0.1776
326.578	0.1794
326.92	0.1807
327.262	0.183
327.604	0.1847
327.946	0.1853
328.287	0.1879
328.629	0.1896
328.97	0.1909
329.312	0.1919
329.653	0.1937
329.994	0.196
330.335	0.1974
330.676	0.1995
331.017	0.2011
331.358	0.2035
331.699	0.205
332.04	0.2066
332.38	0.2077
332.721	0.2099
333.061	0.2119
333.402	0.2139
333.742	0.2157
334.083	0.2173
334.423	0.2175
334.763	0.2203
335.103	0.2211
335.443	0.2221
335.783	0.2241
336.123	0.2254
336.462	0.2274
336.802	0.2284
337.141	0.2308
337.481	0.2319
337.82	0.2322
338.16	0.2334
338.499	0.2353
338.838	0.2365
339.177	0.2386
339.516	0.2399
339.855	0.2416
340.194	0.2422
340.533	0.2434
340.872	0.2449
341.21	0.2452
341.549	0.2463
341.887	0.2477
342.226	0.2487
342.564	0.2501
342.902	0.2503
343.24	0.2509
343.578	0.251
343.916	0.2516
344.254	0.2521
344.592	0.2531
344.93	0.253
345.268	0.2536
345.605	0.2532
345.943	0.2546
346.28	0.2544
346.618	0.2551
346.955	0.2556
347.292	0.2559
347.629	0.2559
347.966	0.2559
348.303	0.2562
348.64	0.2561
348.977	0.257
349.314	0.2571
349.65	0.2562
349.987	0.2573
350.324	0.2573
350.66	0.2566
350.996	0.2562
351.333	0.2558
351.669	0.2554
352.005	0.2548
352.341	0.2536
352.677	0.2527
353.013	0.2523
353.349	0.2517
353.685	0.2503
354.02	0.2483
354.356	0.248
354.691	0.2468
355.027	0.2459
355.362	0.2456
355.697	0.2441
356.033	0.2432
356.368	0.2427
356.703	0.2422
357.038	0.2409
357.373	0.2391
357.707	0.2389
358.042	0.2376
358.377	0.2376
358.711	0.2361
359.046	0.2352
359.38	0.2341
359.715	0.2327
360.049	0.2316
360.383	0.2305
360.717	0.2291
361.051	0.2268
361.385	0.2265
361.719	0.2235
362.053	0.2226
362.387	0.2209
362.72	0.2187
363.054	0.2169
363.387	0.2155
363.721	0.2138
364.054	0.2113
364.387	0.2098
364.721	0.2081
365.054	0.2068
365.387	0.2047
365.72	0.202
366.053	0.2011
366.385	0.1992
366.718	0.1975
367.051	0.1965
367.383	0.195
367.716	0.1939
368.048	0.1921
368.381	0.1907
368.713	0.1891
369.045	0.1886
369.377	0.1864
369.709	0.1857
370.041	0.1844
370.373	0.1826
370.705	0.1803
371.037	0.1791
371.368	0.1768
371.7	0.177
372.031	0.1737
372.363	0.1721
372.694	0.1699
373.025	0.1681
373.356	0.1654
373.688	0.1638
374.019	0.1617
374.35	0.1602
374.68	0.1578
375.011	0.1557
375.342	0.1532
375.673	0.1518
376.003	0.1496
376.334	0.1476
376.664	0.1456
376.995	0.1444
377.325	0.1412
377.655	0.1413
377.985	0.139
378.315	0.1382
378.645	0.1361
378.975	0.1346
379.305	0.1336
379.635	0.1326
379.964	0.1317
380.294	0.1296
380.623	0.1288
380.953	0.1268
381.282	0.1255
381.611	0.124
381.941	0.1226
382.27	0.1218
382.599	0.1201
382.928	0.1179
383.257	0.1164
383.585	0.1149
383.914	0.1138
384.243	0.1115
384.571	0.1102
384.9	0.1077
385.228	0.1066
385.557	0.1049
385.885	0.1028
386.213	0.1011
386.541	0.1005
386.869	0.0977
387.197	0.0959
387.525	0.0947
387.853	0.0934
388.181	0.0913
388.508	0.0903
388.836	0.0879
389.164	0.0875
389.491	0.0865
389.818	0.0849
390.146	0.0838
390.473	0.0828
390.8	0.0813
391.127	0.0801
391.454	0.0789
391.781	0.0778
392.108	0.0763
392.435	0.075
392.761	0.0736
393.088	0.0736
393.415	0.0729
393.741	0.0723
394.067	0.071
394.394	0.0703
394.72	0.069
395.046	0.0688
395.372	0.0675
395.698	0.0664
396.024	0.0658
396.35	0.0654
396.676	0.0637
397.001	0.0631
397.327	0.0621
397.653	0.0613
397.978	0.0595
398.303	0.0589
398.629	0.057
398.954	0.0564
399.279	0.056
399.604	0.0553
399.929	0.0548
400.254	0.0542
400.579	0.054
400.904	0.0532
401.229	0.0519
401.553	0.051
401.878	0.0511
402.202	0.0497
402.527	0.0494
402.851	0.0489
403.175	0.0485
403.5	0.0488
403.824	0.0477
404.148	0.0477
404.472	0.0464
404.796	0.0462
405.119	0.0459
405.443	0.0459
405.767	0.0445
406.09	0.0445
406.414	0.0444
406.737	0.0444
407.061	0.044
407.384	0.0442
407.707	0.0435
408.03	0.0429
408.353	0.0442
408.676	0.043
408.999	0.0429
409.322	0.0433
409.645	0.0424
409.968	0.0421
410.29	0.0423
410.613	0.0426
410.935	0.0422
411.258	0.042
411.58	0.0415
411.902	0.042
412.224	0.0421
412.546	0.0413
412.868	0.0413
413.19	0.0408
413.512	0.0412
413.834	0.0401
414.156	0.0408
414.477	0.0414
414.799	0.0403
415.121	0.0417
415.442	0.0412
415.763	0.0408
416.085	0.0403
416.406	0.0414
416.727	0.0406
417.048	0.0408
417.369	0.0405
417.69	0.04
418.011	0.0404
418.331	0.0406
418.652	0.0409
418.973	0.0408
419.293	0.0405
419.614	0.041
419.934	0.0414
420.254	0.0405
420.574	0.0411
420.895	0.041
421.215	0.0407
421.535	0.04
421.855	0.0405
422.174	0.0405
422.494	0.0403
422.814	0.0405
423.134	0.0407
423.453	0.0409
423.773	0.0405
424.092	0.0408
424.411	0.0406
424.731	0.0409
425.05	0.0404
425.369	0.041
425.688	0.0414
426.007	0.0408
426.326	0.0409
426.644	0.0412
426.963	0.0419
427.282	0.0406
427.6	0.0411
427.919	0.0406
428.237	0.0412
428.556	0.0408
428.874	0.0411
429.192	0.0419
429.51	0.0411
429.828	0.0411
430.146	0.0413
430.464	0.0405
430.782	0.0408
431.1	0.0411
431.418	0.0407
431.735	0.041
432.053	0.0414
432.37	0.0423
432.688	0.0411
433.005	0.0413
433.322	0.0421
433.639	0.0416
433.957	0.0416
434.274	0.0412
434.591	0.0416
434.907	0.0412
435.224	0.0409
435.541	0.0412
435.858	0.0417
436.174	0.0421
436.491	0.0407
436.807	0.0405
437.124	0.0408
437.44	0.0414
437.756	0.0407
438.072	0.0413
438.388	0.0413
438.704	0.0411
439.02	0.0413
439.336	0.041
439.652	0.0404
439.968	0.0399
440.283	0.0397
440.599	0.0403
440.914	0.041
441.23	0.0411
441.545	0.0408
441.86	0.0401
442.175	0.0401
442.491	0.0403
442.806	0.0402
443.121	0.0391
443.435	0.0397
443.75	0.0399
444.065	0.0399
444.38	0.04
444.694	0.0404
445.009	0.04
445.323	0.0398
445.638	0.0387
445.952	0.0395
446.266	0.0398
446.58	0.0394
446.894	0.039
447.208	0.0396
447.522	0.0392
447.836	0.0392
448.15	0.0383
448.464	0.0391
448.777	0.0392
449.091	0.0377
449.404	0.0388
449.718	0.0383
450.031	0.0382
450.345	0.0381
450.658	0.0389
450.971	0.0379
451.284	0.0376
451.597	0.0375
451.91	0.0373
452.223	0.0381
452.535	0.0366
452.848	0.0381
453.161	0.0366
453.473	0.0373
453.786	0.0369
454.098	0.0363
454.411	0.0367
454.723	0.036
455.035	0.0355
455.347	0.0352
455.659	0.0358
455.971	0.0366
456.283	0.0364
456.595	0.0356
456.907	0.036
457.218	0.035
457.53	0.0342
457.841	0.0347
458.153	0.0349
458.464	0.0351
458.776	0.0346
459.087	0.034
459.398	0.0347
459.709	0.034
460.02	0.0344
460.331	0.033
460.642	0.0331
460.953	0.0327
461.263	0.0327
461.574	0.033
461.885	0.0325
462.195	0.0324
462.506	0.0324
462.816	0.0319
463.126	0.0328
463.437	0.0319
463.747	0.0315
464.057	0.0309
464.367	0.0308
464.677	0.0304
464.987	0.03
465.296	0.0305
465.606	0.0298
465.916	0.0301
466.225	0.0294
466.535	0.0301
466.844	0.0295
467.154	0.0301
467.463	0.0285
467.772	0.0289
468.081	0.0285
468.39	0.029
468.699	0.0281
469.008	0.0278
469.317	0.0275
469.626	0.0266
469.935	0.0266
470.243	0.0274
470.552	0.0274
470.86	0.0269
471.169	0.026
471.477	0.0263
471.785	0.0266
472.093	0.0263
472.402	0.026
472.71	0.0259
473.018	0.0249
473.326	0.0245
473.633	0.0256
473.941	0.025
474.249	0.0248
474.556	0.0252
474.864	0.0248
475.171	0.0236
475.479	0.0239
475.786	0.024
476.094	0.0236
476.401	0.0228
476.708	0.0228
477.015	0.0232
477.322	0.0231
477.629	0.0222
477.936	0.0224
478.242	0.0214
478.549	0.0224
478.856	0.0217
479.162	0.021
479.469	0.022
479.775	0.0216
480.081	0.0205
480.388	0.0204
480.694	0.0207
481	0.0199
481.306	0.0201
481.612	0.0198
481.918	0.0191
482.224	0.0195
482.53	0.0191
482.835	0.0196
483.141	0.0187
483.446	0.0188
483.752	0.0177
484.057	0.0178
484.363	0.0177
484.668	0.0177
484.973	0.0166
485.278	0.0164
485.583	0.0173
485.888	0.0169
486.193	0.0157
486.498	0.0161
486.803	0.016
487.107	0.0165
487.412	0.0155
487.717	0.0153
488.021	0.0157
488.325	0.0168
488.63	0.0152
488.934	0.0151
489.238	0.0154
489.542	0.0139
489.846	0.0146
490.15	0.0149
490.454	0.0142
490.758	0.0141
491.062	0.0135
491.366	0.0141
491.669	0.0142
491.973	0.0141
492.276	0.0131
492.58	0.0129
492.883	0.0124
493.186	0.0129
493.489	0.0128
493.792	0.0111
494.096	0.0117
494.399	0.0119
494.701	0.0117
495.004	0.0112
495.307	0.0114
495.61	0.0106
495.912	0.011
496.215	0.0101
496.517	0.0098
496.82	0.0101
497.122	0.0092
497.424	0.01
497.727	0.01
498.029	0.0092
498.331	0.0101
498.633	0.0098
498.935	0.0089
499.237	0.0088
499.538	0.0086
499.84	0.0087
500.142	0.0083
500.443	0.0079
500.745	0.0083
501.046	0.0072
501.348	0.0077
501.649	0.0068
501.95	0.0075
502.251	0.0073
502.552	0.0072
502.853	0.0062
503.154	0.0066
503.455	0.0063
503.756	0.0063
504.057	0.0074
504.357	0.0064
504.658	0.0067
504.958	0.0077
505.259	0.0063
505.559	0.0055
505.859	0.0047
506.16	0.0061
506.46	0.0055
506.76	0.0067
507.06	0.0061
507.36	0.0055
507.66	0.0054
507.96	0.0055
508.259	0.0047
508.559	0.0065
508.859	0.0053
509.158	0.0049
509.457	0.0037
509.757	0.0044
510.056	0.0046
510.355	0.0051
510.655	0.004
510.954	0.0047
511.253	0.004
511.552	0.0038
511.851	0.0034
512.149	0.0032
512.448	0.0032
512.747	0.0036
513.045	0.0026
513.344	0.0021
513.642	0.003
513.941	0.003
514.239	0.0027
514.537	0.0014
514.836	0.0025
515.134	0.0001
515.432	0.0046
515.73	0.0034
516.028	0.002
516.326	0.002
516.623	0.0025
516.921	0.0006
517.219	0.0018
517.516	0.0016
517.814	0.0019
518.111	0.0021
518.409	0.0001
518.706	0.0013
519.003	0.0021
519.3	0.0022
519.597	0.0008
519.894	0.0028
520.191	0.0009
520.488	0.0017
520.785	0.0009
521.082	0.0016
521.378	0
521.675	0.0001
521.971	-0.0001
522.268	0.0015
522.564	0.0009
522.861	0.0014
523.157	0.0008
523.453	0.0022
523.749	0.0004
524.045	0.0001
524.341	0.0014
524.637	0.0011
524.933	0.0002
525.229	0.0002
525.524	0.0001
525.82	0.0004
526.115	0.0001
526.411	0.0012
526.706	0.0007
527.002	0.0015
527.297	-0.0005
527.592	0.0008
527.887	0.0022
528.182	0.0006
528.477	0.002
528.772	0.0007
529.067	0.0007
529.362	-0.0002
529.657	0
529.951	0.0001
530.246	-0.0005
530.54	0.0007
530.835	-0.0004
531.129	-0.0001
531.423	-0.0002
531.718	0
532.012	-0.0001
532.306	-0.0007
532.6	0.0003
532.894	-0.0004
533.188	0.0006
533.482	0.0005
533.775	-0.0001
534.069	0.0001
534.363	-0.0017
534.656	-0.0015
534.95	0.0005
535.243	-0.0008
535.536	-0.0002
535.83	-0.0015
536.123	-0.0006
536.416	-0.001
536.709	0
537.002	-0.001
537.295	-0.0015
537.588	-0.0021
537.881	-0.0019
538.173	0.0001
538.466	-0.0003
538.759	-0.0008
539.051	-0.0003
539.344	-0.001
539.636	-0.0015
539.928	-0.0005
540.22	-0.0009
540.513	-0.0006
540.805	-0.0001
541.097	-0.0014
541.389	-0.0011
541.681	0.0003
541.972	0
542.264	0.0009
542.556	0.0005
542.847	0.0006
543.139	0.0006
543.431	0.0004
543.722	0.0004
544.013	0.001
544.305	0.0005
544.596	-0.0004
544.887	-0.0001
545.178	-0.0001
545.469	-0.0008
545.76	-0.0009
546.051	0.001
546.342	-0.0008
546.632	-0.0007
546.923	-0.0003
547.214	-0.0013
547.504	-0.0012
547.795	-0.0016
548.085	-0.0016
548.375	-0.0008
548.666	-0.0007
548.956	-0.0008
549.246	0.0001
549.536	0.0001
549.826	0.0002
550.116	0
550.406	-0.0006
550.695	-0.0019
550.985	0.0001
551.275	-0.0006
551.564	-0.0008
551.854	0.0008
552.143	-0.0013
552.433	-0.0015
552.722	-0.0021
553.011	0.0003
553.3	-0.0004
553.589	0.0007
553.879	-0.0002
554.167	0.0005
554.456	0.0002
554.745	-0.0001
555.034	-0.0014
555.323	-0.0001
555.611	-0.0005
555.9	-0.0001
556.188	-0.0016
556.477	0.0001
556.765	-0.0036
557.053	-0.0001
557.342	-0.0001
557.63	-0.0001
557.918	-0
558.206	0.0014
558.494	-0.0005
558.782	-0.0003
559.069	0.0017
559.357	0.0013
559.645	-0.0001
559.932	-0.0006
560.22	-0
560.507	-0.0015
560.795	-0.0012
561.082	-0.0013
561.37	0.0002
561.657	-0.0009
561.944	-0.0008
562.231	-0.0004
562.518	-0.0001
562.805	-0.0002
563.092	-0.0002
563.379	0.0005
563.665	0.0006
563.952	0.0002
564.239	0.0016
564.525	0.001
564.811	0.0012
565.098	-0.0004
565.384	0.0002
565.67	0.0016
565.957	0.0019
566.243	0.0003
566.529	0.0008
566.815	0.0006
567.101	0.0016
567.387	0.0006
567.672	0.0007
567.958	0.001
568.244	0.0014
568.529	0.0009
568.815	-0.0011
569.1	-0.0011
569.386	-0.0006
569.671	0.0006
569.956	-0.0003
570.242	-0
570.527	-0.0006
570.812	0.0003
571.097	-0.0003
571.382	-0.0009
571.666	0.0011
571.951	-0.0008
572.236	0.0002
572.521	0.0006
572.805	0.0006
573.09	-0.0001
573.374	-0.0013
573.659	-0.0003
573.943	-0.0008
574.227	-0.0005
574.511	-0.0007
574.795	-0.0005
575.079	0.0001
575.363	-0.001
575.647	-0.0005
575.931	0.0006
576.215	-0.0013
576.499	-0.0009
576.782	-0.0005
577.066	-0.0003
577.349	0.0008
577.633	-0.0015
577.916	-0.0012
578.2	-0.0003
578.483	0.0004
578.766	0.0008
579.049	0.0004
579.332	0.0011
579.615	0.0002
579.898	0.0001
580.181	0.0012
580.464	0.0013
580.746	0.0002
581.029	0.0006
581.312	-0.0009
581.594	-0.002
581.877	-0.0006
582.159	-0.0003
582.441	-0.0011
582.724	0
583.006	0.001
583.288	0.0006
583.57	0.0009
583.852	0.0013
584.134	0.0003
584.416	0.0006
584.697	-0.0003
584.979	-0.0012
585.261	-0.0013
585.542	-0.0011
585.824	0.0001
586.105	-0.001
586.387	-0.0009
586.668	-0.0003
586.949	-0
587.231	0.0005
587.512	0.0006
587.793	0.0003
588.074	0
588.355	0.0008
588.636	-0.0005
588.916	-0.0005
589.197	0.0005
589.478	0.0006
589.758	0.0004
590.039	0.0005
590.319	0.0009
590.6	0.0009
590.88	0.0014
591.16	0.0017
591.441	0.0012
591.721	0.0003
592.001	-0.0007
592.281	-0.0001
592.561	0.0002
592.841	-0.0013
593.12	-0.0025
593.4	-0.0007
593.68	-0.0022
593.959	-0.0009
594.239	-0.0007
594.518	0.0002
594.798	0.0007
595.077	-0.001
595.356	-0.0006
595.636	-0.0003
595.915	0.0001
596.194	0.0011
596.473	0.0001
596.752	0.0007
597.031	0.0003
597.31	-0.0002
597.588	-0.0002
597.867	-0.0005
598.146	-0.0002
598.424	0.0001
598.703	0
598.981	-0.002
599.259	-0.0013
599.538	-0.0001
599.816	-0.0004
600.094	-0.0007
600.372	-0.0016
600.65	-0.0012
600.928	-0.0001
601.206	-0.0005
601.484	0.0009
601.762	0.0009
602.04	0
602.317	0
602.595	0.001
602.872	0.0007
603.15	0.0003
603.427	-0.0017
603.704	-0.0009
603.982	-0
604.259	-0.0001
604.536	-0.0002
604.813	-0.0002
605.09	-0.0002
605.367	-0.0008
605.644	-0.0009
605.921	-0.0005
606.197	-0.0008
606.474	0.0011
606.751	-0.0003
607.027	-0.0006
607.304	-0.0007
607.58	-0.0009
607.856	-0.0016
608.133	-0.0007
608.409	0.0006
608.685	-0.0011
608.961	-0.0009
609.237	-0.001
609.513	0.0001
609.789	-0.0009
610.065	-0.0007
610.341	-0.0003
610.616	0.0006
610.892	0.0008
611.167	0.0012
611.443	0.0007
611.718	0.0002
611.994	0.0008
612.269	0.0003
612.544	0.0004
612.819	-0.0001
613.095	-0.0004
613.37	0.0014
613.645	-0.0003
613.919	-0.0002
614.194	0.0004
614.469	0.0007
614.744	0.0004
615.019	-0.0008
615.293	-0.0005
615.568	0.0001
615.842	0
616.116	0.0015
616.391	0.0014
616.665	0.0013
616.939	0.0001
617.213	0.0013
617.488	0.0015
617.762	0.0006
618.035	0.0004
618.309	-0.0006
618.583	0.0008
618.857	0.0024
619.131	0.0008
619.404	0.0012
619.678	0.0012
619.951	-0.0003
620.225	-0.0003
620.498	0.0007
620.771	0.0011
621.045	-0.0006
621.318	0.0002
621.591	-0.0011
621.864	-0.0017
622.137	-0.0013
622.41	-0.0009
622.683	-0.0003
622.956	0.0001
623.228	0.0005
623.501	0.0011
623.774	0.0007
624.046	0.0008
624.319	-0.0007
624.591	-0.0007
624.863	-0.0006
625.136	0.0016
625.408	0.0013
625.68	-0.0002
625.952	0.002
626.224	0.0009
626.496	0.0014
626.768	0.0007
627.04	0.0008
627.311	0.0008
627.583	0.0006
627.855	0.0025
628.126	0.0022
628.398	0.0025
628.669	0.0031
628.941	0.0024
629.212	0.0018
629.483	0.0025
629.755	0.0011
630.026	0.0019
630.297	0.0026
630.568	0.0011
630.839	0.0017
631.11	0.0021
631.38	0.0016
631.651	0.0019
631.922	0.002
632.192	0.0014
632.463	0.0011
632.733	0.0007
633.004	0.0018
633.274	0.0013
633.545	0.0018
633.815	0.0017
634.085	-0.0006
634.355	-0.0019
634.625	-0.0002
634.895	-0.0001
635.165	0
635.435	-0.001
635.705	0.0009
635.974	-0.0004
636.244	0.0003
636.514	0.0017
636.783	0.0007
637.053	-0.0001
637.322	0.0016
637.591	0.0015
637.861	0.0007
638.13	0.0008
638.399	-0.0003
638.668	-0.0006
638.937	-0.0006
639.206	-0
639.475	0.0002
639.744	-0.0004
640.013	0.0001
640.281	0.0011
640.55	0.001
640.819	0.0007
641.087	0.0022
641.356	0.0011
641.624	0.0033
641.892	0.0036
642.161	0.003
642.429	0.0023
642.697	0.0017
642.965	0.0009
643.233	0.001
643.501	-0.0006
643.769	0.0007
644.037	0.0009
644.305	0.0011
644.572	0.0008
644.84	0.0003
645.108	-0.0003
645.375	-0.0004
645.643	0.0005
645.91	0.0015
646.177	0.0032
646.445	0.0026
646.712	0.0042
646.979	0.0053
647.246	0.0051
647.513	0.0052
647.78	0.0036
648.047	0.0027
648.314	0.0004
648.58	0.0007
648.847	0.0014
649.114	0.0024
649.38	0.0012
649.647	0.0012
649.913	0.0016
650.18	0.0018
650.446	0.0012
650.712	0.0005
650.978	0.0012
651.245	0.001
651.511	0.0009
651.777	0.0009
652.043	0.001
652.309	0.0007
652.574	0.0027
652.84	0.0033
653.106	0.0026
653.371	0.0035
653.637	0.0036
653.903	0.0045
654.168	0.0052
654.433	0.0053
654.699	0.005
654.964	0.0054
655.229	0.0038
655.494	0.0013
655.759	-0.0034
656.024	0.0004
656.289	-0
656.554	0.0041
656.819	0.003
657.084	0.0026
657.349	0.0016
657.613	0.0022
657.878	0.0012
658.142	0.0012
658.407	0.0016
658.671	0.0026
658.936	0.0025
659.2	0.002
659.464	0.0023
659.728	0.002
659.992	0.0014
660.256	0.0017
660.52	0.0015
660.784	0.0005
661.048	0.0003
661.312	0.0009
661.575	0.0009
661.839	0.0021
662.103	0.0011
662.366	0.0015
662.63	-0.0001
662.893	0.0001
663.156	0.0003
663.42	-0.0008
663.683	-0.0011
663.946	-0.0022
664.209	-0.0018
664.472	-0.0028
664.735	-0.0011
664.998	0.0005
665.261	-0.0001
665.524	-0.001
665.786	-0.0001
666.049	0
666.312	0.0006
666.574	-0.0005
666.837	0.0004
667.099	0.0013
667.361	0.0009
667.624	0.0007
667.886	-0.0009
668.148	0
668.41	0.0004
668.672	-0.0005
668.934	0.0004
669.196	0.0002
669.458	0.002
669.72	0.0014
669.982	0.0015
670.243	0.002
670.505	0.0016
670.766	0.0019
671.028	0.0014
671.289	0.0003
671.551	0.0003
671.812	-0.0007
672.073	0.0008
672.334	0.0001
672.596	-0
672.857	-0.0002
673.118	0.0002
673.379	-0.0011
673.639	-0.0004
673.9	-0
674.161	0.0002
674.422	-0.0006
674.682	0
674.943	0.0008
675.203	0.0004
675.464	0.0008
675.724	-0.0007
675.985	-0.001
676.245	-0.0003
676.505	-0.0007
676.765	-0.0009
677.025	0.0005
677.285	0.0003
677.545	0.0016
677.805	0.0009
678.065	0.001
678.325	0.0022
678.585	0.001
678.844	-0.0012
679.104	-0.0008
679.363	-0.002
679.623	-0.0017
679.882	-0.0004
680.142	-0.0001
680.401	-0.0006
680.66	0.0016
680.919	0.0028
681.178	0.0025
681.437	0.0019
681.696	0.0004
681.955	0.0023
682.214	0.0022
682.473	0.0011
682.732	0.0007
682.99	0.0004
683.249	0.0016
683.508	0.0006
683.766	-0
684.024	-0.0001
684.283	-0.0001
684.541	0.0004
684.799	0.0014
685.058	0.0006
685.316	-0.001
685.574	-0.0007
685.832	-0.0003
686.09	0
686.348	-0.0017
686.606	-0.0012
686.863	-0.0013
687.121	0.0003
687.379	0.0003
687.636	-0.0001
687.894	0.0019
688.151	0.0019
688.409	0.0012
688.666	0.0005
688.923	-0.0009
689.181	-0.0007
689.438	-0.0005
689.695	-0.0008
689.952	-0.0013
690.209	-0.0005
690.466	-0.0014
690.723	-0.0006
690.979	-0.0001
691.236	-0.0013
691.493	-0.0002
691.75	0.0011
692.006	0.001
692.263	0.0007
692.519	0.0008
692.775	0.0005
693.032	0.0001
693.288	-0.0008
693.544	0.0003
693.8	0.0004
694.056	0.0006
694.313	-0.0007
694.568	0.0005
694.824	0.0002
695.08	-0.0016
695.336	-0.0022
695.592	-0.0032
695.847	-0.0009
696.103	-0.0007
696.359	-0
696.614	-0.001
696.869	-0.002
697.125	-0.0041
697.38	-0.0018
697.635	-0.0008
697.891	0.0002
698.146	0.0012
698.401	0.0003
698.656	-0.0003
698.911	0
699.166	0.0007
699.42	0.0019
699.675	0.0007
699.93	0.0012
700.185	0.0008
700.439	0.0001
700.694	-0.0004
700.948	-0.0004
701.203	-0.0007
701.457	-0.0011
701.711	-0.0014
701.965	-0.0021
702.22	-0.0019
702.474	-0.0019
702.728	-0.0016
702.982	-0.0013
703.236	-0.0007
703.49	-0.001
703.743	-0.0016
703.997	-0.0005
704.251	-0.0014
704.504	-0.0009
704.758	-0.0011
705.012	-0.0002
705.265	0.0005
705.518	0.0015
705.772	0.0018
706.025	0.001
706.278	0.0002
706.531	-0.001
706.785	-0.0017
707.038	-0.0029
707.291	-0.0008
707.543	-0.0021
707.796	-0.0009
708.049	-0.0019
708.302	-0.0019
708.555	-0.0018
708.807	-0.0011
709.06	-0.0027
709.312	-0.0012
709.565	-0.0017
709.817	-0.0021
710.069	-0.0021
710.322	-0.0028
710.574	-0.0033
710.826	-0.0034
711.078	-0.0023
711.33	-0.002
711.582	-0.0029
711.834	-0.0024
712.086	-0.003
712.338	-0.003
712.59	-0.0027
712.841	-0.005
713.093	-0.0028
713.344	-0.0038
713.596	-0.0032
713.847	-0.0011
714.099	-0.0012
714.35	-0.002
714.601	-0.0022
714.853	-0.0011
715.104	-0.001
715.355	-0.0017
715.606	-0.0006
715.857	0.0001
716.108	-0.0009
716.359	-0.0006
716.609	-0.001
716.86	-0.0007
717.111	-0.0008
717.361	-0.0003
717.612	0.0006
717.863	0.0014
718.113	0.0019
718.363	0.0006
718.614	0.0028
718.864	0.0032
719.114	0.0019
719.364	0.0021
719.614	0.0012
719.865	0.0026
720.114	0.0037
720.364	0.0035
720.614	0.0035
720.864	0.0023
721.114	0.0027
721.364	0.0028
721.613	0.0025
721.863	0.0018
722.112	0.0019
722.362	0.0013
722.611	0.001
722.86	0.0006
723.11	0.0009
723.359	0.0007
723.608	-0.0001
723.857	0.0001
724.106	0.0011
724.355	0.0015
724.604	0.0012
724.853	0.0009
725.102	-0.0002
725.351	0.0001
725.599	-0.0005
725.848	-0.0006
726.097	0.0006
726.345	-0.0003
726.594	-0.0008
726.842	-0.0005
727.09	-0.0022
727.339	-0.0033
727.587	-0.0035
727.835	-0.0039
728.083	-0.0027
728.331	-0.0035
728.579	-0.0014
728.827	-0.0009
729.075	-0.0007
729.323	-0.0008
729.571	-0.0004
729.818	-0.0004
730.066	-0.0004
730.314	-0.0002
730.561	0.0012
730.809	0.0003
731.056	0.0003
731.303	0.002
731.551	0.0013
731.798	0.0006
732.045	0.0008
732.292	0.0021
732.539	0.0012
732.786	0.0018
733.033	0.0013
733.28	0.0016
733.527	0.0013
733.774	-0.0005
734.021	-0.0014
734.267	-0.0017
734.514	-0.0026
734.76	-0.0025
735.007	-0.0013
735.253	-0.0028
735.5	-0.0023
735.746	-0.0026
735.992	-0.0011
736.238	-0.001
736.485	-0
736.731	0
736.977	-0.0009
737.223	0.0004
737.469	0.0003
737.715	0.001
737.96	-0
738.206	-0.0013
738.452	-0.0009
738.697	-0.0009
738.943	-0.0013
739.189	-0.0023
739.434	-0.0014
739.679	-0.0011
739.925	-0.0011
740.17	-0.0019
740.415	-0.0027
740.66	-0.003
740.906	-0.0026
741.151	-0.002
741.396	-0.0028
741.641	-0.0028
741.886	-0.0033
742.13	-0.0014
742.375	-0.0011
742.62	-0.0023
742.865	-0.0021
743.109	-0.0001
743.354	0.0005
743.598	0.0017
743.843	0.0017
744.087	0.002
744.331	0.0025
744.576	0.003
744.82	0.0042
745.064	0.0044
745.308	0.0044
745.552	0.0042
745.796	0.002
746.04	0.0029
746.284	0.0013
746.528	0.002
746.771	0.0045
747.015	0.0035
747.259	0.0029
747.502	0.0023
747.746	0.0017
747.989	0.0026
748.233	0.0013
748.476	0.0028
748.719	0.0033
748.963	0.0044
749.206	0.0048
749.449	0.0018
749.692	0.0022
749.935	0.0031
750.178	0.0015
750.421	0.0009
750.664	0.0014
750.906	0.0027
751.149	0.0035
751.392	0.0014
751.635	0.0008
751.877	0.0015
752.12	0.0007
752.362	0.0005
752.604	0.0012
752.847	0.0022
753.089	0.003
753.331	0.0035
753.573	0.0026
753.816	0.0022
754.058	0.0016
754.3	-0.0003
754.542	0.0001
754.783	-0.0011
755.025	-0.0014
755.267	0
755.509	-0.0008
755.75	-0.0007
755.992	0.0002
756.234	-0.0004
756.475	-0.001
756.716	-0.0014
756.958	-0.0018
757.199	-0.001
757.44	-0.0014
757.682	-0.0017
757.923	0.0004
758.164	0.0012
758.405	0.0011
758.646	0.0031
758.887	0.0014
759.128	0.0014
759.369	0.0004
759.609	0.0015
759.85	0.0015
760.091	0.0023
760.331	0.0017
760.572	-0.0002
760.812	-0.0009
761.053	-0.0006
761.293	-0.001
761.533	-0.0009
761.774	0.0019
762.014	0.0016
762.254	0.0004
762.494	-0.0002
762.734	0.0005
762.974	-0.002
763.214	-0.0009
763.454	-0.0006
763.694	-0.0017
763.933	-0.0008
764.173	-0.0033
764.413	-0.0047
764.652	-0.0049
764.892	-0.004
765.131	-0.0036
765.371	-0.0023
765.61	-0.003
765.849	-0.0031
766.089	-0.0017
766.328	-0.0011
766.567	-0.0011
766.806	-0.0001
767.045	-0.0002
767.284	-0.0007
767.523	-0.001
767.762	-0.0013
768.001	-0.0016
768.239	-0.0014
768.478	-0.0011
768.717	-0.0002
768.955	-0.0007
769.194	-0.001
769.432	0.0015
769.671	0.0012
769.909	0.0015
770.148	0.0015
770.386	0.002
770.624	0.0026
770.862	0.0029
771.1	0.0031
771.338	0.0025
771.576	0.0021
771.814	0.0026
772.052	0.0029
772.29	0.0036
772.528	0.0043
772.765	0.0051
773.003	0.005
773.24	0.0054
773.478	0.0041
773.716	0.0042
773.953	0.0038
774.19	0.0039
774.428	0.0059
774.665	0.0053
774.902	0.0055
775.139	0.0057
775.376	0.0048
775.613	0.0039
775.85	0.003
776.087	0.0019
776.324	0.0016
776.561	0.0016
776.798	0.0008
777.034	0.001
777.271	0.0025
777.508	0.002
777.744	0.003
777.981	0.0035
778.217	0.0043
778.454	0.002
778.69	0.0016
778.926	0.001
779.162	0.0012
779.399	0.0012
779.635	0.0016
779.871	0.0013
780.107	0.0015
780.343	0.0005
780.579	0.0008
780.814	0.0011
781.05	0.001
781.286	-0.0002
781.522	0.0013
781.757	0.0012
781.993	0.0014
782.228	0.0009
782.464	0.002
782.699	0.0002
782.934	-0.0006
783.17	0.0003
783.405	0.0005
783.64	-0.0004
783.875	-0.0015
784.11	-0.0013
784.345	0.0001
784.58	0.0005
784.815	0.001
785.05	0.0003
785.285	-0.0014
785.52	-0.0017
785.754	-0.0019
785.989	-0.0028
786.223	-0.0037
786.458	-0.0036
786.692	-0.0025
786.927	-0.0017
787.161	-0.0008
787.396	-0.0013
787.63	-0.0016
787.864	-0.0024
788.098	-0.0033
788.332	-0.003
788.566	-0.0025
788.8	-0.0024
789.034	-0.0012
789.268	-0.001
789.502	-0.0008
789.736	-0.0009
789.969	0.0002
790.203	-0.0009
790.437	-0.0019
790.67	-0.0021
790.904	-0.0028
791.137	-0.0032
791.37	-0.0033
791.604	-0.0056
791.837	-0.0056
792.07	-0.0044
792.303	-0.0048
792.537	-0.0051
792.77	-0.0051
793.003	-0.0037
793.236	-0.0048
793.469	-0.0041
793.701	-0.0026
793.934	-0.0025
794.167	-0.0026
794.4	-0.0014
794.632	-0.0006
794.865	-0.0005
795.097	-0.0002
795.33	-0.0015
795.562	-0.0003
795.795	0.0005
796.027	-0
796.259	-0
796.491	-0.0005
796.724	-0.0012
796.956	0.0006
797.188	0.0005
797.42	0.0002
797.652	0.0003
797.883	0.0007
798.115	0.0016
798.347	0.0014
798.579	0.0038
798.81	0.0042
799.042	0.0038
799.274	0.0034
799.505	0.0034
799.737	0.0028
799.968	0.0019
800.199	0.0009
800.431	0.0015
800.662	0.0014
800.893	0.0016
801.124	0.0006
801.355	0.001
801.586	0.0014
801.817	0.0013
802.048	-0.001
802.279	-0.0009
802.51	-0.0002
802.741	0.001
802.971	0.0011
803.202	0.0009
803.433	0.0015
803.663	0.0007
803.894	0.0003
804.124	0.001
804.354	0.001
804.585	0.0014
804.815	0.0014
805.045	0.0017
805.275	0.0014
805.506	-0
805.736	-0.0627
805.966	-0.1853
806.196	0.0115
