Data from 03 0.5 mM K2Cr2O7 0.3 mM BQDS 1 M H2SO4 5 min_Absorbance_0210.txt Node
Date: Tue Dec 14 11:09:45 EST 2021
User: kwabilab-user
Spectrometer: HDX00518
Trigger mode: 0
Integration Time (sec): 5.000000E-2
Scans to average: 50
Nonlinearity correction enabled: false
Boxcar width: 0
Storing dark spectrum: false
XAxis mode: Wavelengths
Number of Pixels in Spectrum: 2068
>>>>>Begin Spectral Data<<<<<
195.27	-0.1005
195.642	-0.0025
196.014	-0.0924
196.386	0.0586
196.758	0.0042
197.129	-0.0327
197.501	-0.0071
197.872	0.0069
198.244	0.0449
198.615	0.0366
198.986	0.0419
199.357	0.0445
199.728	0.0405
200.099	0.0507
200.47	0.0272
200.841	0.0256
201.212	0.0512
201.582	0.0466
201.953	0.0435
202.323	0.0458
202.694	0.0331
203.064	0.0303
203.434	0.06
203.804	0.0253
204.174	0.0523
204.544	0.0409
204.914	0.0589
205.284	0.0454
205.653	0.0226
206.023	0.0328
206.393	0.03
206.762	0.0452
207.131	0.0399
207.501	0.0301
207.87	0.0624
208.239	0.0564
208.608	0.0358
208.977	0.0283
209.346	0.0404
209.715	0.0302
210.083	0.0213
210.452	0.044
210.82	0.0505
211.189	0.0241
211.557	0.061
211.925	0.04
212.294	0.042
212.662	0.0262
213.03	0.0422
213.398	0.076
213.766	0.056
214.133	0.0552
214.501	0.0636
214.869	0.0559
215.236	0.0608
215.604	0.0527
215.971	0.0579
216.338	0.0729
216.705	0.0856
217.072	0.0645
217.439	0.0563
217.806	0.0628
218.173	0.0693
218.54	0.0972
218.907	0.0934
219.273	0.0945
219.64	0.1104
220.006	0.1237
220.373	0.0985
220.739	0.1327
221.105	0.1464
221.471	0.14
221.837	0.1654
222.203	0.1953
222.569	0.189
222.935	0.2304
223.3	0.229
223.666	0.2748
224.031	0.2894
224.397	0.3022
224.762	0.3117
225.127	0.3616
225.493	0.368
225.858	0.3882
226.223	0.4107
226.588	0.4298
226.952	0.4411
227.317	0.479
227.682	0.4775
228.046	0.5064
228.411	0.5284
228.775	0.5397
229.14	0.5462
229.504	0.5568
229.868	0.5901
230.232	0.5747
230.596	0.5865
230.96	0.6051
231.324	0.6128
231.688	0.6246
232.052	0.639
232.415	0.6461
232.779	0.6484
233.142	0.6507
233.505	0.6564
233.869	0.6764
234.232	0.6695
234.595	0.6609
234.958	0.6502
235.321	0.6607
235.684	0.6561
236.047	0.6544
236.409	0.6525
236.772	0.6618
237.134	0.6689
237.497	0.6499
237.859	0.6581
238.222	0.6531
238.584	0.6552
238.946	0.6461
239.308	0.642
239.67	0.6391
240.032	0.6344
240.393	0.6392
240.755	0.6387
241.117	0.6287
241.478	0.6409
241.84	0.6333
242.201	0.6203
242.562	0.6173
242.924	0.6188
243.285	0.6195
243.646	0.6193
244.007	0.6118
244.368	0.6008
244.728	0.6178
245.089	0.6132
245.45	0.6082
245.81	0.5976
246.171	0.6015
246.531	0.5965
246.891	0.5941
247.252	0.5966
247.612	0.5946
247.972	0.5951
248.332	0.5904
248.692	0.5784
249.051	0.5831
249.411	0.592
249.771	0.5799
250.13	0.5807
250.49	0.5797
250.849	0.5834
251.208	0.5778
251.568	0.5765
251.927	0.5744
252.286	0.5775
252.645	0.5772
253.004	0.5809
253.363	0.5729
253.721	0.5758
254.08	0.5696
254.439	0.565
254.797	0.5709
255.155	0.5639
255.514	0.5653
255.872	0.5664
256.23	0.5672
256.588	0.5726
256.946	0.5663
257.304	0.5561
257.662	0.5688
258.02	0.5613
258.377	0.5536
258.735	0.5592
259.093	0.5536
259.45	0.5523
259.807	0.554
260.165	0.5433
260.522	0.5514
260.879	0.5476
261.236	0.5428
261.593	0.5446
261.95	0.5433
262.306	0.535
262.663	0.5343
263.02	0.5373
263.376	0.5319
263.733	0.5308
264.089	0.5261
264.445	0.5289
264.802	0.5216
265.158	0.5213
265.514	0.5154
265.87	0.5165
266.226	0.5104
266.581	0.5141
266.937	0.5117
267.293	0.5071
267.648	0.4999
268.004	0.5028
268.359	0.5006
268.714	0.4929
269.07	0.495
269.425	0.4859
269.78	0.484
270.135	0.4846
270.49	0.4832
270.844	0.479
271.199	0.4761
271.554	0.4712
271.908	0.4691
272.263	0.4667
272.617	0.4616
272.972	0.4602
273.326	0.4591
273.68	0.451
274.034	0.4473
274.388	0.4515
274.742	0.4418
275.096	0.44
275.45	0.436
275.803	0.4344
276.157	0.4321
276.51	0.4284
276.864	0.4223
277.217	0.418
277.571	0.4187
277.924	0.4156
278.277	0.407
278.63	0.4011
278.983	0.4028
279.336	0.3951
279.688	0.3952
280.041	0.3895
280.394	0.3861
280.746	0.3826
281.099	0.377
281.451	0.3745
281.803	0.3708
282.156	0.3642
282.508	0.3637
282.86	0.36
283.212	0.3522
283.564	0.3509
283.916	0.3479
284.267	0.3435
284.619	0.3403
284.971	0.3362
285.322	0.3332
285.673	0.3273
286.025	0.323
286.376	0.3198
286.727	0.3154
287.078	0.3138
287.429	0.3077
287.78	0.3064
288.131	0.2996
288.482	0.2964
288.833	0.2911
289.183	0.2872
289.534	0.2856
289.884	0.2815
290.235	0.2768
290.585	0.2748
290.935	0.2695
291.285	0.2658
291.635	0.2631
291.985	0.2591
292.335	0.2546
292.685	0.253
293.035	0.2493
293.384	0.2443
293.734	0.2408
294.083	0.237
294.433	0.2334
294.782	0.2297
295.131	0.2259
295.48	0.222
295.829	0.2201
296.179	0.217
296.527	0.2146
296.876	0.2107
297.225	0.2073
297.574	0.2041
297.922	0.2016
298.271	0.1978
298.619	0.1936
298.968	0.1915
299.316	0.1875
299.664	0.1853
300.012	0.1835
300.36	0.1803
300.708	0.1776
301.056	0.1749
301.404	0.172
301.752	0.1719
302.099	0.1683
302.447	0.1661
302.794	0.1641
303.142	0.1624
303.489	0.1593
303.836	0.1578
304.183	0.1556
304.531	0.1541
304.878	0.1531
305.224	0.1512
305.571	0.1485
305.918	0.1477
306.265	0.1465
306.611	0.1441
306.958	0.1443
307.304	0.1419
307.651	0.1411
307.997	0.1398
308.343	0.1396
308.689	0.1394
309.035	0.1375
309.381	0.1376
309.727	0.1367
310.073	0.1354
310.419	0.1355
310.764	0.1341
311.11	0.1341
311.455	0.1333
311.801	0.1333
312.146	0.1323
312.491	0.1332
312.837	0.1324
313.182	0.132
313.527	0.1328
313.872	0.1323
314.216	0.1324
314.561	0.1329
314.906	0.1324
315.251	0.1329
315.595	0.1335
315.94	0.1336
316.284	0.1345
316.628	0.1348
316.972	0.1361
317.317	0.1359
317.661	0.1367
318.005	0.1374
318.348	0.1386
318.692	0.1386
319.036	0.1393
319.38	0.14
319.723	0.1413
320.067	0.1423
320.41	0.1438
320.754	0.145
321.097	0.1453
321.44	0.1467
321.783	0.1476
322.126	0.1497
322.469	0.1493
322.812	0.1509
323.155	0.1528
323.498	0.1546
323.84	0.1553
324.183	0.1568
324.525	0.1587
324.868	0.1602
325.21	0.1607
325.552	0.1631
325.894	0.1636
326.236	0.1654
326.578	0.1664
326.92	0.169
327.262	0.1701
327.604	0.1713
327.946	0.1727
328.287	0.1746
328.629	0.1771
328.97	0.1784
329.312	0.1797
329.653	0.1812
329.994	0.1827
330.335	0.184
330.676	0.187
331.017	0.1883
331.358	0.19
331.699	0.1918
332.04	0.1932
332.38	0.1941
332.721	0.1964
333.061	0.199
333.402	0.2001
333.742	0.2023
334.083	0.2038
334.423	0.2044
334.763	0.2056
335.103	0.2075
335.443	0.2082
335.783	0.2103
336.123	0.2115
336.462	0.2132
336.802	0.2147
337.141	0.2154
337.481	0.2169
337.82	0.2181
338.16	0.2195
338.499	0.2217
338.838	0.2225
339.177	0.2247
339.516	0.2256
339.855	0.2267
340.194	0.228
340.533	0.2291
340.872	0.2303
341.21	0.2316
341.549	0.2316
341.887	0.2334
342.226	0.2346
342.564	0.2343
342.902	0.2355
343.24	0.2358
343.578	0.2354
343.916	0.2369
344.254	0.2378
344.592	0.2377
344.93	0.2383
345.268	0.2386
345.605	0.2388
345.943	0.2392
346.28	0.2402
346.618	0.2403
346.955	0.2404
347.292	0.2412
347.629	0.2409
347.966	0.2413
348.303	0.2411
348.64	0.2415
348.977	0.2414
349.314	0.2426
349.65	0.2418
349.987	0.242
350.324	0.2431
350.66	0.2419
350.996	0.2407
351.333	0.241
351.669	0.2413
352.005	0.2403
352.341	0.2394
352.677	0.239
353.013	0.2384
353.349	0.2373
353.685	0.2365
354.02	0.2347
354.356	0.2325
354.691	0.2324
355.027	0.2321
355.362	0.2315
355.697	0.2308
356.033	0.23
356.368	0.2292
356.703	0.2277
357.038	0.2273
357.373	0.2252
357.707	0.2244
358.042	0.2243
358.377	0.224
358.711	0.2221
359.046	0.2214
359.38	0.2214
359.715	0.22
360.049	0.2192
360.383	0.2178
360.717	0.2164
361.051	0.2158
361.385	0.2142
361.719	0.2114
362.053	0.2099
362.387	0.2081
362.72	0.2064
363.054	0.2052
363.387	0.203
363.721	0.2012
364.054	0.1987
364.387	0.198
364.721	0.1962
365.054	0.1948
365.387	0.1934
365.72	0.191
366.053	0.1899
366.385	0.1879
366.718	0.1858
367.051	0.1854
367.383	0.1833
367.716	0.1827
368.048	0.1815
368.381	0.1791
368.713	0.1783
369.045	0.1773
369.377	0.176
369.709	0.1742
370.041	0.1737
370.373	0.1717
370.705	0.1697
371.037	0.1684
371.368	0.1664
371.7	0.166
372.031	0.1634
372.363	0.1619
372.694	0.1592
373.025	0.1567
373.356	0.1552
373.688	0.1541
374.019	0.1513
374.35	0.1494
374.68	0.148
375.011	0.146
375.342	0.1432
375.673	0.1421
376.003	0.1399
376.334	0.1387
376.664	0.136
376.995	0.135
377.325	0.1327
377.655	0.132
377.985	0.1305
378.315	0.1289
378.645	0.1274
378.975	0.1261
379.305	0.1251
379.635	0.1245
379.964	0.1232
380.294	0.1208
380.623	0.1208
380.953	0.1193
381.282	0.1177
381.611	0.1155
381.941	0.1142
382.27	0.113
382.599	0.1118
382.928	0.1103
383.257	0.1093
383.585	0.1074
383.914	0.1064
384.243	0.1042
384.571	0.1027
384.9	0.1002
385.228	0.0991
385.557	0.0975
385.885	0.0947
386.213	0.0946
386.541	0.0932
386.869	0.0913
387.197	0.0894
387.525	0.0872
387.853	0.0863
388.181	0.0853
388.508	0.0831
388.836	0.0822
389.164	0.0804
389.491	0.0797
389.818	0.0781
390.146	0.0777
390.473	0.0761
390.8	0.0744
391.127	0.0732
391.454	0.0727
391.781	0.0714
392.108	0.07
392.435	0.069
392.761	0.0677
393.088	0.0675
393.415	0.0667
393.741	0.0661
394.067	0.0651
394.394	0.0644
394.72	0.0629
395.046	0.0627
395.372	0.0618
395.698	0.0613
396.024	0.0599
396.35	0.0596
396.676	0.0582
397.001	0.057
397.327	0.0556
397.653	0.0554
397.978	0.0542
398.303	0.0532
398.629	0.0518
398.954	0.0515
399.279	0.0504
399.604	0.0501
399.929	0.0497
400.254	0.0494
400.579	0.0487
400.904	0.0476
401.229	0.0472
401.553	0.0469
401.878	0.0465
402.202	0.0454
402.527	0.0449
402.851	0.0448
403.175	0.0433
403.5	0.0437
403.824	0.0436
404.148	0.0428
404.472	0.0426
404.796	0.0421
405.119	0.0416
405.443	0.0414
405.767	0.0405
406.09	0.0405
406.414	0.0402
406.737	0.04
407.061	0.0396
407.384	0.0398
407.707	0.0397
408.03	0.0388
408.353	0.0397
408.676	0.0389
408.999	0.0386
409.322	0.0395
409.645	0.0387
409.968	0.0387
410.29	0.0387
410.613	0.0387
410.935	0.0379
411.258	0.0383
411.58	0.038
411.902	0.038
412.224	0.0374
412.546	0.0374
412.868	0.0371
413.19	0.0377
413.512	0.0375
413.834	0.0365
414.156	0.0376
414.477	0.0373
414.799	0.0371
415.121	0.0374
415.442	0.0369
415.763	0.0375
416.085	0.0373
416.406	0.0375
416.727	0.0376
417.048	0.0373
417.369	0.037
417.69	0.0366
418.011	0.0365
418.331	0.0371
418.652	0.0376
418.973	0.037
419.293	0.0374
419.614	0.0376
419.934	0.0381
420.254	0.0372
420.574	0.0371
420.895	0.0374
421.215	0.0373
421.535	0.0371
421.855	0.0368
422.174	0.0367
422.494	0.0362
422.814	0.0368
423.134	0.0368
423.453	0.0372
423.773	0.0368
424.092	0.0378
424.411	0.0367
424.731	0.0373
425.05	0.0367
425.369	0.037
425.688	0.037
426.007	0.0372
426.326	0.0371
426.644	0.0371
426.963	0.0379
427.282	0.0367
427.6	0.0374
427.919	0.0366
428.237	0.0375
428.556	0.0375
428.874	0.0376
429.192	0.0378
429.51	0.0377
429.828	0.0375
430.146	0.0382
430.464	0.0368
430.782	0.0367
431.1	0.0374
431.418	0.0368
431.735	0.0373
432.053	0.0374
432.37	0.0376
432.688	0.0374
433.005	0.0372
433.322	0.0378
433.639	0.0378
433.957	0.0386
434.274	0.038
434.591	0.0375
434.907	0.037
435.224	0.0377
435.541	0.0376
435.858	0.038
436.174	0.0384
436.491	0.0379
436.807	0.0363
437.124	0.0377
437.44	0.0379
437.756	0.0377
438.072	0.0378
438.388	0.0379
438.704	0.0375
439.02	0.0373
439.336	0.037
439.652	0.0369
439.968	0.0366
440.283	0.0361
440.599	0.0365
440.914	0.0373
441.23	0.0378
441.545	0.0369
441.86	0.0367
442.175	0.0365
442.491	0.0368
442.806	0.0355
443.121	0.0365
443.435	0.0364
443.75	0.0363
444.065	0.0369
444.38	0.0369
444.694	0.0368
445.009	0.0367
445.323	0.0363
445.638	0.0356
445.952	0.0367
446.266	0.0368
446.58	0.036
446.894	0.0365
447.208	0.0363
447.522	0.0355
447.836	0.0358
448.15	0.035
448.464	0.0354
448.777	0.0357
449.091	0.035
449.404	0.0345
449.718	0.0348
450.031	0.0349
450.345	0.0346
450.658	0.0353
450.971	0.0345
451.284	0.0347
451.597	0.0336
451.91	0.0338
452.223	0.0342
452.535	0.0334
452.848	0.0337
453.161	0.0329
453.473	0.0341
453.786	0.0327
454.098	0.0334
454.411	0.0339
454.723	0.0331
455.035	0.0317
455.347	0.032
455.659	0.0324
455.971	0.0327
456.283	0.0322
456.595	0.0321
456.907	0.0322
457.218	0.0317
457.53	0.0311
457.841	0.0315
458.153	0.0318
458.464	0.0319
458.776	0.031
459.087	0.0311
459.398	0.0311
459.709	0.0306
460.02	0.0313
460.331	0.03
460.642	0.0301
460.953	0.0298
461.263	0.0288
461.574	0.0296
461.885	0.0287
462.195	0.0287
462.506	0.0293
462.816	0.0287
463.126	0.0293
463.437	0.029
463.747	0.0285
464.057	0.0277
464.367	0.0279
464.677	0.027
464.987	0.0274
465.296	0.027
465.606	0.026
465.916	0.0268
466.225	0.0268
466.535	0.0272
466.844	0.0268
467.154	0.0271
467.463	0.0264
467.772	0.0257
468.081	0.0259
468.39	0.0257
468.699	0.0258
469.008	0.0246
469.317	0.0244
469.626	0.0241
469.935	0.0238
470.243	0.024
470.552	0.0237
470.86	0.0242
471.169	0.0239
471.477	0.0243
471.785	0.0239
472.093	0.0231
472.402	0.0224
472.71	0.0236
473.018	0.022
473.326	0.0222
473.633	0.0225
473.941	0.0226
474.249	0.0222
474.556	0.0226
474.864	0.0222
475.171	0.0212
475.479	0.0209
475.786	0.0208
476.094	0.0206
476.401	0.0202
476.708	0.0207
477.015	0.0206
477.322	0.0201
477.629	0.019
477.936	0.0198
478.242	0.0189
478.549	0.0188
478.856	0.0193
479.162	0.0191
479.469	0.0193
479.775	0.019
480.081	0.0181
480.388	0.0185
480.694	0.0179
481	0.0183
481.306	0.0178
481.612	0.0174
481.918	0.0173
482.224	0.017
482.53	0.0165
482.835	0.0174
483.141	0.0164
483.446	0.0164
483.752	0.0162
484.057	0.0164
484.363	0.0148
484.668	0.0156
484.973	0.0137
485.278	0.0148
485.583	0.0146
485.888	0.0145
486.193	0.0134
486.498	0.0138
486.803	0.0141
487.107	0.0133
487.412	0.0132
487.717	0.0128
488.021	0.0129
488.325	0.0147
488.63	0.013
488.934	0.0135
489.238	0.0129
489.542	0.0113
489.846	0.0128
490.15	0.013
490.454	0.0126
490.758	0.0121
491.062	0.0124
491.366	0.0114
491.669	0.0116
491.973	0.0123
492.276	0.0107
492.58	0.0113
492.883	0.011
493.186	0.0108
493.489	0.011
493.792	0.0092
494.096	0.0099
494.399	0.01
494.701	0.0098
495.004	0.0087
495.307	0.0099
495.61	0.0085
495.912	0.0096
496.215	0.0073
496.517	0.0078
496.82	0.0082
497.122	0.0077
497.424	0.0084
497.727	0.0082
498.029	0.0072
498.331	0.0086
498.633	0.0083
498.935	0.0076
499.237	0.0075
499.538	0.0069
499.84	0.0068
500.142	0.0075
500.443	0.0063
500.745	0.0067
501.046	0.0059
501.348	0.0058
501.649	0.0058
501.95	0.0057
502.251	0.0052
502.552	0.0056
502.853	0.0049
503.154	0.005
503.455	0.0048
503.756	0.0047
504.057	0.0057
504.357	0.0048
504.658	0.0055
504.958	0.0068
505.259	0.0049
505.559	0.0047
505.859	0.0044
506.16	0.0037
506.46	0.0045
506.76	0.0038
507.06	0.0048
507.36	0.0038
507.66	0.0043
507.96	0.0051
508.259	0.0026
508.559	0.004
508.859	0.0041
509.158	0.0038
509.457	0.003
509.757	0.0029
510.056	0.0036
510.355	0.003
510.655	0.0025
510.954	0.0023
511.253	0.0021
511.552	0.0026
511.851	0.0034
512.149	0.0012
512.448	0.0025
512.747	0.0025
513.045	0.0017
513.344	0.0005
513.642	0.0021
513.941	0.0014
514.239	0.0015
514.537	0.0015
514.836	0.0013
515.134	0.0002
515.432	0.0029
515.73	0.0012
516.028	0.0018
516.326	0.0022
516.623	0.0008
516.921	0.0002
517.219	0.001
517.516	0.0019
517.814	0.0008
518.111	0.0009
518.409	-0.0008
518.706	0.0001
519.003	0.0008
519.3	0.0004
519.597	0.0005
519.894	0.0009
520.191	0.0002
520.488	0.0011
520.785	-0.0001
521.082	0.0002
521.378	-0.0005
521.675	-0.0011
521.971	-0.0004
522.268	0
522.564	-0.0002
522.861	0.0016
523.157	0.001
523.453	0.001
523.749	0.0004
524.045	0.0006
524.341	0.0003
524.637	-0.0002
524.933	-0.0003
525.229	0
525.524	-0.0012
525.82	-0.0008
526.115	-0.0013
526.411	0.0002
526.706	0.0004
527.002	0.0012
527.297	-0.0006
527.592	-0.0003
527.887	0.0021
528.182	0.0008
528.477	0.0004
528.772	0.0001
529.067	0.0006
529.362	0.0002
529.657	-0.0006
529.951	0.0001
530.246	-0.0011
530.54	-0.0004
530.835	-0
531.129	-0.0002
531.423	-0.0004
531.718	0.0001
532.012	-0.0005
532.306	-0.0007
532.6	-0.0012
532.894	-0.0001
533.188	0.0002
533.482	-0.0002
533.775	-0.0003
534.069	-0.0009
534.363	-0.0011
534.656	-0.0019
534.95	-0.0005
535.243	-0.001
535.536	0.0002
535.83	-0.0014
536.123	-0.0007
536.416	-0.0007
536.709	-0.0006
537.002	-0.0024
537.295	-0.0008
537.588	-0.0012
537.881	-0.0019
538.173	-0.0013
538.466	-0.0017
538.759	-0.0008
539.051	-0.0005
539.344	-0.0013
539.636	-0.0015
539.928	-0.0006
540.22	0.0001
540.513	-0.0013
540.805	-0.0002
541.097	-0.0022
541.389	-0.0014
541.681	-0.0007
541.972	0.0008
542.264	0.0011
542.556	0.0003
542.847	0.0008
543.139	0.0005
543.431	0.0005
543.722	-0
544.013	0.0003
544.305	-0.0005
544.596	-0.0009
544.887	0.0001
545.178	-0.0002
545.469	-0.0013
545.76	-0.001
546.051	0.0008
546.342	-0.0007
546.632	-0.0013
546.923	-0.001
547.214	-0.0022
547.504	-0.0011
547.795	-0.0019
548.085	-0.0026
548.375	-0.0018
548.666	-0.0011
548.956	-0.0006
549.246	-0.0013
549.536	0.0006
549.826	0.0003
550.116	0.0002
550.406	-0.0007
550.695	-0.0022
550.985	-0.0006
551.275	-0.0002
551.564	-0.0009
551.854	-0.0001
552.143	-0.0017
552.433	-0.0026
552.722	-0.0033
553.011	-0.0006
553.3	-0.0009
553.589	-0.0001
553.879	-0.0002
554.167	0.0001
554.456	0.0005
554.745	0.0003
555.034	-0.0014
555.323	-0.0003
555.611	-0.0008
555.9	-0.0003
556.188	-0.001
556.477	-0.0001
556.765	-0.0013
557.053	-0.0002
557.342	0.0006
557.63	0.0002
557.918	0.0002
558.206	0.0015
558.494	0.0007
558.782	0.0013
559.069	0.0016
559.357	0.0017
559.645	0.0003
559.932	0.0004
560.22	-0.0007
560.507	-0.001
560.795	-0.0012
561.082	-0.0014
561.37	0.0005
561.657	-0.0003
561.944	-0.0005
562.231	-0.0006
562.518	-0.0003
562.805	-0.0002
563.092	-0.0001
563.379	0.0005
563.665	0.0005
563.952	0.0006
564.239	0.0008
564.525	0.0012
564.811	0.0026
565.098	0.0004
565.384	0.0003
565.67	0.0016
565.957	0.0009
566.243	0.0028
566.529	0.0009
566.815	0.0003
567.101	0.002
567.387	0.0005
567.672	0.0008
567.958	0.0018
568.244	0.0005
568.529	0.0005
568.815	-0.0006
569.1	-0.0008
569.386	-0.001
569.671	0.0002
569.956	-0
570.242	-0.0006
570.527	-0.0001
570.812	0
571.097	0
571.382	-0.0007
571.666	0.0007
571.951	-0.0008
572.236	-0.0009
572.521	0.0007
572.805	0
573.09	-0
573.374	-0.0021
573.659	0.0004
573.943	-0.001
574.227	-0.0008
574.511	-0.0017
574.795	-0.0002
575.079	-0.0008
575.363	-0.0011
575.647	-0.0005
575.931	0.0004
576.215	-0.0013
576.499	-0.0016
576.782	-0.0008
577.066	-0.0006
577.349	-0.0003
577.633	-0.002
577.916	-0.0021
578.2	-0.0012
578.483	0.0002
578.766	-0.0006
579.049	0.0002
579.332	0.0006
579.615	0.0004
579.898	-0.0005
580.181	0.0008
580.464	0.001
580.746	0
581.029	-0.0007
581.312	-0.002
581.594	-0.0026
581.877	-0.0016
582.159	-0.0013
582.441	-0.0013
582.724	-0.0004
583.006	0.0005
583.288	-0
583.57	0.0006
583.852	0.0006
584.134	-0.0004
584.416	-0.0015
584.697	-0.0006
584.979	-0.0026
585.261	-0.0029
585.542	-0.0021
585.824	-0.0016
586.105	-0.0015
586.387	-0.0008
586.668	-0.0003
586.949	-0.0006
587.231	-0.0001
587.512	0
587.793	-0
588.074	-0.0011
588.355	0.0001
588.636	-0.0009
588.916	-0.0009
589.197	0.0008
589.478	-0.0003
589.758	-0.0005
590.039	0.0001
590.319	0.001
590.6	0.0017
590.88	0.0013
591.16	0.001
591.441	0.0011
591.721	0.0001
592.001	-0.0003
592.281	0.0002
592.561	-0.0007
592.841	-0.002
593.12	-0.0032
593.4	-0.0016
593.68	-0.0025
593.959	-0.0013
594.239	-0.001
594.518	0.0003
594.798	0.0003
595.077	-0.0016
595.356	-0.0005
595.636	-0.0012
595.915	-0
596.194	0.001
596.473	0.0006
596.752	0.0012
597.031	0.0003
597.31	-0.0004
597.588	-0.0009
597.867	-0.0009
598.146	-0.0004
598.424	0.0003
598.703	-0.0005
598.981	-0.0025
599.259	-0.0015
599.538	0.0002
599.816	0.0003
600.094	-0.0016
600.372	-0.0019
600.65	-0.0013
600.928	-0.001
601.206	-0.0005
601.484	0.0008
601.762	0.0007
602.04	0.0007
602.317	0.0005
602.595	0.0008
602.872	0.0012
603.15	0.0013
603.427	-0.0015
603.704	-0.0015
603.982	-0.0007
604.259	-0.0005
604.536	0.0004
604.813	0.0009
605.09	-0.0003
605.367	-0.0013
605.644	-0.0014
605.921	-0.0007
606.197	-0.0014
606.474	0
606.751	-0.0013
607.027	-0.001
607.304	-0.0014
607.58	-0.0009
607.856	-0.0016
608.133	-0.001
608.409	0.0001
608.685	-0.0006
608.961	-0.0003
609.237	0.0003
609.513	0.0008
609.789	-0.0006
610.065	-0.0005
610.341	-0.0003
610.616	0.0015
610.892	0.0016
611.167	0.0012
611.443	0.0013
611.718	0.0012
611.994	0.0013
612.269	0.0014
612.544	0.0013
612.819	0.0003
613.095	0.0002
613.37	0.0018
613.645	-0.0001
613.919	0.001
614.194	0.0009
614.469	0.0013
614.744	-0.0003
615.019	-0.001
615.293	0.0001
615.568	-0.0006
615.842	-0.0004
616.116	0.0024
616.391	0.0027
616.665	0.0009
616.939	0.0011
617.213	0.0017
617.488	0.0021
617.762	0.0009
618.035	0.0003
618.309	-0.0009
618.583	0.0025
618.857	0.0029
619.131	0.0028
619.404	0.0027
619.678	0.0024
619.951	0.0003
620.225	0.0005
620.498	0.002
620.771	0.0011
621.045	0.0017
621.318	0.0014
621.591	-0.0001
621.864	-0.0005
622.137	-0.0011
622.41	-0.0008
622.683	0.0011
622.956	0.0016
623.228	0.0011
623.501	0.002
623.774	0.0024
624.046	0.0024
624.319	0.0006
624.591	0.0005
624.863	0.0004
625.136	0.0027
625.408	0.0031
625.68	0.0015
625.952	0.0023
626.224	0.0032
626.496	0.0033
626.768	0.0029
627.04	0.0027
627.311	0.0026
627.583	0.0021
627.855	0.0037
628.126	0.0026
628.398	0.0043
628.669	0.0052
628.941	0.0039
629.212	0.0034
629.483	0.003
629.755	0.0029
630.026	0.0037
630.297	0.0034
630.568	0.0035
630.839	0.004
631.11	0.0044
631.38	0.0043
631.651	0.0044
631.922	0.0041
632.192	0.0037
632.463	0.004
632.733	0.0031
633.004	0.0036
633.274	0.0041
633.545	0.0049
633.815	0.004
634.085	0.0028
634.355	0.0018
634.625	0.0013
634.895	0.0024
635.165	0.0023
635.435	0.0012
635.705	0.0022
635.974	0.0014
636.244	0.0028
636.514	0.0032
636.783	0.0017
637.053	0.0023
637.322	0.0031
637.591	0.0031
637.861	0.0018
638.13	0.0029
638.399	0.0018
638.668	0.0024
638.937	0.0016
639.206	0.002
639.475	0.0029
639.744	0.0017
640.013	0.0029
640.281	0.0029
640.55	0.003
640.819	0.0028
641.087	0.0046
641.356	0.0045
641.624	0.0048
641.892	0.0062
642.161	0.0047
642.429	0.0042
642.697	0.0038
642.965	0.0032
643.233	0.0032
643.501	0.0015
643.769	0.0034
644.037	0.0032
644.305	0.0029
644.572	0.0028
644.84	0.0028
645.108	0.001
645.375	0.0013
645.643	0.0011
645.91	0.0036
646.177	0.0033
646.445	0.0033
646.712	0.0048
646.979	0.0048
647.246	0.0062
647.513	0.0058
647.78	0.0047
648.047	0.0044
648.314	0.0016
648.58	0.0029
648.847	0.0028
649.114	0.0039
649.38	0.0028
649.647	0.0025
649.913	0.0026
650.18	0.0031
650.446	0.0041
650.712	0.0024
650.978	0.0032
651.245	0.0026
651.511	0.0025
651.777	0.002
652.043	0.0022
652.309	0.0027
652.574	0.0044
652.84	0.0036
653.106	0.0027
653.371	0.0041
653.637	0.0046
653.903	0.0042
654.168	0.0063
654.433	0.0064
654.699	0.0067
654.964	0.0074
655.229	0.0051
655.494	0.0016
655.759	-0.0065
656.024	-0.0002
656.289	-0
656.554	0.002
656.819	0.0024
657.084	0.0024
657.349	0.0024
657.613	0.0032
657.878	0.0025
658.142	0.0015
658.407	0.0025
658.671	0.0023
658.936	0.0034
659.2	0.0048
659.464	0.0034
659.728	0.003
659.992	0.0021
660.256	0.0026
660.52	0.0027
660.784	0.0014
661.048	0.0026
661.312	0.0027
661.575	0.0031
661.839	0.0033
662.103	0.0027
662.366	0.0029
662.63	0.002
662.893	0.0017
663.156	0.0021
663.42	0.0015
663.683	0.0009
663.946	0.0004
664.209	0.0012
664.472	0.0005
664.735	0.0014
664.998	0.0025
665.261	0.0017
665.524	0.0016
665.786	0.0022
666.049	0.0018
666.312	0.0022
666.574	0.0019
666.837	0.0029
667.099	0.0033
667.361	0.0032
667.624	0.0029
667.886	0.0012
668.148	0.0026
668.41	0.002
668.672	0.0018
668.934	0.0029
669.196	0.0026
669.458	0.0033
669.72	0.0036
669.982	0.0035
670.243	0.0033
670.505	0.0025
670.766	0.0032
671.028	0.0028
671.289	0.0019
671.551	0.0011
671.812	-0.0011
672.073	0.0016
672.334	0.0016
672.596	0.0002
672.857	0.0003
673.118	0.002
673.379	0.0006
673.639	0.0015
673.9	0.0011
674.161	0.002
674.422	0.0008
674.682	0.0013
674.943	0.0021
675.203	0.0026
675.464	0.0009
675.724	-0.0002
675.985	0.0001
676.245	0.0009
676.505	0.0006
676.765	0.0004
677.025	0.0016
677.285	0.0013
677.545	0.0023
677.805	0.0016
678.065	0.0016
678.325	0.0029
678.585	0.0024
678.844	0.0002
679.104	0.0005
679.363	0
679.623	0.0006
679.882	0.0007
680.142	0.002
680.401	0.0018
680.66	0.0034
680.919	0.0047
681.178	0.004
681.437	0.0037
681.696	0.0011
681.955	0.0026
682.214	0.0023
682.473	0.0016
682.732	0.002
682.99	0.002
683.249	0.0032
683.508	0.0018
683.766	0.0006
684.024	0.0015
684.283	0.0024
684.541	0.001
684.799	0.0025
685.058	0.0011
685.316	-0.0002
685.574	-0.001
685.832	0.0002
686.09	0.0003
686.348	-0.0004
686.606	-0.0004
686.863	0.0013
687.121	0.0021
687.379	0.0027
687.636	0.0015
687.894	0.0037
688.151	0.0038
688.409	0.0029
688.666	0.0023
688.923	0.0017
689.181	0.0018
689.438	0.0018
689.695	0.0013
689.952	-0.0003
690.209	0.0019
690.466	0.0013
690.723	0.0025
690.979	0.0018
691.236	0.0005
691.493	0.0013
691.75	0.0021
692.006	0.0022
692.263	0.002
692.519	0.0012
692.775	0.0009
693.032	0.0019
693.288	0.0014
693.544	0.0015
693.8	0.0021
694.056	0.0021
694.313	0.0021
694.568	0.002
694.824	0.0012
695.08	0.0016
695.336	-0.0009
695.592	-0.0014
695.847	0.0015
696.103	0.0019
696.359	0.0022
696.614	0.0018
696.869	0.0003
697.125	-0.0038
697.38	-0.0009
697.635	-0.0004
697.891	0.0011
698.146	0.0023
698.401	0.0008
698.656	0.0011
698.911	0.0028
699.166	0.0024
699.42	0.0037
699.675	0.0034
699.93	0.0039
700.185	0.0026
700.439	0.004
700.694	0.0035
700.948	0.0027
701.203	0.0015
701.457	0.0013
701.711	0.0014
701.965	0.0003
702.22	-0.0004
702.474	-0.0009
702.728	-0.0011
702.982	-0.0008
703.236	0.0011
703.49	0.0019
703.743	0.0018
703.997	0.0022
704.251	0.0017
704.504	0.0015
704.758	0.001
705.012	0.0026
705.265	0.0031
705.518	0.0045
705.772	0.0035
706.025	0.0038
706.278	0.0029
706.531	0.0012
706.785	0.0003
707.038	0
707.291	0.0013
707.543	0.0004
707.796	0.0004
708.049	-0.0007
708.302	-0.0018
708.555	-0.0025
708.807	-0.0015
709.06	-0.0028
709.312	-0.002
709.565	-0.002
709.817	-0.0027
710.069	-0.0012
710.322	-0.0014
710.574	-0.0031
710.826	-0.0028
711.078	-0.0019
711.33	-0.0009
711.582	-0.0019
711.834	-0.002
712.086	-0.001
712.338	-0.0018
712.59	-0.0006
712.841	-0.0032
713.093	-0.0014
713.344	-0.002
713.596	-0.0023
713.847	-0.0004
714.099	-0.0004
714.35	-0.0009
714.601	-0.0011
714.853	0
715.104	0.0005
715.355	-0.0006
715.606	0.0006
715.857	0.0007
716.108	0.0006
716.359	0.0013
716.609	-0.0002
716.86	0.0007
717.111	0.0005
717.361	0.0009
717.612	0.0019
717.863	0.002
718.113	0.0031
718.363	0.0011
718.614	0.0037
718.864	0.0045
719.114	0.0035
719.364	0.0032
719.614	0.0034
719.865	0.0047
720.114	0.0052
720.364	0.0047
720.614	0.0043
720.864	0.0039
721.114	0.0028
721.364	0.0029
721.613	0.0014
721.863	0.001
722.112	0.0011
722.362	0
722.611	0.0008
722.86	0.0014
723.11	0.0015
723.359	0.0008
723.608	0.0006
723.857	0.0006
724.106	0.0018
724.355	0.0024
724.604	0.0033
724.853	0.002
725.102	0.0003
725.351	0.0007
725.599	0.0003
725.848	0.0008
726.097	0.0024
726.345	0.0017
726.594	0.0009
726.842	0.0018
727.09	0.0008
727.339	-0.0014
727.587	-0.0006
727.835	-0.0007
728.083	0.0007
728.331	-0.0006
728.579	0.0008
728.827	0.0014
729.075	0.002
729.323	0.0012
729.571	0.0014
729.818	0.0012
730.066	0.0007
730.314	0.0013
730.561	0.0029
730.809	0.0013
731.056	0.0001
731.303	0.0022
731.551	0.0018
731.798	0.0012
732.045	0.0017
732.292	0.004
732.539	0.0029
732.786	0.0021
733.033	0.0015
733.28	0.003
733.527	0.0027
733.774	0.0014
734.021	-0.0003
734.267	-0.0003
734.514	-0.0013
734.76	-0.0007
735.007	0.0008
735.253	0.0002
735.5	-0.0006
735.746	-0.0009
735.992	0.0006
736.238	0.0016
736.485	0.0025
736.731	0.0037
736.977	0.0013
737.223	0.0027
737.469	0.0025
737.715	0.0038
737.96	0.0038
738.206	0.0021
738.452	0.0032
738.697	0.002
738.943	0.0015
739.189	-0.0003
739.434	0.0001
739.679	0.001
739.925	0.0018
740.17	0.0012
740.415	0.0012
740.66	-0.0002
740.906	-0.0006
741.151	-0
741.396	0.0001
741.641	-0.0003
741.886	-0.0004
742.13	0.0013
742.375	0.0015
742.62	0.0006
742.865	0
743.109	0.0025
743.354	0.0032
743.598	0.0046
743.843	0.004
744.087	0.0046
744.331	0.004
744.576	0.0047
744.82	0.0057
745.064	0.0061
745.308	0.0078
745.552	0.0063
745.796	0.0053
746.04	0.0056
746.284	0.0049
746.528	0.0065
746.771	0.0069
747.015	0.0068
747.259	0.0051
747.502	0.0037
747.746	0.0041
747.989	0.0049
748.233	0.0054
748.476	0.0059
748.719	0.0065
748.963	0.0071
749.206	0.0061
749.449	0.004
749.692	0.0036
749.935	0.005
750.178	0.0037
750.421	0.003
750.664	0.0045
750.906	0.0059
751.149	0.0066
751.392	0.0057
751.635	0.0041
751.877	0.0048
752.12	0.0041
752.362	0.0032
752.604	0.0042
752.847	0.0056
753.089	0.0064
753.331	0.0076
753.573	0.0047
753.816	0.0039
754.058	0.0029
754.3	0.0013
754.542	0.0016
754.783	-0.0005
755.025	0.0001
755.267	0.0001
755.509	0.0001
755.75	-0.0003
755.992	0.0002
756.234	0.001
756.475	-0.0003
756.716	-0.001
756.958	-0.001
757.199	-0
757.44	0.0005
757.682	-0.0009
757.923	0.0017
758.164	0.0042
758.405	0.0033
758.646	0.0059
758.887	0.0048
759.128	0.0054
759.369	0.0031
759.609	0.0041
759.85	0.0036
760.091	0.0058
760.331	0.0047
760.572	0.0015
760.812	0.001
761.053	0.0008
761.293	0.0019
761.533	0.002
761.774	0.0044
762.014	0.0043
762.254	0.004
762.494	0.0027
762.734	0.0032
762.974	0.0022
763.214	0.0022
763.454	0.0024
763.694	0.0005
763.933	0.0008
764.173	-0.0009
764.413	-0.0031
764.652	-0.0028
764.892	-0.002
765.131	-0.0015
765.371	-0.0007
765.61	0.0001
765.849	0.0007
766.089	0.001
766.328	0.0012
766.567	0.0009
766.806	0.001
767.045	0.0014
767.284	0.0006
767.523	-0.0006
767.762	-0.001
768.001	-0.0011
768.239	-0.0015
768.478	-0.0007
768.717	0.0003
768.955	0
769.194	0.0004
769.432	0.0021
769.671	0.0026
769.909	0.0032
770.148	0.0034
770.386	0.0041
770.624	0.0048
770.862	0.0051
771.1	0.0053
771.338	0.0043
771.576	0.0042
771.814	0.0046
772.052	0.0055
772.29	0.0057
772.528	0.0063
772.765	0.0072
773.003	0.0082
773.24	0.0081
773.478	0.0063
773.716	0.0065
773.953	0.0054
774.19	0.0057
774.428	0.006
774.665	0.0067
774.902	0.0067
775.139	0.0067
775.376	0.0056
775.613	0.0063
775.85	0.0052
776.087	0.0046
776.324	0.0051
776.561	0.0044
776.798	0.0031
777.034	0.0032
777.271	0.0036
777.508	0.0048
777.744	0.0046
777.981	0.0059
778.217	0.0063
778.454	0.0055
778.69	0.0052
778.926	0.0046
779.162	0.0045
779.399	0.0046
779.635	0.005
779.871	0.0048
780.107	0.0052
780.343	0.0042
780.579	0.005
780.814	0.0049
781.05	0.0047
781.286	0.0018
781.522	0.0036
781.757	0.0044
781.993	0.0041
782.228	0.0034
782.464	0.0046
782.699	0.0033
782.934	0.0023
783.17	0.004
783.405	0.0036
783.64	0.0026
783.875	0.0021
784.11	0.0019
784.345	0.0025
784.58	0.0038
784.815	0.0047
785.05	0.0038
785.285	0.0028
785.52	0.0031
785.754	0.0024
785.989	0.0021
786.223	0.0009
786.458	0.0005
786.692	0.0011
786.927	0.0022
787.161	0.0028
787.396	0.0016
787.63	0.0007
787.864	0.0002
788.098	-0.0015
788.332	-0.0019
788.566	-0.0011
788.8	-0.0022
789.034	-0.0003
789.268	-0.0005
789.502	0.0005
789.736	0.0011
789.969	0.0021
790.203	0.0017
790.437	0.0014
790.67	0.0009
790.904	-0.0002
791.137	-0.0009
791.37	-0.0019
791.604	-0.0029
791.837	-0.0032
792.07	-0.0028
792.303	-0.0023
792.537	-0.0008
792.77	-0.0009
793.003	-0.0002
793.236	-0.0006
793.469	-0
793.701	0.0015
793.934	0.0017
794.167	0.0007
794.4	0.0003
794.632	0.0026
794.865	0.0034
795.097	0.0039
795.33	0.0012
795.562	0.0031
795.795	0.0041
796.027	0.0045
796.259	0.0042
796.491	0.0041
796.724	0.0035
796.956	0.0047
797.188	0.0035
797.42	0.0031
797.652	0.002
797.883	0.002
798.115	0.0041
798.347	0.0032
798.579	0.0055
798.81	0.0058
799.042	0.0055
799.274	0.0046
799.505	0.0041
799.737	0.0043
799.968	0.0031
800.199	0.0032
800.431	0.0026
800.662	0.0029
800.893	0.0029
801.124	0.0028
801.355	0.0028
801.586	0.0034
801.817	0.0025
802.048	0.0008
802.279	0.0024
802.51	0.003
802.741	0.004
802.971	0.0044
803.202	0.0032
803.433	0.0035
803.663	0.002
803.894	0.0015
804.124	0.0014
804.354	0.0017
804.585	0.0021
804.815	0.0022
805.045	0.0018
805.275	0.0017
805.506	-0.0549
805.736	-0.0792
805.966	0.082
806.196	-0.0492
