Data from 03 0.5 mM K2Cr2O7 0.3 mM BQDS 1 M H2SO4 5 min_Absorbance_0089.txt Node
Date: Tue Dec 14 01:04:45 EST 2021
User: kwabilab-user
Spectrometer: HDX00518
Trigger mode: 0
Integration Time (sec): 5.000000E-2
Scans to average: 50
Nonlinearity correction enabled: false
Boxcar width: 0
Storing dark spectrum: false
XAxis mode: Wavelengths
Number of Pixels in Spectrum: 2068
>>>>>Begin Spectral Data<<<<<
195.27	0.1224
195.642	0.2302
196.014	0.0777
196.386	0.6149
196.758	-0.0173
197.129	-0.0062
197.501	0.0045
197.872	0.027
198.244	0.0495
198.615	0.0618
198.986	0.0432
199.357	0.0557
199.728	0.0297
200.099	0.0652
200.47	0.0475
200.841	0.0462
201.212	0.0663
201.582	0.0718
201.953	0.0556
202.323	0.0648
202.694	0.0426
203.064	0.0401
203.434	0.0537
203.804	0.0412
204.174	0.0582
204.544	0.0732
204.914	0.0586
205.284	0.0474
205.653	0.0451
206.023	0.0551
206.393	0.0279
206.762	0.0667
207.131	0.0598
207.501	0.0612
207.87	0.0614
208.239	0.0659
208.608	0.0509
208.977	0.0487
209.346	0.0585
209.715	0.0368
210.083	0.0275
210.452	0.0466
210.82	0.0635
211.189	0.0571
211.557	0.0785
211.925	0.0253
212.294	0.0454
212.662	0.0601
213.03	0.0596
213.398	0.0661
213.766	0.0532
214.133	0.0539
214.501	0.0858
214.869	0.0678
215.236	0.0628
215.604	0.071
215.971	0.0554
216.338	0.075
216.705	0.08
217.072	0.0902
217.439	0.0873
217.806	0.0979
218.173	0.0876
218.54	0.0932
218.907	0.1017
219.273	0.1136
219.64	0.1299
220.006	0.1475
220.373	0.1213
220.739	0.1299
221.105	0.1591
221.471	0.168
221.837	0.1894
222.203	0.2059
222.569	0.2098
222.935	0.2411
223.3	0.2457
223.666	0.2844
224.031	0.2968
224.397	0.3105
224.762	0.3262
225.127	0.3592
225.493	0.3919
225.858	0.4068
226.223	0.4208
226.588	0.4593
226.952	0.4715
227.317	0.479
227.682	0.5053
228.046	0.5079
228.411	0.5569
228.775	0.5559
229.14	0.5596
229.504	0.5867
229.868	0.5833
230.232	0.5928
230.596	0.6161
230.96	0.6422
231.324	0.6295
231.688	0.6447
232.052	0.6595
232.415	0.6639
232.779	0.6737
233.142	0.6869
233.505	0.6932
233.869	0.6934
234.232	0.6942
234.595	0.6736
234.958	0.6863
235.321	0.6801
235.684	0.6889
236.047	0.6861
236.409	0.6943
236.772	0.6956
237.134	0.6977
237.497	0.6957
237.859	0.7013
238.222	0.6953
238.584	0.6783
238.946	0.6947
239.308	0.6834
239.67	0.6921
240.032	0.68
240.393	0.6887
240.755	0.676
241.117	0.6779
241.478	0.6755
241.84	0.6818
242.201	0.6798
242.562	0.6638
242.924	0.6555
243.285	0.6552
243.646	0.6666
244.007	0.6604
244.368	0.6631
244.728	0.6643
245.089	0.6684
245.45	0.6538
245.81	0.6515
246.171	0.6464
246.531	0.658
246.891	0.6539
247.252	0.6512
247.612	0.6493
247.972	0.6538
248.332	0.6535
248.692	0.6482
249.051	0.6512
249.411	0.6486
249.771	0.6403
250.13	0.6432
250.49	0.6405
250.849	0.6479
251.208	0.6474
251.568	0.6431
251.927	0.6444
252.286	0.646
252.645	0.6415
253.004	0.6458
253.363	0.6413
253.721	0.6427
254.08	0.6428
254.439	0.641
254.797	0.635
255.155	0.6339
255.514	0.6384
255.872	0.638
256.23	0.6342
256.588	0.6366
256.946	0.6394
257.304	0.6385
257.662	0.6327
258.02	0.6356
258.377	0.6362
258.735	0.6338
259.093	0.626
259.45	0.626
259.807	0.6249
260.165	0.6322
260.522	0.6267
260.879	0.6213
261.236	0.6244
261.593	0.6124
261.95	0.6186
262.306	0.6125
262.663	0.6123
263.02	0.6123
263.376	0.6073
263.733	0.6037
264.089	0.6019
264.445	0.6025
264.802	0.5998
265.158	0.594
265.514	0.5944
265.87	0.5922
266.226	0.591
266.581	0.5905
266.937	0.5904
267.293	0.5904
267.648	0.5739
268.004	0.575
268.359	0.5728
268.714	0.574
269.07	0.5685
269.425	0.5617
269.78	0.5576
270.135	0.5563
270.49	0.5619
270.844	0.5545
271.199	0.5512
271.554	0.548
271.908	0.5391
272.263	0.5429
272.617	0.5347
272.972	0.5357
273.326	0.5307
273.68	0.5254
274.034	0.5231
274.388	0.5173
274.742	0.5149
275.096	0.5146
275.45	0.5092
275.803	0.5056
276.157	0.5011
276.51	0.5027
276.864	0.491
277.217	0.4921
277.571	0.4831
277.924	0.4843
278.277	0.4783
278.63	0.4715
278.983	0.4668
279.336	0.4648
279.688	0.4609
280.041	0.4528
280.394	0.4532
280.746	0.443
281.099	0.442
281.451	0.4363
281.803	0.4317
282.156	0.4292
282.508	0.4249
282.86	0.42
283.212	0.4141
283.564	0.4113
283.916	0.408
284.267	0.4016
284.619	0.3963
284.971	0.394
285.322	0.3909
285.673	0.3846
286.025	0.3787
286.376	0.3774
286.727	0.3681
287.078	0.3664
287.429	0.3612
287.78	0.357
288.131	0.3526
288.482	0.3492
288.833	0.3449
289.183	0.337
289.534	0.3378
289.884	0.3326
290.235	0.3271
290.585	0.3232
290.935	0.3188
291.285	0.3109
291.635	0.3112
291.985	0.3073
292.335	0.3012
292.685	0.2997
293.035	0.2966
293.384	0.2899
293.734	0.2856
294.083	0.2831
294.433	0.2785
294.782	0.2741
295.131	0.2706
295.48	0.2659
295.829	0.2611
296.179	0.2579
296.527	0.2534
296.876	0.2503
297.225	0.2463
297.574	0.2424
297.922	0.2401
298.271	0.2357
298.619	0.2328
298.968	0.2303
299.316	0.2256
299.664	0.2225
300.012	0.2194
300.36	0.2151
300.708	0.2143
301.056	0.2102
301.404	0.2065
301.752	0.2052
302.099	0.2024
302.447	0.1996
302.794	0.1978
303.142	0.1944
303.489	0.1908
303.836	0.1902
304.183	0.1868
304.531	0.1846
304.878	0.1833
305.224	0.182
305.571	0.1786
305.918	0.1775
306.265	0.1764
306.611	0.1736
306.958	0.1731
307.304	0.1701
307.651	0.1694
307.997	0.1681
308.343	0.167
308.689	0.1664
309.035	0.1648
309.381	0.1644
309.727	0.1631
310.073	0.1618
310.419	0.1615
310.764	0.1603
311.11	0.1593
311.455	0.1601
311.801	0.1595
312.146	0.159
312.491	0.1583
312.837	0.1572
313.182	0.1578
313.527	0.1577
313.872	0.1572
314.216	0.1579
314.561	0.1574
314.906	0.1578
315.251	0.158
315.595	0.1582
315.94	0.159
316.284	0.1593
316.628	0.159
316.972	0.161
317.317	0.1613
317.661	0.1611
318.005	0.162
318.348	0.1633
318.692	0.1644
319.036	0.1636
319.38	0.1652
319.723	0.166
320.067	0.1668
320.41	0.1685
320.754	0.1701
321.097	0.1703
321.44	0.1713
321.783	0.1737
322.126	0.1749
322.469	0.1751
322.812	0.1771
323.155	0.1782
323.498	0.1797
323.84	0.1814
324.183	0.184
324.525	0.1844
324.868	0.1863
325.21	0.1871
325.552	0.1897
325.894	0.1902
326.236	0.1916
326.578	0.1932
326.92	0.1955
327.262	0.1971
327.604	0.1986
327.946	0.2004
328.287	0.2028
328.629	0.204
328.97	0.2056
329.312	0.2064
329.653	0.2085
329.994	0.2105
330.335	0.2121
330.676	0.2147
331.017	0.2163
331.358	0.2188
331.699	0.2208
332.04	0.2214
332.38	0.2235
332.721	0.2247
333.061	0.2275
333.402	0.2296
333.742	0.231
334.083	0.2327
334.423	0.2339
334.763	0.2359
335.103	0.2372
335.443	0.2386
335.783	0.2409
336.123	0.2418
336.462	0.2434
336.802	0.2455
337.141	0.2461
337.481	0.2473
337.82	0.2492
338.16	0.2501
338.499	0.252
338.838	0.254
339.177	0.2555
339.516	0.2571
339.855	0.258
340.194	0.2587
340.533	0.2604
340.872	0.261
341.21	0.262
341.549	0.2643
341.887	0.2648
342.226	0.2658
342.564	0.2669
342.902	0.2677
343.24	0.2674
343.578	0.2681
343.916	0.2695
344.254	0.2699
344.592	0.2695
344.93	0.2701
345.268	0.2705
345.605	0.2705
345.943	0.2715
346.28	0.2722
346.618	0.2712
346.955	0.2719
347.292	0.2726
347.629	0.2732
347.966	0.2726
348.303	0.273
348.64	0.2733
348.977	0.2738
349.314	0.274
349.65	0.273
349.987	0.274
350.324	0.2746
350.66	0.2736
350.996	0.272
351.333	0.2728
351.669	0.2724
352.005	0.2709
352.341	0.2702
352.677	0.2692
353.013	0.2685
353.349	0.2682
353.685	0.2667
354.02	0.2652
354.356	0.2637
354.691	0.2624
355.027	0.262
355.362	0.2607
355.697	0.2605
356.033	0.2593
356.368	0.2586
356.703	0.2575
357.038	0.256
357.373	0.2551
357.707	0.2541
358.042	0.2526
358.377	0.2523
358.711	0.2512
359.046	0.2489
359.38	0.2489
359.715	0.2478
360.049	0.2461
360.383	0.2453
360.717	0.2438
361.051	0.2423
361.385	0.2407
361.719	0.2385
362.053	0.2369
362.387	0.2342
362.72	0.2334
363.054	0.2311
363.387	0.2295
363.721	0.228
364.054	0.2251
364.387	0.2233
364.721	0.2219
365.054	0.2195
365.387	0.2178
365.72	0.2161
366.053	0.2142
366.385	0.2125
366.718	0.2105
367.051	0.2089
367.383	0.2077
367.716	0.2065
368.048	0.2051
368.381	0.2029
368.713	0.2015
369.045	0.2011
369.377	0.1987
369.709	0.1977
370.041	0.1962
370.373	0.1941
370.705	0.1923
371.037	0.1905
371.368	0.1893
371.7	0.1884
372.031	0.1852
372.363	0.1835
372.694	0.1816
373.025	0.1782
373.356	0.1772
373.688	0.1751
374.019	0.1727
374.35	0.1701
374.68	0.1682
375.011	0.1662
375.342	0.1631
375.673	0.1622
376.003	0.1592
376.334	0.158
376.664	0.1557
376.995	0.1543
377.325	0.1516
377.655	0.1506
377.985	0.1488
378.315	0.1469
378.645	0.1463
378.975	0.1437
379.305	0.1427
379.635	0.1421
379.964	0.1406
380.294	0.1381
380.623	0.1378
380.953	0.1356
381.282	0.1343
381.611	0.1326
381.941	0.1311
382.27	0.13
382.599	0.1276
382.928	0.1263
383.257	0.1247
383.585	0.1229
383.914	0.1219
384.243	0.1199
384.571	0.1179
384.9	0.1146
385.228	0.1139
385.557	0.1116
385.885	0.1098
386.213	0.1086
386.541	0.1074
386.869	0.1058
387.197	0.1035
387.525	0.1019
387.853	0.1005
388.181	0.0989
388.508	0.0966
388.836	0.0949
389.164	0.0932
389.491	0.0929
389.818	0.0906
390.146	0.0894
390.473	0.0887
390.8	0.0874
391.127	0.0858
391.454	0.0844
391.781	0.0837
392.108	0.0821
392.435	0.0815
392.761	0.0797
393.088	0.0793
393.415	0.0778
393.741	0.077
394.067	0.0763
394.394	0.0755
394.72	0.0742
395.046	0.0731
395.372	0.073
395.698	0.0711
396.024	0.0705
396.35	0.0699
396.676	0.0681
397.001	0.0671
397.327	0.0663
397.653	0.0653
397.978	0.0636
398.303	0.0632
398.629	0.0615
398.954	0.0611
399.279	0.0601
399.604	0.0597
399.929	0.0588
400.254	0.0581
400.579	0.0578
400.904	0.057
401.229	0.056
401.553	0.0553
401.878	0.0549
402.202	0.0534
402.527	0.0535
402.851	0.0534
403.175	0.0521
403.5	0.0514
403.824	0.0513
404.148	0.0513
404.472	0.0504
404.796	0.05
405.119	0.0497
405.443	0.0488
405.767	0.048
406.09	0.0484
406.414	0.0477
406.737	0.0482
407.061	0.048
407.384	0.0476
407.707	0.0469
408.03	0.0464
408.353	0.0472
408.676	0.0465
408.999	0.0457
409.322	0.0461
409.645	0.0455
409.968	0.0461
410.29	0.0454
410.613	0.0457
410.935	0.0451
411.258	0.045
411.58	0.0446
411.902	0.0452
412.224	0.0448
412.546	0.0442
412.868	0.0444
413.19	0.0439
413.512	0.0442
413.834	0.0436
414.156	0.0438
414.477	0.0442
414.799	0.0436
415.121	0.0445
415.442	0.0435
415.763	0.0438
416.085	0.0434
416.406	0.0439
416.727	0.0438
417.048	0.0435
417.369	0.0437
417.69	0.043
418.011	0.043
418.331	0.0435
418.652	0.0436
418.973	0.0436
419.293	0.0438
419.614	0.0439
419.934	0.0446
420.254	0.0435
420.574	0.0443
420.895	0.0439
421.215	0.0438
421.535	0.0438
421.855	0.0436
422.174	0.044
422.494	0.0434
422.814	0.0431
423.134	0.0432
423.453	0.0438
423.773	0.044
424.092	0.0437
424.411	0.0431
424.731	0.044
425.05	0.0439
425.369	0.0437
425.688	0.0438
426.007	0.0432
426.326	0.0435
426.644	0.0435
426.963	0.0438
427.282	0.0435
427.6	0.0433
427.919	0.0431
428.237	0.0439
428.556	0.0437
428.874	0.0437
429.192	0.0447
429.51	0.0444
429.828	0.0438
430.146	0.0437
430.464	0.0436
430.782	0.0437
431.1	0.0439
431.418	0.0436
431.735	0.0437
432.053	0.0445
432.37	0.0442
432.688	0.0437
433.005	0.0437
433.322	0.0443
433.639	0.0438
433.957	0.0444
434.274	0.0436
434.591	0.0438
434.907	0.0435
435.224	0.0437
435.541	0.0438
435.858	0.0445
436.174	0.0447
436.491	0.0439
436.807	0.0427
437.124	0.0437
437.44	0.0442
437.756	0.043
438.072	0.0438
438.388	0.0448
438.704	0.0434
439.02	0.0435
439.336	0.0431
439.652	0.0429
439.968	0.0424
440.283	0.0422
440.599	0.0424
440.914	0.0434
441.23	0.0433
441.545	0.0429
441.86	0.0428
442.175	0.0427
442.491	0.0427
442.806	0.0427
443.121	0.0428
443.435	0.0421
443.75	0.0429
444.065	0.0427
444.38	0.0425
444.694	0.0427
445.009	0.0428
445.323	0.0421
445.638	0.0411
445.952	0.0421
446.266	0.0422
446.58	0.0424
446.894	0.0427
447.208	0.0415
447.522	0.0416
447.836	0.0412
448.15	0.0411
448.464	0.0411
448.777	0.0414
449.091	0.0412
449.404	0.0413
449.718	0.0406
450.031	0.0405
450.345	0.0405
450.658	0.0409
450.971	0.0408
451.284	0.0408
451.597	0.0398
451.91	0.0401
452.223	0.0396
452.535	0.0389
452.848	0.0403
453.161	0.039
453.473	0.04
453.786	0.0394
454.098	0.039
454.411	0.0393
454.723	0.0384
455.035	0.0376
455.347	0.0375
455.659	0.0375
455.971	0.0386
456.283	0.037
456.595	0.0377
456.907	0.0382
457.218	0.0372
457.53	0.0364
457.841	0.037
458.153	0.0374
458.464	0.0371
458.776	0.037
459.087	0.0363
459.398	0.0357
459.709	0.0365
460.02	0.0368
460.331	0.0354
460.642	0.0359
460.953	0.035
461.263	0.035
461.574	0.0347
461.885	0.0339
462.195	0.0345
462.506	0.035
462.816	0.0341
463.126	0.0337
463.437	0.0341
463.747	0.0335
464.057	0.0335
464.367	0.033
464.677	0.0326
464.987	0.0323
465.296	0.0327
465.606	0.0315
465.916	0.032
466.225	0.0321
466.535	0.0314
466.844	0.0315
467.154	0.0316
467.463	0.031
467.772	0.0308
468.081	0.0313
468.39	0.0301
468.699	0.0306
469.008	0.029
469.317	0.0293
469.626	0.0286
469.935	0.0283
470.243	0.0283
470.552	0.0293
470.86	0.029
471.169	0.0277
471.477	0.0276
471.785	0.0286
472.093	0.028
472.402	0.0269
472.71	0.0276
473.018	0.0262
473.326	0.0266
473.633	0.0281
473.941	0.0268
474.249	0.0265
474.556	0.0273
474.864	0.0266
475.171	0.0258
475.479	0.0252
475.786	0.025
476.094	0.025
476.401	0.0242
476.708	0.0244
477.015	0.0248
477.322	0.0243
477.629	0.0239
477.936	0.0247
478.242	0.0231
478.549	0.0227
478.856	0.0228
479.162	0.0229
479.469	0.0224
479.775	0.0229
480.081	0.0226
480.388	0.0214
480.694	0.0217
481	0.0215
481.306	0.0213
481.612	0.0207
481.918	0.021
482.224	0.021
482.53	0.0209
482.835	0.0212
483.141	0.0204
483.446	0.0208
483.752	0.0201
484.057	0.0199
484.363	0.0185
484.668	0.0195
484.973	0.0178
485.278	0.0177
485.583	0.0183
485.888	0.0181
486.193	0.0172
486.498	0.0175
486.803	0.0172
487.107	0.0171
487.412	0.0171
487.717	0.0167
488.021	0.0164
488.325	0.0178
488.63	0.0167
488.934	0.0165
489.238	0.0165
489.542	0.0152
489.846	0.0161
490.15	0.0154
490.454	0.0155
490.758	0.0146
491.062	0.0151
491.366	0.0148
491.669	0.0144
491.973	0.0146
492.276	0.0142
492.58	0.0136
492.883	0.0132
493.186	0.0137
493.489	0.0133
493.792	0.0119
494.096	0.0126
494.399	0.0129
494.701	0.0129
495.004	0.0114
495.307	0.0122
495.61	0.0116
495.912	0.0122
496.215	0.0112
496.517	0.0103
496.82	0.011
497.122	0.01
497.424	0.0112
497.727	0.0102
498.029	0.0099
498.331	0.0108
498.633	0.01
498.935	0.0102
499.237	0.0105
499.538	0.0094
499.84	0.0097
500.142	0.0092
500.443	0.0086
500.745	0.0086
501.046	0.0086
501.348	0.009
501.649	0.0074
501.95	0.0078
502.251	0.0074
502.552	0.008
502.853	0.0074
503.154	0.0075
503.455	0.0074
503.756	0.0076
504.057	0.0078
504.357	0.0061
504.658	0.0069
504.958	0.0065
505.259	0.0072
505.559	0.0067
505.859	0.0055
506.16	0.0063
506.46	0.0062
506.76	0.0065
507.06	0.006
507.36	0.0059
507.66	0.0062
507.96	0.007
508.259	0.0055
508.559	0.0065
508.859	0.0057
509.158	0.0057
509.457	0.0056
509.757	0.0052
510.056	0.0055
510.355	0.005
510.655	0.0041
510.954	0.0051
511.253	0.0048
511.552	0.0049
511.851	0.0047
512.149	0.0036
512.448	0.0045
512.747	0.0042
513.045	0.0037
513.344	0.0029
513.642	0.0028
513.941	0.0033
514.239	0.0025
514.537	0.0026
514.836	0.0038
515.134	0.0018
515.432	0.0045
515.73	0.0029
516.028	0.003
516.326	0.004
516.623	0.0027
516.921	0.0014
517.219	0.0022
517.516	0.0032
517.814	0.0023
518.111	0.0023
518.409	0.0013
518.706	0.0017
519.003	0.0033
519.3	0.0026
519.597	0.0008
519.894	0.0021
520.191	0.0019
520.488	0.0022
520.785	0.0004
521.082	0.0014
521.378	0.0013
521.675	0.0014
521.971	0.0006
522.268	0.0013
522.564	0.0006
522.861	0.0018
523.157	0.0015
523.453	0.002
523.749	0.001
524.045	0.0011
524.341	0.0018
524.637	0.0006
524.933	0.0003
525.229	0.0005
525.524	-0.0002
525.82	-0.001
526.115	0.0011
526.411	0.0009
526.706	0.0003
527.002	0.0006
527.297	-0.0001
527.592	0.001
527.887	0.0008
528.182	0.0013
528.477	0.0023
528.772	0.0009
529.067	0.0003
529.362	0.0004
529.657	-0
529.951	0.0006
530.246	0
530.54	0.0008
530.835	0.0005
531.129	0.0001
531.423	-0.0002
531.718	-0.0002
532.012	0.0007
532.306	-0.0005
532.6	-0.0014
532.894	-0.0002
533.188	0.0005
533.482	-0.0004
533.775	-0.0002
534.069	-0.0012
534.363	-0.0007
534.656	-0.0024
534.95	-0.0001
535.243	-0.0011
535.536	-0.0001
535.83	-0.0017
536.123	0.0001
536.416	-0.0003
536.709	-0.0007
537.002	-0.0009
537.295	-0.0014
537.588	-0.0013
537.881	-0.0012
538.173	-0.0012
538.466	0.0001
538.759	-0.0007
539.051	-0.0001
539.344	-0.0009
539.636	-0.0013
539.928	0.0006
540.22	0.0002
540.513	-0.0002
540.805	-0.0005
541.097	-0.0017
541.389	-0.0002
541.681	0.0006
541.972	0.0008
542.264	0.0003
542.556	0.0003
542.847	0.0016
543.139	0.0004
543.431	-0.0007
543.722	-0.0007
544.013	-0
544.305	0.0002
544.596	-0.0012
544.887	0
545.178	0.0002
545.469	-0.0012
545.76	-0.0003
546.051	0.0016
546.342	-0.0015
546.632	-0.0007
546.923	-0.001
547.214	-0.0017
547.504	-0.0016
547.795	-0.0013
548.085	-0.0017
548.375	-0.0013
548.666	-0.0012
548.956	-0.0013
549.246	-0.0014
549.536	-0.0002
549.826	-0.001
550.116	-0.0001
550.406	-0.0013
550.695	-0.002
550.985	-0.0005
551.275	-0.0019
551.564	-0.0008
551.854	0.0001
552.143	-0.0025
552.433	-0.0021
552.722	-0.0018
553.011	0
553.3	-0.0003
553.589	-0.0004
553.879	0.0002
554.167	-0.0007
554.456	-0.0004
554.745	-0
555.034	-0.0011
555.323	-0.0002
555.611	-0.0002
555.9	-0.0005
556.188	-0.0012
556.477	0.0004
556.765	-0.0003
557.053	-0.0014
557.342	-0.0006
557.63	-0.001
557.918	-0.0005
558.206	0.0001
558.494	-0.0007
558.782	-0.0002
559.069	0.0007
559.357	0.0006
559.645	-0.0003
559.932	-0.0007
560.22	-0.0006
560.507	-0.0007
560.795	-0.001
561.082	-0.0012
561.37	-0.0005
561.657	-0.0014
561.944	-0.0011
562.231	-0.0005
562.518	0.0002
562.805	-0
563.092	0.0003
563.379	0.0001
563.665	0.0009
563.952	-0.0002
564.239	0.0007
564.525	-0.0001
564.811	0.0007
565.098	0.0005
565.384	-0.0006
565.67	0.001
565.957	0.0012
566.243	0.0014
566.529	0.0001
566.815	0.0002
567.101	0.0019
567.387	0.0004
567.672	0.0001
567.958	0.0014
568.244	0.0004
568.529	0.0001
568.815	0.0001
569.1	-0.0007
569.386	-0.0012
569.671	-0
569.956	-0.0004
570.242	-0.0012
570.527	-0.0003
570.812	0.0002
571.097	0.0006
571.382	-0.0005
571.666	0.0006
571.951	-0
572.236	0.0005
572.521	0.0009
572.805	-0.0004
573.09	-0.0001
573.374	-0.0011
573.659	-0.0006
573.943	-0.0007
574.227	0.0001
574.511	-0.0011
574.795	-0
575.079	0.0001
575.363	-0.0013
575.647	-0.0011
575.931	-0.0003
576.215	-0.0014
576.499	-0.0008
576.782	-0.0012
577.066	-0.0008
577.349	0.0001
577.633	-0.0009
577.916	-0.0011
578.2	-0.0003
578.483	-0.0012
578.766	-0.0004
579.049	-0.0009
579.332	0.0012
579.615	0.0008
579.898	0.0003
580.181	0.0009
580.464	0.0008
580.746	0.0001
581.029	0.0002
581.312	-0.001
581.594	-0.0011
581.877	-0.0014
582.159	-0.0008
582.441	-0.001
582.724	-0.0004
583.006	0.0001
583.288	0.0005
583.57	0.0009
583.852	0.0006
584.134	0.0002
584.416	-0.0003
584.697	0.0002
584.979	-0.0013
585.261	-0.0013
585.542	-0.0015
585.824	-0.0014
586.105	-0.0011
586.387	-0.0014
586.668	-0.0005
586.949	-0.0007
587.231	-0.0003
587.512	-0.001
587.793	-0.0003
588.074	-0.001
588.355	-0.0004
588.636	-0.0006
588.916	-0.0008
589.197	-0.0006
589.478	-0.0014
589.758	-0.0007
590.039	-0.0006
590.319	0.0002
590.6	0.0005
590.88	0.001
591.16	0.0008
591.441	0.0007
591.721	0.0004
592.001	-0.0003
592.281	-0.0006
592.561	0
592.841	-0.0007
593.12	-0.0017
593.4	-0.0011
593.68	-0.0024
593.959	-0.0013
594.239	-0.0014
594.518	-0.0006
594.798	0.0006
595.077	-0.0012
595.356	-0.0007
595.636	-0.0009
595.915	0
596.194	-0
596.473	-0.0002
596.752	0.0002
597.031	0.0006
597.31	-0.0006
597.588	-0.0008
597.867	-0.0005
598.146	-0.0005
598.424	-0.0005
598.703	-0.0007
598.981	-0.0017
599.259	-0.0015
599.538	-0.0006
599.816	-0.0001
600.094	-0.0007
600.372	-0.001
600.65	-0.002
600.928	-0.0004
601.206	-0.0005
601.484	-0.0004
601.762	0.0004
602.04	-0.0002
602.317	-0.0004
602.595	0.0013
602.872	0.0008
603.15	0.0009
603.427	-0.0007
603.704	-0.0009
603.982	-0.0009
604.259	-0.0004
604.536	0.0002
604.813	-0.0003
605.09	-0.0008
605.367	-0.0009
605.644	-0.0017
605.921	-0.0008
606.197	-0.0013
606.474	-0.0006
606.751	-0.0011
607.027	-0.0009
607.304	0.0002
607.58	-0.0012
607.856	-0.0013
608.133	-0.0015
608.409	-0.0005
608.685	-0.001
608.961	-0.001
609.237	-0.0006
609.513	-0.0005
609.789	-0.0005
610.065	-0.0005
610.341	-0.0009
610.616	-0.0002
610.892	0.0004
611.167	0.0015
611.443	0.0007
611.718	0.0007
611.994	0.0001
612.269	-0.0005
612.544	-0.0005
612.819	-0.0008
613.095	-0.0009
613.37	0
613.645	-0.0007
613.919	-0.0007
614.194	-0.0002
614.469	0.0004
614.744	-0.0005
615.019	-0.0011
615.293	-0.001
615.568	-0.0006
615.842	0.0002
616.116	0.001
616.391	0.0012
616.665	0.0011
616.939	0.0004
617.213	0.0005
617.488	0.0013
617.762	-0.001
618.035	-0.0008
618.309	-0.0014
618.583	0.0001
618.857	0.0007
619.131	0.001
619.404	0.0022
619.678	0.0012
619.951	-0.0005
620.225	-0.0002
620.498	-0
620.771	0
621.045	-0.0008
621.318	-0.001
621.591	-0.0018
621.864	-0.0015
622.137	-0.0022
622.41	-0.0018
622.683	-0.0014
622.956	-0.0007
623.228	0.0002
623.501	0.0006
623.774	-0.0007
624.046	0.0005
624.319	-0.0016
624.591	-0.0013
624.863	-0.0009
625.136	0.0003
625.408	0.0007
625.68	0.0003
625.952	0.0006
626.224	0.0009
626.496	0.0004
626.768	0.0005
627.04	-0.0001
627.311	-0.0001
627.583	0.0001
627.855	0.0006
628.126	0.0012
628.398	0.0023
628.669	0.0019
628.941	0.0022
629.212	0.0016
629.483	0.0016
629.755	0.001
630.026	0.0003
630.297	0.0011
630.568	0.0012
630.839	0.0007
631.11	0.001
631.38	0.0015
631.651	0.0012
631.922	0.0015
632.192	0.0008
632.463	0.0005
632.733	-0.0005
633.004	0.0008
633.274	0.0008
633.545	0.0013
633.815	0.0007
634.085	-0.0006
634.355	-0.0019
634.625	-0.0008
634.895	-0.0005
635.165	-0.0003
635.435	-0.0014
635.705	-0.0014
635.974	-0.0018
636.244	-0.001
636.514	-0.0003
636.783	-0.0006
637.053	-0.0005
637.322	-0.0001
637.591	0.0001
637.861	-0.0014
638.13	-0.0012
638.399	-0.0018
638.668	-0.0022
638.937	-0.0019
639.206	-0.0026
639.475	-0.0021
639.744	-0.0026
640.013	-0.0019
640.281	-0.0016
640.55	-0.0005
640.819	-0.0014
641.087	-0.0015
641.356	-0.0014
641.624	-0.0001
641.892	0.0005
642.161	-0.0005
642.429	0.0001
642.697	-0.0008
642.965	-0.0001
643.233	-0.0017
643.501	-0.0009
643.769	0.0005
644.037	-0.0005
644.305	-0.001
644.572	-0.0007
644.84	-0.0008
645.108	-0.0014
645.375	-0.0025
645.643	-0.0022
645.91	-0.0003
646.177	0.0001
646.445	0.0006
646.712	0.0028
646.979	0.0019
647.246	0.003
647.513	0.0031
647.78	0.0018
648.047	-0.0001
648.314	-0.0022
648.58	-0.0011
648.847	-0.0014
649.114	0
649.38	0.0002
649.647	-0.001
649.913	0.001
650.18	-0.0006
650.446	0.0007
650.712	-0.0008
650.978	-0.001
651.245	-0.0003
651.511	-0.0001
651.777	-0.0004
652.043	-0.0008
652.309	0.001
652.574	0.0014
652.84	0.0022
653.106	0.002
653.371	0.0018
653.637	0.0027
653.903	0.0016
654.168	0.0024
654.433	0.0028
654.699	0.003
654.964	0.0033
655.229	0.0016
655.494	0.0001
655.759	-0.0029
656.024	-0.0002
656.289	-0
656.554	-0.0007
656.819	-0.0003
657.084	0.0003
657.349	0.0005
657.613	0.0012
657.878	0.0007
658.142	-0.0003
658.407	0.0005
658.671	0.0004
658.936	0.0011
659.2	0.0005
659.464	0.0017
659.728	0.001
659.992	0.0002
660.256	0.0003
660.52	-0.0005
660.784	0.0004
661.048	-0
661.312	0.0013
661.575	0.0014
661.839	0.0019
662.103	0.0008
662.366	0.0002
662.63	-0.0001
662.893	-0.0003
663.156	-0.0011
663.42	-0.0011
663.683	-0.0018
663.946	-0.003
664.209	-0.0028
664.472	-0.0029
664.735	-0.0025
664.998	-0.0003
665.261	-0.0003
665.524	-0.0005
665.786	-0.0005
666.049	-0.0002
666.312	-0.0004
666.574	-0.0012
666.837	-0.0008
667.099	0.0005
667.361	-0.0004
667.624	-0.0004
667.886	-0.0027
668.148	-0.0011
668.41	-0.0014
668.672	-0.0017
668.934	-0.0001
669.196	0
669.458	0.0008
669.72	0.0012
669.982	0.0014
670.243	0.0017
670.505	0.0008
670.766	0.001
671.028	0.0011
671.289	-0.0016
671.551	-0.0008
671.812	-0.0019
672.073	-0.001
672.334	-0.0013
672.596	-0.0012
672.857	-0.002
673.118	-0.0013
673.379	-0.002
673.639	-0.003
673.9	-0.0018
674.161	-0.0024
674.422	-0.002
674.682	-0.0013
674.943	-0.0009
675.203	-0.0011
675.464	-0.0026
675.724	-0.0032
675.985	-0.0032
676.245	-0.0035
676.505	-0.003
676.765	-0.0031
677.025	-0.0023
677.285	-0.0024
677.545	-0.0006
677.805	-0.0006
678.065	-0.0011
678.325	-0.0004
678.585	-0.0008
678.844	-0.0028
679.104	-0.0021
679.363	-0.0036
679.623	-0.0036
679.882	-0.0028
680.142	-0.0018
680.401	-0.0021
680.66	-0.0005
680.919	0.0006
681.178	0.0001
681.437	-0.0001
681.696	-0.0014
681.955	-0.0006
682.214	0.0008
682.473	-0.001
682.732	-0.0019
682.99	-0.0016
683.249	-0.0006
683.508	-0.0013
683.766	-0.0015
684.024	-0.0014
684.283	-0.0005
684.541	-0.0006
684.799	-0.0006
685.058	-0.0003
685.316	-0.0021
685.574	-0.0011
685.832	-0.0011
686.09	-0.0015
686.348	-0.0031
686.606	-0.0025
686.863	-0.0022
687.121	-0.0021
687.379	-0.0008
687.636	-0.0011
687.894	-0.0007
688.151	-0.0001
688.409	-0.0006
688.666	-0.0016
688.923	-0.0028
689.181	-0.002
689.438	-0.0027
689.695	-0.0036
689.952	-0.0037
690.209	-0.0035
690.466	-0.0029
690.723	-0.0024
690.979	-0.0015
691.236	-0.0029
691.493	-0.0017
691.75	-0.0011
692.006	-0.0017
692.263	-0.0012
692.519	-0.0018
692.775	-0.001
693.032	-0.0012
693.288	-0.0008
693.544	-0.0009
693.8	-0.0012
694.056	-0.0008
694.313	-0.0009
694.568	-0
694.824	-0.0009
695.08	-0.0013
695.336	-0.0026
695.592	-0.0037
695.847	-0.0019
696.103	-0.0021
696.359	-0.0011
696.614	-0.0018
696.869	-0.0026
697.125	-0.004
697.38	-0.0026
697.635	-0.0014
697.891	-0.0011
698.146	-0.0011
698.401	-0.0013
698.656	-0.0013
698.911	-0.0013
699.166	-0.0008
699.42	0.0007
699.675	-0.0005
699.93	0.0004
700.185	-0.0004
700.439	-0.0004
700.694	0.0001
700.948	-0.0009
701.203	-0.0016
701.457	-0.0015
701.711	-0.0018
701.965	-0.0024
702.22	-0.0026
702.474	-0.0018
702.728	-0.002
702.982	-0.0023
703.236	-0.001
703.49	-0.001
703.743	-0.0008
703.997	-0.001
704.251	-0.0014
704.504	-0.0005
704.758	-0.0013
705.012	-0.0012
705.265	0.0005
705.518	0.0014
705.772	0.0004
706.025	-0.0007
706.278	-0.0009
706.531	-0.0017
706.785	-0.0022
707.038	-0.0021
707.291	-0.0026
707.543	-0.0014
707.796	-0.002
708.049	-0.0027
708.302	-0.0031
708.555	-0.0031
708.807	-0.0021
709.06	-0.0027
709.312	-0.0019
709.565	-0.002
709.817	-0.003
710.069	-0.0026
710.322	-0.0032
710.574	-0.0033
710.826	-0.0039
711.078	-0.0032
711.33	-0.0031
711.582	-0.004
711.834	-0.0033
712.086	-0.0034
712.338	-0.0046
712.59	-0.004
712.841	-0.0056
713.093	-0.0051
713.344	-0.0054
713.596	-0.0043
713.847	-0.0044
714.099	-0.0043
714.35	-0.0039
714.601	-0.0037
714.853	-0.0029
715.104	-0.0029
715.355	-0.003
715.606	-0.0039
715.857	-0.0023
716.108	-0.0033
716.359	-0.0023
716.609	-0.0033
716.86	-0.0029
717.111	-0.0023
717.361	-0.0022
717.612	-0.0005
717.863	-0.0003
718.113	0.0009
718.363	-0
718.614	0.0009
718.864	0.0009
719.114	0.0003
719.364	0.0009
719.614	-0.0001
719.865	0.0004
720.114	0.0018
720.364	0.0016
720.614	0.0021
720.864	0.0016
721.114	0.0013
721.364	0.0012
721.613	0.0009
721.863	0.0003
722.112	0.0006
722.362	-0.0004
722.611	-0.0019
722.86	-0.0011
723.11	-0.0014
723.359	-0.0013
723.608	-0.0018
723.857	-0.0014
724.106	-0.0012
724.355	-0.001
724.604	-0.0011
724.853	-0.0014
725.102	-0.0029
725.351	-0.0024
725.599	-0.0032
725.848	-0.0033
726.097	-0.0026
726.345	-0.0029
726.594	-0.0043
726.842	-0.0035
727.09	-0.0052
727.339	-0.0056
727.587	-0.0058
727.835	-0.0057
728.083	-0.004
728.331	-0.005
728.579	-0.004
728.827	-0.0029
729.075	-0.0027
729.323	-0.0031
729.571	-0.0028
729.818	-0.0029
730.066	-0.0023
730.314	-0.0024
730.561	-0.0009
730.809	-0.0007
731.056	-0.0013
731.303	-0.0006
731.551	-0.0006
731.798	-0.0011
732.045	-0.0009
732.292	-0.0007
732.539	0.0002
732.786	0.0016
733.033	0.0007
733.28	0.0004
733.527	0.0001
733.774	-0
734.021	-0.0021
734.267	-0.0031
734.514	-0.0035
734.76	-0.0036
735.007	-0.0031
735.253	-0.0034
735.5	-0.0037
735.746	-0.0033
735.992	-0.0024
736.238	-0.0031
736.485	-0.002
736.731	-0.0016
736.977	-0.0027
737.223	-0.0016
737.469	-0.0014
737.715	-0.0011
737.96	-0.0011
738.206	-0.0022
738.452	-0.0018
738.697	-0.0014
738.943	-0.0008
739.189	-0.002
739.434	-0.0016
739.679	-0.0019
739.925	-0.0019
740.17	-0.0032
740.415	-0.0041
740.66	-0.0053
740.906	-0.0048
741.151	-0.004
741.396	-0.0046
741.641	-0.0052
741.886	-0.0045
742.13	-0.0022
742.375	-0.0028
742.62	-0.0035
742.865	-0.0034
743.109	-0.0012
743.354	-0.0008
743.598	0
743.843	0.0006
744.087	0.001
744.331	0.002
744.576	0.0018
744.82	0.003
745.064	0.0027
745.308	0.003
745.552	0.0031
745.796	0.0015
746.04	0.0019
746.284	0.0011
746.528	0.0021
746.771	0.0031
747.015	0.003
747.259	0.0015
747.502	0.0005
747.746	-0
747.989	0.0008
748.233	0
748.476	0.0016
748.719	0.0023
748.963	0.0029
749.206	0.0032
749.449	0.0015
749.692	0.0012
749.935	0.0023
750.178	0.0004
750.421	0.0002
750.664	0.0006
750.906	0.0021
751.149	0.0011
751.392	0.0013
751.635	0.0002
751.877	0.0005
752.12	-0
752.362	-0.0008
752.604	-0.0004
752.847	0.0018
753.089	0.0022
753.331	0.0024
753.573	0.0014
753.816	0
754.058	-0.0009
754.3	-0.0016
754.542	-0.0019
754.783	-0.003
755.025	-0.0019
755.267	-0.0012
755.509	-0.0016
755.75	-0.0016
755.992	-0.002
756.234	-0.0025
756.475	-0.0026
756.716	-0.0029
756.958	-0.0026
757.199	-0.0018
757.44	-0.0014
757.682	-0.0021
757.923	-0.0004
758.164	0.0001
758.405	-0.0001
758.646	0.0014
758.887	0.0009
759.128	0.0019
759.369	0.0012
759.609	0.0013
759.85	0.0018
760.091	0.0017
760.331	0.0009
760.572	-0.001
760.812	-0.0011
761.053	-0.0007
761.293	0.0002
761.533	0.0002
761.774	0.0011
762.014	0.0013
762.254	0.0003
762.494	-0.0008
762.734	-0.0003
762.974	-0.0018
763.214	-0.0016
763.454	-0.0019
763.694	-0.0023
763.933	-0.003
764.173	-0.0044
764.413	-0.0052
764.652	-0.0053
764.892	-0.0045
765.131	-0.0044
765.371	-0.0037
765.61	-0.0034
765.849	-0.0039
766.089	-0.0021
766.328	-0.002
766.567	-0.0027
766.806	-0.0024
767.045	-0.0021
767.284	-0.0025
767.523	-0.0025
767.762	-0.0028
768.001	-0.0026
768.239	-0.0023
768.478	-0.0019
768.717	-0.0021
768.955	-0.0013
769.194	-0.0016
769.432	-0.0001
769.671	0.0009
769.909	0.0006
770.148	0.001
770.386	0.0009
770.624	0.0018
770.862	0.0018
771.1	0.0026
771.338	0.0013
771.576	0.0016
771.814	0.0021
772.052	0.0026
772.29	0.003
772.528	0.0042
772.765	0.0043
773.003	0.0052
773.24	0.0044
773.478	0.0028
773.716	0.0036
773.953	0.0028
774.19	0.0025
774.428	0.0037
774.665	0.0035
774.902	0.0042
775.139	0.004
775.376	0.0034
775.613	0.0033
775.85	0.0025
776.087	0.0019
776.324	0.0017
776.561	0.0017
776.798	0.0007
777.034	0.0007
777.271	0.0018
777.508	0.0026
777.744	0.0033
777.981	0.0041
778.217	0.0044
778.454	0.0025
778.69	0.0015
778.926	0.0006
779.162	0.0012
779.399	0.0007
779.635	0.0004
779.871	0.0004
780.107	0.0008
780.343	-0.0003
780.579	0.0005
780.814	-0.0003
781.05	-0.0008
781.286	-0.0013
781.522	-0.0009
781.757	-0.0002
781.993	0.0005
782.228	-0.0004
782.464	0.0002
782.699	-0.0005
782.934	-0.0011
783.17	-0.0012
783.405	-0.0012
783.64	-0.0016
783.875	-0.0024
784.11	-0.0024
784.345	-0.0016
784.58	-0.0007
784.815	-0.0001
785.05	-0.0013
785.285	-0.0026
785.52	-0.0024
785.754	-0.0033
785.989	-0.0037
786.223	-0.0048
786.458	-0.0047
786.692	-0.0027
786.927	-0.0029
787.161	-0.0021
787.396	-0.0027
787.63	-0.0027
787.864	-0.0042
788.098	-0.0049
788.332	-0.0038
788.566	-0.004
788.8	-0.0036
789.034	-0.0028
789.268	-0.003
789.502	-0.0021
789.736	-0.0023
789.969	-0.0022
790.203	-0.0025
790.437	-0.0039
790.67	-0.0047
790.904	-0.0053
791.137	-0.0063
791.37	-0.0066
791.604	-0.0076
791.837	-0.007
792.07	-0.0055
792.303	-0.0062
792.537	-0.0051
792.77	-0.0054
793.003	-0.0052
793.236	-0.005
793.469	-0.0052
793.701	-0.0032
793.934	-0.0022
794.167	-0.0024
794.4	-0.0024
794.632	-0.0012
794.865	-0.0008
795.097	-0.0005
795.33	-0.0026
795.562	-0.0016
795.795	-0.0003
796.027	0.0006
796.259	0
796.491	0.0002
796.724	-0.0003
796.956	0.0009
797.188	0.0011
797.42	0.0009
797.652	-0.0001
797.883	0.0012
798.115	0.0019
798.347	0.0012
798.579	0.0032
798.81	0.0036
799.042	0.0037
799.274	0.0024
799.505	0.0014
799.737	0.0016
799.968	0.0003
800.199	-0.0007
800.431	-0.0006
800.662	-0.0011
800.893	-0.0007
801.124	-0.0015
801.355	-0.0015
801.586	-0.0009
801.817	-0.0018
802.048	-0.0039
802.279	-0.003
802.51	-0.0015
802.741	-0.0003
802.971	0.0003
803.202	0.0006
803.433	0.0012
803.663	0
803.894	-0.0012
804.124	-0.0016
804.354	-0.0005
804.585	-0.0013
804.815	-0.0013
805.045	-0.0015
805.275	-0.0019
805.506	-0.091
805.736	0.0296
805.966	0.194
806.196	0.3437
