Data from 04 0.5 mM K2Cr2O7 0.3 mM BQDS 1 M H2SO4 5 min_ 29_min_gap_Absorbance_0017.txt Node
Date: Tue Dec 14 14:07:56 EST 2021
User: kwabilab-user
Spectrometer: HDX00518
Trigger mode: 0
Integration Time (sec): 5.000000E-2
Scans to average: 50
Nonlinearity correction enabled: false
Boxcar width: 0
Storing dark spectrum: false
XAxis mode: Wavelengths
Number of Pixels in Spectrum: 2068
>>>>>Begin Spectral Data<<<<<
195.27	0.2256
195.642	0.4444
196.014	0.218
196.386	0.2195
196.758	0.0876
197.129	0.0832
197.501	0.0743
197.872	0.0924
198.244	0.1013
198.615	0.0869
198.986	0.0947
199.357	0.0944
199.728	0.0984
200.099	0.1015
200.47	0.0937
200.841	0.1126
201.212	0.0976
201.582	0.0826
201.953	0.0925
202.323	0.0872
202.694	0.0868
203.064	0.0924
203.434	0.113
203.804	0.0981
204.174	0.079
204.544	0.1101
204.914	0.0929
205.284	0.0983
205.653	0.0861
206.023	0.0926
206.393	0.0721
206.762	0.0825
207.131	0.0939
207.501	0.1017
207.87	0.0877
208.239	0.1045
208.608	0.076
208.977	0.0944
209.346	0.1141
209.715	0.1162
210.083	0.0909
210.452	0.1012
210.82	0.0952
211.189	0.0955
211.557	0.1012
211.925	0.1266
212.294	0.1104
212.662	0.1208
213.03	0.1006
213.398	0.0985
213.766	0.1127
214.133	0.0938
214.501	0.1176
214.869	0.1025
215.236	0.0915
215.604	0.0972
215.971	0.1314
216.338	0.1171
216.705	0.1122
217.072	0.1241
217.439	0.1215
217.806	0.1302
218.173	0.1326
218.54	0.1595
218.907	0.1455
219.273	0.1595
219.64	0.1783
220.006	0.1998
220.373	0.1875
220.739	0.2097
221.105	0.2487
221.471	0.2634
221.837	0.2735
222.203	0.2987
222.569	0.3286
222.935	0.3467
223.3	0.3456
223.666	0.39
224.031	0.4168
224.397	0.4263
224.762	0.4763
225.127	0.5059
225.493	0.5083
225.858	0.524
226.223	0.5551
226.588	0.5953
226.952	0.599
227.317	0.6472
227.682	0.6571
228.046	0.646
228.411	0.68
228.775	0.698
229.14	0.7031
229.504	0.7155
229.868	0.744
230.232	0.7346
230.596	0.7577
230.96	0.7761
231.324	0.7637
231.688	0.7685
232.052	0.7989
232.415	0.7918
232.779	0.7939
233.142	0.8037
233.505	0.8061
233.869	0.823
234.232	0.8173
234.595	0.7932
234.958	0.7928
235.321	0.798
235.684	0.7796
236.047	0.782
236.409	0.7684
236.772	0.7773
237.134	0.7719
237.497	0.768
237.859	0.7705
238.222	0.7777
238.584	0.7587
238.946	0.7575
239.308	0.7513
239.67	0.7451
240.032	0.7398
240.393	0.7351
240.755	0.7273
241.117	0.7285
241.478	0.7214
241.84	0.725
242.201	0.711
242.562	0.7055
242.924	0.699
243.285	0.6919
243.646	0.6907
244.007	0.6862
244.368	0.6873
244.728	0.6825
245.089	0.686
245.45	0.6711
245.81	0.6703
246.171	0.6687
246.531	0.6675
246.891	0.6566
247.252	0.66
247.612	0.6529
247.972	0.6537
248.332	0.6508
248.692	0.6534
249.051	0.6479
249.411	0.6402
249.771	0.6387
250.13	0.6365
250.49	0.6312
250.849	0.6348
251.208	0.6344
251.568	0.6353
251.927	0.6321
252.286	0.6261
252.645	0.6299
253.004	0.6246
253.363	0.6208
253.721	0.6152
254.08	0.6195
254.439	0.6093
254.797	0.6136
255.155	0.6141
255.514	0.6123
255.872	0.6143
256.23	0.6072
256.588	0.6068
256.946	0.6066
257.304	0.6061
257.662	0.6079
258.02	0.5995
258.377	0.5977
258.735	0.5984
259.093	0.5999
259.45	0.5973
259.807	0.5989
260.165	0.5913
260.522	0.5959
260.879	0.5919
261.236	0.5886
261.593	0.5879
261.95	0.5896
262.306	0.5849
262.663	0.5835
263.02	0.5824
263.376	0.5789
263.733	0.5748
264.089	0.5747
264.445	0.5712
264.802	0.57
265.158	0.5687
265.514	0.5653
265.87	0.5625
266.226	0.5638
266.581	0.5629
266.937	0.5631
267.293	0.5566
267.648	0.5566
268.004	0.5518
268.359	0.5541
268.714	0.5493
269.07	0.5485
269.425	0.5424
269.78	0.5435
270.135	0.5401
270.49	0.5426
270.844	0.5331
271.199	0.5354
271.554	0.5302
271.908	0.5298
272.263	0.529
272.617	0.5211
272.972	0.519
273.326	0.5215
273.68	0.5153
274.034	0.5136
274.388	0.5068
274.742	0.5096
275.096	0.5069
275.45	0.5008
275.803	0.4983
276.157	0.499
276.51	0.4918
276.864	0.4912
277.217	0.4867
277.571	0.4858
277.924	0.4807
278.277	0.4727
278.63	0.4753
278.983	0.4675
279.336	0.4647
279.688	0.4642
280.041	0.4562
280.394	0.4535
280.746	0.4494
281.099	0.4484
281.451	0.4463
281.803	0.4409
282.156	0.4336
282.508	0.4323
282.86	0.4289
283.212	0.4267
283.564	0.4221
283.916	0.414
284.267	0.4108
284.619	0.4089
284.971	0.4063
285.322	0.4031
285.673	0.3981
286.025	0.3938
286.376	0.39
286.727	0.3847
287.078	0.3817
287.429	0.3797
287.78	0.3748
288.131	0.3683
288.482	0.3643
288.833	0.3612
289.183	0.3582
289.534	0.3531
289.884	0.351
290.235	0.3447
290.585	0.3407
290.935	0.3364
291.285	0.3337
291.635	0.3286
291.985	0.3253
292.335	0.3198
292.685	0.3172
293.035	0.3122
293.384	0.3082
293.734	0.305
294.083	0.3026
294.433	0.2987
294.782	0.2929
295.131	0.2897
295.48	0.2853
295.829	0.2811
296.179	0.2778
296.527	0.2748
296.876	0.2695
297.225	0.2677
297.574	0.2631
297.922	0.2603
298.271	0.2565
298.619	0.2529
298.968	0.249
299.316	0.2461
299.664	0.2425
300.012	0.2407
300.36	0.2347
300.708	0.2316
301.056	0.2306
301.404	0.2261
301.752	0.2233
302.099	0.2207
302.447	0.2187
302.794	0.215
303.142	0.2117
303.489	0.2094
303.836	0.2064
304.183	0.2038
304.531	0.2023
304.878	0.2002
305.224	0.1986
305.571	0.1975
305.918	0.1945
306.265	0.1927
306.611	0.1911
306.958	0.1897
307.304	0.1869
307.651	0.1865
307.997	0.1836
308.343	0.1834
308.689	0.1821
309.035	0.1798
309.381	0.179
309.727	0.1778
310.073	0.1762
310.419	0.1754
310.764	0.1754
311.11	0.1758
311.455	0.1738
311.801	0.1742
312.146	0.1721
312.491	0.173
312.837	0.1718
313.182	0.1711
313.527	0.1706
313.872	0.1709
314.216	0.1695
314.561	0.1698
314.906	0.1696
315.251	0.17
315.595	0.1705
315.94	0.1694
316.284	0.171
316.628	0.1708
316.972	0.1706
317.317	0.1704
317.661	0.1712
318.005	0.1706
318.348	0.1716
318.692	0.1721
319.036	0.1735
319.38	0.1734
319.723	0.1738
320.067	0.1742
320.41	0.1751
320.754	0.1762
321.097	0.1772
321.44	0.1777
321.783	0.1783
322.126	0.1797
322.469	0.1806
322.812	0.182
323.155	0.183
323.498	0.1839
323.84	0.1848
324.183	0.1853
324.525	0.1872
324.868	0.1875
325.21	0.1891
325.552	0.1906
325.894	0.1915
326.236	0.1926
326.578	0.1932
326.92	0.1947
327.262	0.1965
327.604	0.1972
327.946	0.1987
328.287	0.2015
328.629	0.2025
328.97	0.2031
329.312	0.2043
329.653	0.2048
329.994	0.2072
330.335	0.208
330.676	0.2104
331.017	0.2116
331.358	0.213
331.699	0.214
332.04	0.2161
332.38	0.2168
332.721	0.2186
333.061	0.2206
333.402	0.2214
333.742	0.223
334.083	0.2237
334.423	0.2251
334.763	0.2267
335.103	0.2274
335.443	0.2294
335.783	0.2308
336.123	0.2313
336.462	0.2321
336.802	0.2331
337.141	0.234
337.481	0.2355
337.82	0.2362
338.16	0.2384
338.499	0.2385
338.838	0.2396
339.177	0.2409
339.516	0.2422
339.855	0.2433
340.194	0.2442
340.533	0.2452
340.872	0.2455
341.21	0.2463
341.549	0.2481
341.887	0.2487
342.226	0.2487
342.564	0.2499
342.902	0.2504
343.24	0.2509
343.578	0.2511
343.916	0.2518
344.254	0.2516
344.592	0.2522
344.93	0.2523
345.268	0.2526
345.605	0.2524
345.943	0.2524
346.28	0.2533
346.618	0.2534
346.955	0.253
347.292	0.2529
347.629	0.2531
347.966	0.2539
348.303	0.2534
348.64	0.253
348.977	0.2535
349.314	0.2533
349.65	0.2545
349.987	0.253
350.324	0.2539
350.66	0.2526
350.996	0.2521
351.333	0.2513
351.669	0.2516
352.005	0.2504
352.341	0.2494
352.677	0.2491
353.013	0.2471
353.349	0.2462
353.685	0.2463
354.02	0.2446
354.356	0.2451
354.691	0.2428
355.027	0.2424
355.362	0.2407
355.697	0.2399
356.033	0.2384
356.368	0.2378
356.703	0.2369
357.038	0.2365
357.373	0.2347
357.707	0.2341
358.042	0.2334
358.377	0.2323
358.711	0.2316
359.046	0.2306
359.38	0.2288
359.715	0.2282
360.049	0.226
360.383	0.2258
360.717	0.2242
361.051	0.2225
361.385	0.2209
361.719	0.2195
362.053	0.2179
362.387	0.2157
362.72	0.215
363.054	0.2127
363.387	0.2108
363.721	0.2098
364.054	0.2077
364.387	0.2052
364.721	0.204
365.054	0.2026
365.387	0.2016
365.72	0.1977
366.053	0.1968
366.385	0.1959
366.718	0.1947
367.051	0.1931
367.383	0.1908
367.716	0.1896
368.048	0.1887
368.381	0.1872
368.713	0.1857
369.045	0.1842
369.377	0.1831
369.709	0.1809
370.041	0.1794
370.373	0.1788
370.705	0.1762
371.037	0.1759
371.368	0.1733
371.7	0.1716
372.031	0.1709
372.363	0.1689
372.694	0.1667
373.025	0.1656
373.356	0.1628
373.688	0.1605
374.019	0.159
374.35	0.1573
374.68	0.1547
375.011	0.1528
375.342	0.1509
375.673	0.149
376.003	0.147
376.334	0.145
376.664	0.145
376.995	0.142
377.325	0.1406
377.655	0.1389
377.985	0.1376
378.315	0.1349
378.645	0.1344
378.975	0.1326
379.305	0.1322
379.635	0.1305
379.964	0.1288
380.294	0.1284
380.623	0.1276
380.953	0.1254
381.282	0.1238
381.611	0.1226
381.941	0.1219
382.27	0.12
382.599	0.1194
382.928	0.1179
383.257	0.1164
383.585	0.1145
383.914	0.113
384.243	0.1114
384.571	0.1089
384.9	0.1074
385.228	0.1068
385.557	0.1045
385.885	0.1024
386.213	0.1013
386.541	0.0992
386.869	0.098
387.197	0.0966
387.525	0.0949
387.853	0.0936
388.181	0.0918
388.508	0.0909
388.836	0.0895
389.164	0.0884
389.491	0.0871
389.818	0.0862
390.146	0.0844
390.473	0.0837
390.8	0.0824
391.127	0.0809
391.454	0.0797
391.781	0.079
392.108	0.0782
392.435	0.0779
392.761	0.0769
393.088	0.0754
393.415	0.0745
393.741	0.074
394.067	0.0729
394.394	0.0722
394.72	0.072
395.046	0.0701
395.372	0.0686
395.698	0.0686
396.024	0.0674
396.35	0.0665
396.676	0.0659
397.001	0.0648
397.327	0.0646
397.653	0.0636
397.978	0.0627
398.303	0.0621
398.629	0.0611
398.954	0.0601
399.279	0.0599
399.604	0.0589
399.929	0.0573
400.254	0.0567
400.579	0.056
400.904	0.0557
401.229	0.055
401.553	0.0546
401.878	0.0542
402.202	0.0537
402.527	0.0532
402.851	0.0521
403.175	0.0523
403.5	0.0512
403.824	0.0509
404.148	0.051
404.472	0.0508
404.796	0.0503
405.119	0.0496
405.443	0.0494
405.767	0.0498
406.09	0.0487
406.414	0.048
406.737	0.0481
407.061	0.0477
407.384	0.0482
407.707	0.0477
408.03	0.0471
408.353	0.0467
408.676	0.0471
408.999	0.0471
409.322	0.0474
409.645	0.046
409.968	0.0466
410.29	0.0463
410.613	0.0456
410.935	0.046
411.258	0.045
411.58	0.0458
411.902	0.046
412.224	0.0451
412.546	0.0453
412.868	0.0455
413.19	0.0452
413.512	0.0453
413.834	0.0456
414.156	0.0461
414.477	0.0456
414.799	0.0461
415.121	0.0448
415.442	0.0449
415.763	0.0464
416.085	0.0456
416.406	0.0455
416.727	0.0447
417.048	0.0451
417.369	0.0449
417.69	0.0458
418.011	0.0455
418.331	0.0452
418.652	0.0453
418.973	0.0451
419.293	0.0447
419.614	0.0447
419.934	0.0447
420.254	0.0449
420.574	0.0458
420.895	0.0453
421.215	0.0455
421.535	0.045
421.855	0.0448
422.174	0.0447
422.494	0.0449
422.814	0.0447
423.134	0.046
423.453	0.0453
423.773	0.045
424.092	0.045
424.411	0.0457
424.731	0.0457
425.05	0.0453
425.369	0.046
425.688	0.0455
426.007	0.0457
426.326	0.0446
426.644	0.045
426.963	0.0455
427.282	0.0454
427.6	0.0451
427.919	0.0448
428.237	0.0455
428.556	0.0454
428.874	0.0451
429.192	0.0463
429.51	0.0455
429.828	0.045
430.146	0.0455
430.464	0.0456
430.782	0.0456
431.1	0.0454
431.418	0.0461
431.735	0.0459
432.053	0.0455
432.37	0.046
432.688	0.0462
433.005	0.0449
433.322	0.0456
433.639	0.0458
433.957	0.045
434.274	0.0453
434.591	0.0455
434.907	0.0459
435.224	0.046
435.541	0.0463
435.858	0.0455
436.174	0.046
436.491	0.0457
436.807	0.045
437.124	0.0458
437.44	0.0457
437.756	0.0449
438.072	0.045
438.388	0.0455
438.704	0.0448
439.02	0.0459
439.336	0.0453
439.652	0.045
439.968	0.0448
440.283	0.0452
440.599	0.0463
440.914	0.0454
441.23	0.0453
441.545	0.045
441.86	0.045
442.175	0.0453
442.491	0.0451
442.806	0.0444
443.121	0.0443
443.435	0.044
443.75	0.0447
444.065	0.0452
444.38	0.0449
444.694	0.0445
445.009	0.0453
445.323	0.0448
445.638	0.0444
445.952	0.0445
446.266	0.0443
446.58	0.0445
446.894	0.0442
447.208	0.0432
447.522	0.0432
447.836	0.0435
448.15	0.0437
448.464	0.0429
448.777	0.0432
449.091	0.0437
449.404	0.0435
449.718	0.0434
450.031	0.0426
450.345	0.0433
450.658	0.0431
450.971	0.0443
451.284	0.0433
451.597	0.0423
451.91	0.0425
452.223	0.0431
452.535	0.0431
452.848	0.0421
453.161	0.0421
453.473	0.0413
453.786	0.0417
454.098	0.0419
454.411	0.042
454.723	0.0416
455.035	0.0411
455.347	0.0401
455.659	0.0405
455.971	0.0416
456.283	0.0407
456.595	0.0406
456.907	0.0406
457.218	0.0398
457.53	0.0399
457.841	0.0395
458.153	0.0399
458.464	0.0393
458.776	0.038
459.087	0.0389
459.398	0.0383
459.709	0.0387
460.02	0.0392
460.331	0.0386
460.642	0.0383
460.953	0.0383
461.263	0.0386
461.574	0.0381
461.885	0.038
462.195	0.0381
462.506	0.0372
462.816	0.0368
463.126	0.0366
463.437	0.0368
463.747	0.0365
464.057	0.0376
464.367	0.0361
464.677	0.0364
464.987	0.0356
465.296	0.036
465.606	0.0361
465.916	0.036
466.225	0.0353
466.535	0.0357
466.844	0.0351
467.154	0.035
467.463	0.0342
467.772	0.0337
468.081	0.0336
468.39	0.0331
468.699	0.0337
469.008	0.033
469.317	0.0334
469.626	0.0331
469.935	0.0331
470.243	0.0328
470.552	0.0325
470.86	0.0322
471.169	0.0326
471.477	0.0316
471.785	0.0312
472.093	0.0316
472.402	0.0315
472.71	0.0309
473.018	0.0309
473.326	0.0306
473.633	0.0299
473.941	0.0312
474.249	0.0303
474.556	0.0308
474.864	0.0298
475.171	0.03
475.479	0.0292
475.786	0.0296
476.094	0.0284
476.401	0.0291
476.708	0.0282
477.015	0.0287
477.322	0.0276
477.629	0.0266
477.936	0.0276
478.242	0.0268
478.549	0.0272
478.856	0.0276
479.162	0.0259
479.469	0.0271
479.775	0.026
480.081	0.0268
480.388	0.0265
480.694	0.0258
481	0.0259
481.306	0.0257
481.612	0.0253
481.918	0.0246
482.224	0.024
482.53	0.0255
482.835	0.0251
483.141	0.024
483.446	0.0249
483.752	0.0241
484.057	0.0238
484.363	0.0228
484.668	0.0234
484.973	0.0234
485.278	0.0228
485.583	0.0221
485.888	0.0227
486.193	0.0222
486.498	0.0229
486.803	0.0227
487.107	0.0213
487.412	0.0208
487.717	0.0213
488.021	0.0208
488.325	0.0218
488.63	0.0209
488.934	0.0212
489.238	0.0193
489.542	0.0202
489.846	0.0199
490.15	0.0205
490.454	0.0197
490.758	0.0191
491.062	0.0188
491.366	0.0186
491.669	0.0185
491.973	0.0196
492.276	0.0197
492.58	0.0192
492.883	0.0185
493.186	0.0181
493.489	0.0177
493.792	0.0189
494.096	0.0181
494.399	0.0176
494.701	0.016
495.004	0.017
495.307	0.0168
495.61	0.0156
495.912	0.0169
496.215	0.0163
496.517	0.0158
496.82	0.0157
497.122	0.0163
497.424	0.0149
497.727	0.0159
498.029	0.0147
498.331	0.0155
498.633	0.0149
498.935	0.0145
499.237	0.0139
499.538	0.0145
499.84	0.015
500.142	0.0149
500.443	0.0145
500.745	0.014
501.046	0.0131
501.348	0.0143
501.649	0.0139
501.95	0.0135
502.251	0.0135
502.552	0.0135
502.853	0.013
503.154	0.013
503.455	0.0124
503.756	0.0126
504.057	0.0117
504.357	0.012
504.658	0.0119
504.958	0.0122
505.259	0.0125
505.559	0.0121
505.859	0.0125
506.16	0.0117
506.46	0.0108
506.76	0.0109
507.06	0.0116
507.36	0.0124
507.66	0.0122
507.96	0.0101
508.259	0.0109
508.559	0.0109
508.859	0.0118
509.158	0.0105
509.457	0.01
509.757	0.0095
510.056	0.01
510.355	0.0111
510.655	0.0099
510.954	0.0095
511.253	0.0106
511.552	0.0087
511.851	0.0097
512.149	0.0096
512.448	0.009
512.747	0.0088
513.045	0.0084
513.344	0.0086
513.642	0.0099
513.941	0.0103
514.239	0.0068
514.537	0.0088
514.836	0.0092
515.134	0.0089
515.432	0.0085
515.73	0.0099
516.028	0.0094
516.326	0.0085
516.623	0.0085
516.921	0.0074
517.219	0.0085
517.516	0.0085
517.814	0.0086
518.111	0.0079
518.409	0.008
518.706	0.0067
519.003	0.0077
519.3	0.0073
519.597	0.0073
519.894	0.0077
520.191	0.0074
520.488	0.0078
520.785	0.0079
521.082	0.0076
521.378	0.0068
521.675	0.0081
521.971	0.0073
522.268	0.0067
522.564	0.0064
522.861	0.0076
523.157	0.0065
523.453	0.0068
523.749	0.0056
524.045	0.0069
524.341	0.0065
524.637	0.0058
524.933	0.0059
525.229	0.0065
525.524	0.0061
525.82	0.0066
526.115	0.007
526.411	0.0066
526.706	0.0071
527.002	0.0064
527.297	0.0054
527.592	0.0069
527.887	0.0059
528.182	0.0057
528.477	0.0062
528.772	0.0066
529.067	0.0054
529.362	0.0061
529.657	0.0071
529.951	0.0058
530.246	0.0058
530.54	0.0061
530.835	0.0069
531.129	0.0055
531.423	0.0068
531.718	0.0056
532.012	0.0054
532.306	0.0047
532.6	0.0054
532.894	0.004
533.188	0.0062
533.482	0.0048
533.775	0.0059
534.069	0.0052
534.363	0.0058
534.656	0.0057
534.95	0.0057
535.243	0.0049
535.536	0.0051
535.83	0.0044
536.123	0.0047
536.416	0.0053
536.709	0.0053
537.002	0.0054
537.295	0.0053
537.588	0.0052
537.881	0.0062
538.173	0.0055
538.466	0.0049
538.759	0.006
539.051	0.0056
539.344	0.004
539.636	0.0048
539.928	0.005
540.22	0.0058
540.513	0.0049
540.805	0.0044
541.097	0.0049
541.389	0.0045
541.681	0.0063
541.972	0.0063
542.264	0.0058
542.556	0.0063
542.847	0.0049
543.139	0.0056
543.431	0.0047
543.722	0.0041
544.013	0.0052
544.305	0.0052
544.596	0.0045
544.887	0.0046
545.178	0.0043
545.469	0.0037
545.76	0.0054
546.051	0.0041
546.342	0.0049
546.632	0.0045
546.923	0.0048
547.214	0.0052
547.504	0.0054
547.795	0.005
548.085	0.0048
548.375	0.0061
548.666	0.0066
548.956	0.0048
549.246	0.0048
549.536	0.0051
549.826	0.0057
550.116	0.0047
550.406	0.0066
550.695	0.0056
550.985	0.0049
551.275	0.0048
551.564	0.0055
551.854	0.0048
552.143	0.0055
552.433	0.0042
552.722	0.0054
553.011	0.0063
553.3	0.006
553.589	0.0046
553.879	0.0042
554.167	0.0042
554.456	0.0044
554.745	0.0052
555.034	0.005
555.323	0.0042
555.611	0.0036
555.9	0.0038
556.188	0.004
556.477	0.0051
556.765	0.0049
557.053	0.0046
557.342	0.0037
557.63	0.003
557.918	0.0048
558.206	0.0057
558.494	0.0049
558.782	0.0062
559.069	0.0049
559.357	0.0071
559.645	0.0061
559.932	0.0052
560.22	0.0037
560.507	0.0054
560.795	0.006
561.082	0.0065
561.37	0.0062
561.657	0.0063
561.944	0.0045
562.231	0.0051
562.518	0.0067
562.805	0.0052
563.092	0.0052
563.379	0.0065
563.665	0.0049
563.952	0.0053
564.239	0.0055
564.525	0.0053
564.811	0.0058
565.098	0.0061
565.384	0.005
565.67	0.0066
565.957	0.0061
566.243	0.0065
566.529	0.0044
566.815	0.005
567.101	0.0059
567.387	0.0064
567.672	0.0051
567.958	0.0058
568.244	0.005
568.529	0.0059
568.815	0.0053
569.1	0.004
569.386	0.0045
569.671	0.0053
569.956	0.0056
570.242	0.005
570.527	0.0062
570.812	0.0052
571.097	0.0052
571.382	0.0042
571.666	0.0052
571.951	0.0048
572.236	0.0051
572.521	0.0062
572.805	0.0055
573.09	0.0045
573.374	0.0046
573.659	0.0048
573.943	0.0048
574.227	0.0053
574.511	0.0049
574.795	0.0054
575.079	0.0056
575.363	0.0052
575.647	0.0054
575.931	0.0053
576.215	0.0061
576.499	0.0058
576.782	0.0054
577.066	0.0063
577.349	0.0054
577.633	0.0059
577.916	0.0043
578.2	0.0051
578.483	0.0048
578.766	0.0053
579.049	0.005
579.332	0.005
579.615	0.0054
579.898	0.0052
580.181	0.0052
580.464	0.0042
580.746	0.0039
581.029	0.005
581.312	0.0035
581.594	0.0034
581.877	0.0046
582.159	0.0048
582.441	0.0048
582.724	0.0043
583.006	0.005
583.288	0.0045
583.57	0.0044
583.852	0.006
584.134	0.005
584.416	0.0048
584.697	0.005
584.979	0.0041
585.261	0.0045
585.542	0.0038
585.824	0.0045
586.105	0.0038
586.387	0.0046
586.668	0.0047
586.949	0.0046
587.231	0.0048
587.512	0.0054
587.793	0.0051
588.074	0.005
588.355	0.0045
588.636	0.005
588.916	0.0048
589.197	0.0047
589.478	0.0051
589.758	0.0054
590.039	0.0044
590.319	0.0052
590.6	0.0036
590.88	0.0052
591.16	0.0053
591.441	0.0055
591.721	0.006
592.001	0.0056
592.281	0.0054
592.561	0.0038
592.841	0.0036
593.12	0.004
593.4	0.005
593.68	0.0044
593.959	0.0054
594.239	0.0047
594.518	0.0048
594.798	0.004
595.077	0.0051
595.356	0.0045
595.636	0.0047
595.915	0.0057
596.194	0.0054
596.473	0.0067
596.752	0.0053
597.031	0.0049
597.31	0.0062
597.588	0.005
597.867	0.0046
598.146	0.0054
598.424	0.0045
598.703	0.005
598.981	0.0048
599.259	0.0046
599.538	0.0052
599.816	0.0053
600.094	0.0046
600.372	0.0047
600.65	0.0052
600.928	0.0046
601.206	0.0041
601.484	0.0047
601.762	0.0053
602.04	0.0058
602.317	0.0054
602.595	0.005
602.872	0.0055
603.15	0.0054
603.427	0.0049
603.704	0.0054
603.982	0.0039
604.259	0.0045
604.536	0.0046
604.813	0.0061
605.09	0.0042
605.367	0.005
605.644	0.0041
605.921	0.0048
606.197	0.0049
606.474	0.0043
606.751	0.0044
607.027	0.0042
607.304	0.004
607.58	0.0041
607.856	0.0047
608.133	0.0047
608.409	0.0043
608.685	0.0046
608.961	0.0046
609.237	0.0042
609.513	0.0037
609.789	0.004
610.065	0.0031
610.341	0.0042
610.616	0.0042
610.892	0.0045
611.167	0.0032
611.443	0.0033
611.718	0.0034
611.994	0.0028
612.269	0.0034
612.544	0.004
612.819	0.0033
613.095	0.0032
613.37	0.0023
613.645	0.0031
613.919	0.002
614.194	0.0022
614.469	0.0019
614.744	0.0023
615.019	0.0019
615.293	0.0028
615.568	0.0035
615.842	0.0031
616.116	0.0034
616.391	0.0025
616.665	0.0028
616.939	0.0032
617.213	0.0037
617.488	0.0041
617.762	0.0038
618.035	0.0039
618.309	0.0041
618.583	0.0045
618.857	0.0055
619.131	0.0041
619.404	0.0045
619.678	0.0046
619.951	0.0034
620.225	0.003
620.498	0.0042
620.771	0.0042
621.045	0.003
621.318	0.0037
621.591	0.0036
621.864	0.0016
622.137	0.003
622.41	0.0032
622.683	0.0034
622.956	0.0028
623.228	0.004
623.501	0.0036
623.774	0.003
624.046	0.0037
624.319	0.0027
624.591	0.0024
624.863	0.0036
625.136	0.0047
625.408	0.0043
625.68	0.0038
625.952	0.0043
626.224	0.0047
626.496	0.0029
626.768	0.0043
627.04	0.0045
627.311	0.0049
627.583	0.0025
627.855	0.0028
628.126	0.004
628.398	0.0035
628.669	0.0038
628.941	0.0017
629.212	0.0044
629.483	0.0043
629.755	0.0041
630.026	0.0038
630.297	0.0047
630.568	0.0055
630.839	0.0047
631.11	0.0052
631.38	0.0047
631.651	0.0049
631.922	0.0032
632.192	0.0023
632.463	0.0018
632.733	0.0034
633.004	0.003
633.274	0.0036
633.545	0.004
633.815	0.003
634.085	0.0051
634.355	0.0039
634.625	0.0042
634.895	0.0022
635.165	0.0032
635.435	0.0026
635.705	0.0023
635.974	0.003
636.244	0.0028
636.514	0.0031
636.783	0.0028
637.053	0.0031
637.322	0.002
637.591	0.0015
637.861	0.003
638.13	0.0025
638.399	0.0031
638.668	0.0032
638.937	0.0029
639.206	0.0031
639.475	0.0036
639.744	0.0013
640.013	-0.0003
640.281	0.0006
640.55	0.0015
640.819	0.002
641.087	0.0023
641.356	0.002
641.624	0.0032
641.892	0.0023
642.161	0.0033
642.429	0.0025
642.697	0.0017
642.965	0.0023
643.233	0.0022
643.501	0.0014
643.769	0.0016
644.037	0.0006
644.305	0.0008
644.572	0.0003
644.84	-0.0001
645.108	-0.0009
645.375	-0.001
645.643	-0.0004
645.91	0.0001
646.177	0.0002
646.445	0.0002
646.712	0.0011
646.979	0.0018
647.246	0.0006
647.513	0.0013
647.78	0.0012
648.047	0.0017
648.314	0.0005
648.58	0.0021
648.847	0.0015
649.114	0.0019
649.38	0.0025
649.647	0.0019
649.913	0.0031
650.18	0.0025
650.446	0.0006
650.712	0.0018
650.978	-0.0005
651.245	-0.0019
651.511	-0.0012
651.777	-0.0009
652.043	0.0003
652.309	-0.001
652.574	0.0008
652.84	0.0006
653.106	0.0005
653.371	0.0003
653.637	0.0014
653.903	0.0021
654.168	0.0017
654.433	0.0012
654.699	0.0021
654.964	0.002
655.229	0.0007
655.494	-0.0008
655.759	-0.0017
656.024	0.0011
656.289	-0
656.554	0.0015
656.819	0.0003
657.084	0.0008
657.349	-0
657.613	0.0005
657.878	0.0006
658.142	0.0009
658.407	0.0016
658.671	0.0009
658.936	0.0026
659.2	0.0025
659.464	0.0024
659.728	0.0014
659.992	0.0022
660.256	0.0013
660.52	0.0009
660.784	-0.0001
661.048	0
661.312	-0.0007
661.575	-0.0012
661.839	-0.0018
662.103	-0.0008
662.366	0.0004
662.63	-0.0016
662.893	0.0011
663.156	0
663.42	0.0012
663.683	0.0019
663.946	0.0014
664.209	0.0016
664.472	0.0016
664.735	0.0009
664.998	0.0027
665.261	0.0018
665.524	0.0021
665.786	0.0012
666.049	0.0002
666.312	-0
666.574	-0.0003
666.837	-0.0005
667.099	0.0006
667.361	0.0001
667.624	0.0011
667.886	0.0012
668.148	0.0008
668.41	0.0013
668.672	0.0013
668.934	0.0017
669.196	0.0026
669.458	0.0002
669.72	-0
669.982	0.0001
670.243	0
670.505	-0.0013
670.766	-0
671.028	-0.0001
671.289	0.001
671.551	0.0009
671.812	0.0012
672.073	0.0018
672.334	0.0024
672.596	0.0012
672.857	0.0015
673.118	0.0003
673.379	0.0006
673.639	0.0014
673.9	0.002
674.161	0.001
674.422	-0.0006
674.682	-0.001
674.943	-0.0005
675.203	-0.0006
675.464	-0.0011
675.724	-0.0013
675.985	-0.001
676.245	0.0002
676.505	0.0009
676.765	0.0006
677.025	0.0024
677.285	0.0016
677.545	0.002
677.805	0.0008
678.065	0.0007
678.325	0.0002
678.585	0.0009
678.844	-0.0007
679.104	-0.0012
679.363	-0.0006
679.623	-0.0001
679.882	-0.0003
680.142	0.0009
680.401	0.0006
680.66	0.0008
680.919	0.0008
681.178	0.0014
681.437	0.0009
681.696	0.0001
681.955	0.0002
682.214	0.0003
682.473	-0.0007
682.732	-0.0004
682.99	-0.0005
683.249	-0
683.508	0.0002
683.766	0.0014
684.024	0.0019
684.283	0.0018
684.541	0.0022
684.799	0.0021
685.058	0.0012
685.316	0.0013
685.574	0.0012
685.832	0.0008
686.09	0.0014
686.348	0
686.606	0.0003
686.863	0.0016
687.121	0.0011
687.379	0.001
687.636	0.0003
687.894	0.0003
688.151	0
688.409	-0.0003
688.666	-0.0021
688.923	-0.002
689.181	-0.0031
689.438	-0.0017
689.695	-0.0014
689.952	-0.0012
690.209	0.0011
690.466	0.0002
690.723	-0.0006
690.979	-0.0001
691.236	-0.002
691.493	-0.0004
691.75	0.0003
692.006	0.0016
692.263	0.0023
692.519	0.0018
692.775	0.0018
693.032	0.0006
693.288	0.0005
693.544	0.0004
693.8	0.0006
694.056	-0.0004
694.313	-0.0001
694.568	0.0005
694.824	0.0006
695.08	0.0002
695.336	-0.0018
695.592	-0.0002
695.847	-0.0002
696.103	0.0005
696.359	-0
696.614	0.0003
696.869	-0.001
697.125	-0.0025
697.38	-0.0003
697.635	-0.0014
697.891	-0.0005
698.146	-0
698.401	-0.0013
698.656	-0.0001
698.911	-0.0001
699.166	-0.0006
699.42	-0.0001
699.675	-0.0012
699.93	-0.0006
700.185	-0.0008
700.439	0
700.694	0.0021
700.948	0.0018
701.203	0.0025
701.457	0.0029
701.711	0.0034
701.965	0.0038
702.22	0.0031
702.474	0.0039
702.728	0.0032
702.982	0.0027
703.236	0.0035
703.49	0.0038
703.743	0.0035
703.997	0.0035
704.251	0.0032
704.504	0.0022
704.758	0.0015
705.012	0.0013
705.265	-0.0002
705.518	-0.0004
705.772	-0.0005
706.025	0.0008
706.278	-0.0001
706.531	-0.0005
706.785	0.0006
707.038	-0.0015
707.291	-0.0013
707.543	-0.0015
707.796	-0.0009
708.049	-0.0019
708.302	-0.0019
708.555	-0.0022
708.807	-0.002
709.06	-0.0012
709.312	-0.0021
709.565	-0.001
709.817	-0.001
710.069	-0.002
710.322	-0.002
710.574	-0.0021
710.826	-0.0022
711.078	-0.0028
711.33	-0.0027
711.582	-0.0024
711.834	-0.0014
712.086	-0.0007
712.338	-0.0024
712.59	-0.0027
712.841	-0.0032
713.093	-0.0013
713.344	-0.0012
713.596	-0.0021
713.847	-0.0014
714.099	-0.0007
714.35	-0.0009
714.601	-0.0012
714.853	-0.0018
715.104	-0.001
715.355	-0.0014
715.606	-0.0012
715.857	0.0004
716.108	-0.0001
716.359	-0.0006
716.609	-0.0014
716.86	-0.0022
717.111	-0.0033
717.361	-0.0032
717.612	-0.0018
717.863	-0.0017
718.113	-0.0014
718.363	-0.0016
718.614	-0.0015
718.864	-0.003
719.114	-0.0023
719.364	-0.0012
719.614	-0.0012
719.865	-0.0013
720.114	-0.0012
720.364	-0.0027
720.614	-0.0025
720.864	-0.0018
721.114	-0.0014
721.364	-0.0015
721.613	0.0005
721.863	-0.0008
722.112	0.0005
722.362	0.0008
722.611	0.0018
722.86	0.0008
723.11	0.0014
723.359	0.0021
723.608	0.0018
723.857	0.0027
724.106	0.0032
724.355	0.0028
724.604	0.0022
724.853	0.0015
725.102	0.002
725.351	0.0011
725.599	0.0017
725.848	0.0018
726.097	0.0002
726.345	0.0014
726.594	0.0017
726.842	0.0019
727.09	0.0033
727.339	0.0024
727.587	0.0008
727.835	0.0013
728.083	0.0006
728.331	0.0004
728.579	0
728.827	0.0001
729.075	0
729.323	-0.0017
729.571	0.0004
729.818	-0.0005
730.066	-0
730.314	0.0001
730.561	0.0011
730.809	0.0003
731.056	-0
731.303	0.0016
731.551	0.0018
731.798	0.0012
732.045	0.0009
732.292	0.0007
732.539	0.0001
732.786	-0.0006
733.033	-0.0006
733.28	-0.0008
733.527	-0.0005
733.774	-0.0023
734.021	-0.0016
734.267	-0.0014
734.514	-0.0015
734.76	-0.0011
735.007	-0.0007
735.253	-0.0014
735.5	-0.0013
735.746	-0.0016
735.992	-0.0005
736.238	0.0008
736.485	0.0001
736.731	0.0008
736.977	-0.0001
737.223	0.0004
737.469	0.0007
737.715	-0.0002
737.96	-0.0001
738.206	0.0005
738.452	-0
738.697	0.0006
738.943	0.0005
739.189	0.0002
739.434	-0.0004
739.679	0.0009
739.925	-0.0001
740.17	0.0011
740.415	0.0008
740.66	-0.0003
740.906	0.0007
741.151	0.0004
741.396	0.0013
741.641	0.0008
741.886	0.0002
742.13	-0.0003
742.375	-0.0005
742.62	-0.0004
742.865	-0.0002
743.109	-0.0007
743.354	0.0004
743.598	-0.0001
743.843	0.0001
744.087	-0.0006
744.331	-0.0002
744.576	0.0001
744.82	0.0013
745.064	0.0023
745.308	0.002
745.552	0.0013
745.796	0.0006
746.04	-0.0003
746.284	-0.0007
746.528	-0.0016
746.771	-0.0015
747.015	-0.0024
747.259	-0.0024
747.502	-0.0041
747.746	-0.0045
747.989	-0.003
748.233	-0.0038
748.476	-0.0029
748.719	-0.0019
748.963	-0.0038
749.206	-0.0026
749.449	-0.0028
749.692	-0.0014
749.935	-0.0006
750.178	-0.0016
750.421	-0.0006
750.664	-0.0005
750.906	-0.0002
751.149	0.0002
751.392	0.0002
751.635	0.0004
751.877	-0.0002
752.12	-0.0004
752.362	-0.0011
752.604	-0.0027
752.847	-0.0036
753.089	-0.0028
753.331	-0.0033
753.573	-0.0029
753.816	-0.0036
754.058	-0.0032
754.3	-0.0035
754.542	-0.0022
754.783	-0.0024
755.025	-0.0013
755.267	-0.0009
755.509	-0.001
755.75	-0.0016
755.992	-0.001
756.234	-0.0004
756.475	-0.0003
756.716	-0.0003
756.958	-0.0009
757.199	-0.0004
757.44	-0.0003
757.682	-0.0024
757.923	-0.0009
758.164	0
758.405	-0.0004
758.646	0.0007
758.887	0.0012
759.128	0.0011
759.369	0.0004
759.609	0.0002
759.85	0.0002
760.091	0.0013
760.331	0.0007
760.572	0.0001
760.812	-0.001
761.053	-0.0011
761.293	-0.0013
761.533	-0.002
761.774	-0.0002
762.014	-0.0028
762.254	-0.0027
762.494	-0.0029
762.734	-0.0021
762.974	-0.0015
763.214	-0.0002
763.454	0.0002
763.694	-0.0008
763.933	0.0001
764.173	-0.0014
764.413	-0.0017
764.652	-0.0025
764.892	-0.0023
765.131	-0.0023
765.371	-0.0022
765.61	-0.0031
765.849	-0.0036
766.089	-0.0036
766.328	-0.003
766.567	-0.0021
766.806	-0.0003
767.045	0.0002
767.284	-0
767.523	0.0009
767.762	0.0005
768.001	-0.0006
768.239	-0.0003
768.478	-0
768.717	0.001
768.955	-0.0014
769.194	-0.0006
769.432	-0.0008
769.671	-0.0004
769.909	0.0002
770.148	0
770.386	-0.0017
770.624	-0.0005
770.862	0.0006
771.1	-0.0006
771.338	-0
771.576	0.0001
771.814	0.0005
772.052	0.0003
772.29	-0.0004
772.528	0.0004
772.765	0.0002
773.003	0.0001
773.24	0.0002
773.478	0.0012
773.716	0.0015
773.953	0.0011
774.19	0.002
774.428	0.0017
774.665	0.0015
774.902	0.002
775.139	0.0017
775.376	0.0015
775.613	0.0023
775.85	0.0021
776.087	0.0024
776.324	0.0021
776.561	0.0021
776.798	0.0034
777.034	0.0021
777.271	0.002
777.508	0.003
777.744	0.0019
777.981	0.0019
778.217	0.0019
778.454	0.0028
778.69	0.0039
778.926	0.0035
779.162	0.0033
779.399	0.0048
779.635	0.0041
779.871	0.0046
780.107	0.0032
780.343	0.0027
780.579	0.0016
780.814	0.0023
781.05	0.0011
781.286	-0
781.522	0.0003
781.757	0.0014
781.993	0.0013
782.228	0.0014
782.464	0.0007
782.699	0.0007
782.934	-0.0014
783.17	-0.0017
783.405	-0.0036
783.64	-0.0042
783.875	-0.0035
784.11	-0.0036
784.345	-0.0031
784.58	-0.0031
784.815	-0.0028
785.05	-0.0026
785.285	-0.0027
785.52	-0.002
785.754	-0.0022
785.989	-0.0021
786.223	-0.001
786.458	0.0006
786.692	-0.0009
786.927	0.0004
787.161	0.0002
787.396	-0.001
787.63	-0.0001
787.864	-0.0025
788.098	-0.0026
788.332	-0.0023
788.566	-0.0022
788.8	-0.0031
789.034	-0.0031
789.268	-0.0027
789.502	-0.0031
789.736	-0.0034
789.969	-0.0023
790.203	-0.0044
790.437	-0.0026
790.67	-0.0038
790.904	-0.0036
791.137	-0.003
791.37	-0.0041
791.604	-0.0047
791.837	-0.0042
792.07	-0.0039
792.303	-0.0047
792.537	-0.0046
792.77	-0.0046
793.003	-0.005
793.236	-0.0056
793.469	-0.005
793.701	-0.003
793.934	-0.0036
794.167	-0.0029
794.4	-0.0029
794.632	-0.003
794.865	-0.0025
795.097	-0.0034
795.33	-0.0037
795.562	-0.0035
795.795	-0.0028
796.027	-0.0033
796.259	-0.0038
796.491	-0.0026
796.724	-0.0022
796.956	-0.0025
797.188	-0.0013
797.42	-0.0019
797.652	-0.0011
797.883	-0.0004
798.115	0.0001
798.347	0.0001
798.579	-0.0006
798.81	-0.0016
799.042	-0.0026
799.274	-0.0028
799.505	-0.0035
799.737	-0.0036
799.968	-0.0032
800.199	-0.0029
800.431	-0.003
800.662	-0.0023
800.893	-0.0029
801.124	-0.0026
801.355	-0.0022
801.586	-0.0021
801.817	-0.0023
802.048	-0.0006
802.279	0.0009
802.51	0.0009
802.741	0.0006
802.971	-0.001
803.202	-0.0016
803.433	-0.0016
803.663	-0.0009
803.894	-0.0005
804.124	0.0002
804.354	0.0001
804.585	0.001
804.815	0.0011
805.045	-0.0001
805.275	0.0002
805.506	-0.0571
805.736	0.0958
805.966	0.3154
806.196	0.2188
