Data from 04 0.5 mM K2Cr2O7 0.3 mM BQDS 1 M H2SO4 5 min_ 29_min_gap_Absorbance_0006.txt Node
Date: Tue Dec 14 13:12:56 EST 2021
User: kwabilab-user
Spectrometer: HDX00518
Trigger mode: 0
Integration Time (sec): 5.000000E-2
Scans to average: 50
Nonlinearity correction enabled: false
Boxcar width: 0
Storing dark spectrum: false
XAxis mode: Wavelengths
Number of Pixels in Spectrum: 2068
>>>>>Begin Spectral Data<<<<<
195.27	0.1262
195.642	0.0577
196.014	0.053
196.386	0.2975
196.758	0.0281
197.129	0.0232
197.501	0.0396
197.872	0.0621
198.244	0.072
198.615	0.0644
198.986	0.067
199.357	0.0507
199.728	0.0632
200.099	0.0849
200.47	0.0753
200.841	0.0866
201.212	0.0786
201.582	0.0582
201.953	0.0519
202.323	0.073
202.694	0.0685
203.064	0.0583
203.434	0.0742
203.804	0.0551
204.174	0.0657
204.544	0.0968
204.914	0.0746
205.284	0.0788
205.653	0.0732
206.023	0.0671
206.393	0.0911
206.762	0.0734
207.131	0.0623
207.501	0.0772
207.87	0.0924
208.239	0.0827
208.608	0.059
208.977	0.0924
209.346	0.1001
209.715	0.057
210.083	0.073
210.452	0.0897
210.82	0.0738
211.189	0.0698
211.557	0.0648
211.925	0.0807
212.294	0.0907
212.662	0.1022
213.03	0.1042
213.398	0.1049
213.766	0.1014
214.133	0.0722
214.501	0.0924
214.869	0.0999
215.236	0.0938
215.604	0.0891
215.971	0.0981
216.338	0.1148
216.705	0.0964
217.072	0.1014
217.439	0.1016
217.806	0.1122
218.173	0.1343
218.54	0.1612
218.907	0.1219
219.273	0.1527
219.64	0.1674
220.006	0.2038
220.373	0.161
220.739	0.2056
221.105	0.2238
221.471	0.2293
221.837	0.243
222.203	0.2987
222.569	0.2949
222.935	0.3152
223.3	0.3409
223.666	0.3632
224.031	0.3839
224.397	0.4072
224.762	0.4199
225.127	0.4677
225.493	0.4825
225.858	0.5272
226.223	0.5713
226.588	0.5598
226.952	0.5999
227.317	0.6248
227.682	0.6118
228.046	0.622
228.411	0.6792
228.775	0.6675
229.14	0.6875
229.504	0.7099
229.868	0.7258
230.232	0.7366
230.596	0.7372
230.96	0.7615
231.324	0.7559
231.688	0.7574
232.052	0.7762
232.415	0.7785
232.779	0.7783
233.142	0.7815
233.505	0.7866
233.869	0.7917
234.232	0.7804
234.595	0.7788
234.958	0.7799
235.321	0.7863
235.684	0.7657
236.047	0.7652
236.409	0.7626
236.772	0.7675
237.134	0.77
237.497	0.7625
237.859	0.7646
238.222	0.7516
238.584	0.7494
238.946	0.7426
239.308	0.7497
239.67	0.7377
240.032	0.7332
240.393	0.7264
240.755	0.7205
241.117	0.7308
241.478	0.7123
241.84	0.7075
242.201	0.7128
242.562	0.6995
242.924	0.6909
243.285	0.6877
243.646	0.6837
244.007	0.684
244.368	0.6881
244.728	0.6825
245.089	0.6723
245.45	0.6731
245.81	0.6668
246.171	0.6626
246.531	0.6559
246.891	0.6556
247.252	0.6565
247.612	0.6541
247.972	0.6502
248.332	0.6492
248.692	0.645
249.051	0.6425
249.411	0.638
249.771	0.6362
250.13	0.6383
250.49	0.6312
250.849	0.6285
251.208	0.6293
251.568	0.6297
251.927	0.6258
252.286	0.6257
252.645	0.6255
253.004	0.6217
253.363	0.6145
253.721	0.6194
254.08	0.6165
254.439	0.6148
254.797	0.6168
255.155	0.6105
255.514	0.6085
255.872	0.6147
256.23	0.6068
256.588	0.6112
256.946	0.6042
257.304	0.6025
257.662	0.6012
258.02	0.6046
258.377	0.5991
258.735	0.6021
259.093	0.5989
259.45	0.5949
259.807	0.594
260.165	0.5943
260.522	0.5925
260.879	0.586
261.236	0.5862
261.593	0.5816
261.95	0.5861
262.306	0.5839
262.663	0.5819
263.02	0.5803
263.376	0.5759
263.733	0.5806
264.089	0.5802
264.445	0.5691
264.802	0.5709
265.158	0.5686
265.514	0.5686
265.87	0.5614
266.226	0.564
266.581	0.5649
266.937	0.5614
267.293	0.5564
267.648	0.5553
268.004	0.5553
268.359	0.5555
268.714	0.5464
269.07	0.5445
269.425	0.5445
269.78	0.5439
270.135	0.5377
270.49	0.5406
270.844	0.5347
271.199	0.5323
271.554	0.5315
271.908	0.5316
272.263	0.5273
272.617	0.5263
272.972	0.5197
273.326	0.5194
273.68	0.5156
274.034	0.5131
274.388	0.5108
274.742	0.5108
275.096	0.5105
275.45	0.5023
275.803	0.5028
276.157	0.4991
276.51	0.496
276.864	0.4906
277.217	0.4869
277.571	0.4867
277.924	0.4803
278.277	0.4733
278.63	0.475
278.983	0.4679
279.336	0.4654
279.688	0.4641
280.041	0.4583
280.394	0.4567
280.746	0.4534
281.099	0.448
281.451	0.4451
281.803	0.4391
282.156	0.4367
282.508	0.4345
282.86	0.4316
283.212	0.4272
283.564	0.422
283.916	0.4147
284.267	0.4121
284.619	0.4117
284.971	0.4069
285.322	0.4036
285.673	0.3987
286.025	0.3943
286.376	0.3912
286.727	0.3873
287.078	0.3822
287.429	0.3803
287.78	0.374
288.131	0.3707
288.482	0.3659
288.833	0.3614
289.183	0.3561
289.534	0.3533
289.884	0.3504
290.235	0.3456
290.585	0.3428
290.935	0.338
291.285	0.3345
291.635	0.33
291.985	0.3254
292.335	0.3216
292.685	0.3196
293.035	0.3143
293.384	0.3104
293.734	0.3057
294.083	0.3013
294.433	0.2989
294.782	0.2949
295.131	0.2892
295.48	0.2859
295.829	0.2833
296.179	0.2783
296.527	0.2759
296.876	0.2706
297.225	0.2687
297.574	0.264
297.922	0.2597
298.271	0.2567
298.619	0.2533
298.968	0.2496
299.316	0.2456
299.664	0.2437
300.012	0.2397
300.36	0.2368
300.708	0.2324
301.056	0.2311
301.404	0.2261
301.752	0.2237
302.099	0.2212
302.447	0.2182
302.794	0.216
303.142	0.2122
303.489	0.2105
303.836	0.2074
304.183	0.2049
304.531	0.2042
304.878	0.2005
305.224	0.1986
305.571	0.1976
305.918	0.1952
306.265	0.1937
306.611	0.1913
306.958	0.189
307.304	0.1867
307.651	0.186
307.997	0.1843
308.343	0.1833
308.689	0.1822
309.035	0.1803
309.381	0.1786
309.727	0.1778
310.073	0.1766
310.419	0.1756
310.764	0.1748
311.11	0.1747
311.455	0.1736
311.801	0.1728
312.146	0.1729
312.491	0.1718
312.837	0.1706
313.182	0.1713
313.527	0.1702
313.872	0.1705
314.216	0.1695
314.561	0.1703
314.906	0.1697
315.251	0.1699
315.595	0.1701
315.94	0.1709
316.284	0.1705
316.628	0.1708
316.972	0.1707
317.317	0.1707
317.661	0.171
318.005	0.171
318.348	0.1721
318.692	0.1731
319.036	0.1735
319.38	0.1737
319.723	0.1739
320.067	0.1745
320.41	0.1751
320.754	0.1766
321.097	0.1772
321.44	0.1778
321.783	0.1791
322.126	0.1801
322.469	0.1807
322.812	0.1822
323.155	0.1831
323.498	0.184
323.84	0.1855
324.183	0.1862
324.525	0.1873
324.868	0.1883
325.21	0.19
325.552	0.1907
325.894	0.1921
326.236	0.1933
326.578	0.1941
326.92	0.1947
327.262	0.1972
327.604	0.1983
327.946	0.1993
328.287	0.2012
328.629	0.203
328.97	0.2034
329.312	0.2053
329.653	0.2061
329.994	0.2077
330.335	0.2097
330.676	0.2107
331.017	0.2124
331.358	0.2139
331.699	0.2152
332.04	0.2168
332.38	0.2182
332.721	0.2198
333.061	0.2208
333.402	0.222
333.742	0.2243
334.083	0.2246
334.423	0.2265
334.763	0.2279
335.103	0.229
335.443	0.2302
335.783	0.2315
336.123	0.2319
336.462	0.234
336.802	0.2342
337.141	0.235
337.481	0.2367
337.82	0.2377
338.16	0.2394
338.499	0.24
338.838	0.2409
339.177	0.2429
339.516	0.2435
339.855	0.2445
340.194	0.2454
340.533	0.2474
340.872	0.2472
341.21	0.2486
341.549	0.2493
341.887	0.2495
342.226	0.2514
342.564	0.2506
342.902	0.2518
343.24	0.2529
343.578	0.2525
343.916	0.253
344.254	0.2532
344.592	0.2534
344.93	0.2539
345.268	0.253
345.605	0.2543
345.943	0.2536
346.28	0.2545
346.618	0.2549
346.955	0.2551
347.292	0.2545
347.629	0.2537
347.966	0.255
348.303	0.2554
348.64	0.2552
348.977	0.2555
349.314	0.2553
349.65	0.2558
349.987	0.2557
350.324	0.255
350.66	0.2543
350.996	0.2543
351.333	0.253
351.669	0.2533
352.005	0.2522
352.341	0.2512
352.677	0.2503
353.013	0.2493
353.349	0.2482
353.685	0.2485
354.02	0.2466
354.356	0.2462
354.691	0.2439
355.027	0.2436
355.362	0.2421
355.697	0.2413
356.033	0.2399
356.368	0.2398
356.703	0.2383
357.038	0.2378
357.373	0.2372
357.707	0.2366
358.042	0.2346
358.377	0.2345
358.711	0.2337
359.046	0.2322
359.38	0.2308
359.715	0.2303
360.049	0.2287
360.383	0.2268
360.717	0.2258
361.051	0.2247
361.385	0.2225
361.719	0.2219
362.053	0.2199
362.387	0.2177
362.72	0.2168
363.054	0.2144
363.387	0.2124
363.721	0.2114
364.054	0.2086
364.387	0.2072
364.721	0.2055
365.054	0.2046
365.387	0.2027
365.72	0.2002
366.053	0.1984
366.385	0.1976
366.718	0.1962
367.051	0.1943
367.383	0.1926
367.716	0.1909
368.048	0.1897
368.381	0.1889
368.713	0.1873
369.045	0.1853
369.377	0.1847
369.709	0.1831
370.041	0.1811
370.373	0.1804
370.705	0.1786
371.037	0.1768
371.368	0.1749
371.7	0.1731
372.031	0.1719
372.363	0.1703
372.694	0.1683
373.025	0.1668
373.356	0.1643
373.688	0.1615
374.019	0.1602
374.35	0.1586
374.68	0.1561
375.011	0.1544
375.342	0.1519
375.673	0.1507
376.003	0.1481
376.334	0.1467
376.664	0.146
376.995	0.143
377.325	0.1417
377.655	0.1398
377.985	0.1386
378.315	0.1371
378.645	0.1356
378.975	0.1344
379.305	0.1333
379.635	0.132
379.964	0.1306
380.294	0.1292
380.623	0.1287
380.953	0.1263
381.282	0.1251
381.611	0.1236
381.941	0.1229
382.27	0.1215
382.599	0.1204
382.928	0.1183
383.257	0.1168
383.585	0.1153
383.914	0.1136
384.243	0.1121
384.571	0.1097
384.9	0.1086
385.228	0.1071
385.557	0.1058
385.885	0.1038
386.213	0.1019
386.541	0.1002
386.869	0.0985
387.197	0.0975
387.525	0.0953
387.853	0.0943
388.181	0.0931
388.508	0.0915
388.836	0.0899
389.164	0.0895
389.491	0.0885
389.818	0.0874
390.146	0.086
390.473	0.0846
390.8	0.0834
391.127	0.0816
391.454	0.0814
391.781	0.0805
392.108	0.0788
392.435	0.0787
392.761	0.0773
393.088	0.0764
393.415	0.075
393.741	0.0751
394.067	0.0737
394.394	0.0729
394.72	0.0723
395.046	0.0704
395.372	0.0699
395.698	0.0685
396.024	0.0681
396.35	0.0677
396.676	0.0664
397.001	0.0661
397.327	0.0651
397.653	0.0645
397.978	0.0636
398.303	0.0631
398.629	0.0614
398.954	0.0602
399.279	0.0602
399.604	0.0596
399.929	0.0579
400.254	0.0574
400.579	0.0563
400.904	0.0568
401.229	0.0558
401.553	0.0549
401.878	0.0549
402.202	0.0539
402.527	0.0537
402.851	0.0527
403.175	0.0524
403.5	0.0518
403.824	0.0515
404.148	0.0514
404.472	0.0516
404.796	0.051
405.119	0.0501
405.443	0.0505
405.767	0.0492
406.09	0.0491
406.414	0.0485
406.737	0.0481
407.061	0.0482
407.384	0.0485
407.707	0.0474
408.03	0.0475
408.353	0.0475
408.676	0.0473
408.999	0.0476
409.322	0.047
409.645	0.0472
409.968	0.0468
410.29	0.047
410.613	0.0464
410.935	0.0464
411.258	0.0462
411.58	0.046
411.902	0.0469
412.224	0.0457
412.546	0.0456
412.868	0.046
413.19	0.0462
413.512	0.0461
413.834	0.0455
414.156	0.0462
414.477	0.0459
414.799	0.0463
415.121	0.045
415.442	0.0459
415.763	0.0456
416.085	0.0459
416.406	0.046
416.727	0.0448
417.048	0.0457
417.369	0.0455
417.69	0.0457
418.011	0.0463
418.331	0.0456
418.652	0.0455
418.973	0.045
419.293	0.0452
419.614	0.0455
419.934	0.0451
420.254	0.0452
420.574	0.0456
420.895	0.0454
421.215	0.045
421.535	0.0453
421.855	0.0457
422.174	0.0455
422.494	0.0456
422.814	0.0454
423.134	0.0456
423.453	0.0455
423.773	0.0461
424.092	0.0453
424.411	0.0464
424.731	0.0458
425.05	0.0452
425.369	0.0458
425.688	0.0453
426.007	0.0462
426.326	0.0452
426.644	0.0459
426.963	0.0461
427.282	0.0456
427.6	0.0454
427.919	0.0457
428.237	0.0455
428.556	0.0464
428.874	0.0457
429.192	0.0461
429.51	0.046
429.828	0.046
430.146	0.0461
430.464	0.0463
430.782	0.0457
431.1	0.0455
431.418	0.0465
431.735	0.0462
432.053	0.0462
432.37	0.0465
432.688	0.0465
433.005	0.0456
433.322	0.0457
433.639	0.0462
433.957	0.0457
434.274	0.0457
434.591	0.0465
434.907	0.0464
435.224	0.0471
435.541	0.0462
435.858	0.0463
436.174	0.0468
436.491	0.0457
436.807	0.0456
437.124	0.046
437.44	0.0462
437.756	0.0454
438.072	0.0455
438.388	0.0462
438.704	0.0453
439.02	0.0461
439.336	0.0453
439.652	0.0452
439.968	0.0456
440.283	0.0456
440.599	0.0462
440.914	0.0456
441.23	0.0461
441.545	0.0455
441.86	0.0455
442.175	0.0458
442.491	0.0458
442.806	0.0454
443.121	0.045
443.435	0.0449
443.75	0.0451
444.065	0.0457
444.38	0.0453
444.694	0.0444
445.009	0.0449
445.323	0.0447
445.638	0.0448
445.952	0.0447
446.266	0.0439
446.58	0.0446
446.894	0.0446
447.208	0.0441
447.522	0.0436
447.836	0.0441
448.15	0.0442
448.464	0.0431
448.777	0.0432
449.091	0.0432
449.404	0.0442
449.718	0.0437
450.031	0.0442
450.345	0.0432
450.658	0.0437
450.971	0.045
451.284	0.0431
451.597	0.0423
451.91	0.0426
452.223	0.0429
452.535	0.0433
452.848	0.0423
453.161	0.0423
453.473	0.0417
453.786	0.0419
454.098	0.0428
454.411	0.0421
454.723	0.0418
455.035	0.0423
455.347	0.0411
455.659	0.0414
455.971	0.0413
456.283	0.0413
456.595	0.0412
456.907	0.041
457.218	0.0403
457.53	0.0405
457.841	0.0399
458.153	0.0401
458.464	0.0396
458.776	0.0392
459.087	0.0396
459.398	0.039
459.709	0.0389
460.02	0.0396
460.331	0.0398
460.642	0.0383
460.953	0.0393
461.263	0.038
461.574	0.0383
461.885	0.0383
462.195	0.0382
462.506	0.0373
462.816	0.0378
463.126	0.0378
463.437	0.0373
463.747	0.037
464.057	0.037
464.367	0.0368
464.677	0.036
464.987	0.0366
465.296	0.0362
465.606	0.0369
465.916	0.0365
466.225	0.0357
466.535	0.0355
466.844	0.0357
467.154	0.0349
467.463	0.0347
467.772	0.0341
468.081	0.0337
468.39	0.034
468.699	0.0335
469.008	0.0331
469.317	0.034
469.626	0.0336
469.935	0.0338
470.243	0.0336
470.552	0.0327
470.86	0.0321
471.169	0.0332
471.477	0.0325
471.785	0.0317
472.093	0.0324
472.402	0.0315
472.71	0.0313
473.018	0.031
473.326	0.0311
473.633	0.0304
473.941	0.0306
474.249	0.0306
474.556	0.0309
474.864	0.0302
475.171	0.03
475.479	0.0295
475.786	0.03
476.094	0.0292
476.401	0.0292
476.708	0.0291
477.015	0.0288
477.322	0.0281
477.629	0.0277
477.936	0.0274
478.242	0.0277
478.549	0.0272
478.856	0.0266
479.162	0.0265
479.469	0.0269
479.775	0.0261
480.081	0.0277
480.388	0.0267
480.694	0.0264
481	0.0253
481.306	0.0259
481.612	0.0255
481.918	0.0255
482.224	0.0255
482.53	0.0254
482.835	0.0253
483.141	0.0248
483.446	0.0252
483.752	0.0248
484.057	0.0249
484.363	0.0239
484.668	0.0236
484.973	0.0232
485.278	0.0236
485.583	0.0233
485.888	0.0227
486.193	0.0228
486.498	0.0227
486.803	0.0224
487.107	0.0222
487.412	0.0214
487.717	0.0216
488.021	0.0203
488.325	0.0208
488.63	0.0212
488.934	0.0214
489.238	0.0196
489.542	0.0198
489.846	0.0209
490.15	0.0205
490.454	0.0194
490.758	0.0188
491.062	0.0199
491.366	0.0188
491.669	0.0188
491.973	0.0194
492.276	0.0192
492.58	0.0204
492.883	0.0187
493.186	0.0181
493.489	0.0179
493.792	0.0195
494.096	0.0181
494.399	0.0177
494.701	0.0172
495.004	0.0173
495.307	0.0163
495.61	0.0163
495.912	0.0164
496.215	0.016
496.517	0.0163
496.82	0.0165
497.122	0.0159
497.424	0.0162
497.727	0.0158
498.029	0.0148
498.331	0.0155
498.633	0.0153
498.935	0.0143
499.237	0.0149
499.538	0.0144
499.84	0.0147
500.142	0.0148
500.443	0.0144
500.745	0.0143
501.046	0.0135
501.348	0.0145
501.649	0.0132
501.95	0.0138
502.251	0.014
502.552	0.0133
502.853	0.0127
503.154	0.0126
503.455	0.0118
503.756	0.0123
504.057	0.0113
504.357	0.0128
504.658	0.0118
504.958	0.0124
505.259	0.0122
505.559	0.0124
505.859	0.012
506.16	0.0119
506.46	0.0114
506.76	0.0116
507.06	0.0109
507.36	0.0113
507.66	0.0118
507.96	0.0104
508.259	0.0115
508.559	0.0105
508.859	0.0104
509.158	0.0106
509.457	0.0101
509.757	0.0108
510.056	0.0104
510.355	0.0106
510.655	0.0096
510.954	0.0091
511.253	0.0104
511.552	0.0104
511.851	0.0094
512.149	0.0092
512.448	0.0091
512.747	0.0092
513.045	0.0087
513.344	0.0084
513.642	0.0092
513.941	0.0092
514.239	0.0082
514.537	0.0087
514.836	0.009
515.134	0.0085
515.432	0.0092
515.73	0.0094
516.028	0.0086
516.326	0.0085
516.623	0.0081
516.921	0.0076
517.219	0.0085
517.516	0.0084
517.814	0.0078
518.111	0.0086
518.409	0.008
518.706	0.0073
519.003	0.008
519.3	0.0072
519.597	0.0072
519.894	0.0072
520.191	0.0074
520.488	0.0079
520.785	0.0081
521.082	0.0078
521.378	0.0073
521.675	0.0079
521.971	0.0078
522.268	0.007
522.564	0.0064
522.861	0.0067
523.157	0.0075
523.453	0.0069
523.749	0.0062
524.045	0.007
524.341	0.0063
524.637	0.0056
524.933	0.0064
525.229	0.0067
525.524	0.0065
525.82	0.0073
526.115	0.0064
526.411	0.0055
526.706	0.0065
527.002	0.0063
527.297	0.0053
527.592	0.0066
527.887	0.0064
528.182	0.006
528.477	0.0072
528.772	0.0067
529.067	0.0054
529.362	0.0065
529.657	0.0062
529.951	0.0055
530.246	0.0049
530.54	0.0057
530.835	0.0063
531.129	0.006
531.423	0.0061
531.718	0.0047
532.012	0.0044
532.306	0.0044
532.6	0.0054
532.894	0.0034
533.188	0.005
533.482	0.0052
533.775	0.0051
534.069	0.0056
534.363	0.0052
534.656	0.0043
534.95	0.0048
535.243	0.0047
535.536	0.0052
535.83	0.0053
536.123	0.0048
536.416	0.0034
536.709	0.0042
537.002	0.0048
537.295	0.0056
537.588	0.0054
537.881	0.0052
538.173	0.0056
538.466	0.0053
538.759	0.0061
539.051	0.006
539.344	0.0035
539.636	0.0041
539.928	0.0038
540.22	0.0064
540.513	0.0045
540.805	0.0053
541.097	0.0059
541.389	0.0059
541.681	0.0053
541.972	0.006
542.264	0.006
542.556	0.0055
542.847	0.0046
543.139	0.0053
543.431	0.0052
543.722	0.0041
544.013	0.0051
544.305	0.0051
544.596	0.0045
544.887	0.0045
545.178	0.0038
545.469	0.0035
545.76	0.0043
546.051	0.0041
546.342	0.0043
546.632	0.0044
546.923	0.0048
547.214	0.0049
547.504	0.0057
547.795	0.005
548.085	0.0053
548.375	0.0058
548.666	0.0055
548.956	0.0052
549.246	0.0045
549.536	0.0041
549.826	0.0056
550.116	0.0054
550.406	0.0056
550.695	0.0051
550.985	0.0045
551.275	0.0044
551.564	0.0056
551.854	0.0056
552.143	0.0052
552.433	0.0042
552.722	0.0055
553.011	0.0055
553.3	0.0044
553.589	0.0039
553.879	0.0042
554.167	0.0042
554.456	0.0049
554.745	0.0057
555.034	0.0049
555.323	0.0042
555.611	0.0032
555.9	0.0033
556.188	0.0039
556.477	0.0057
556.765	0.0046
557.053	0.0047
557.342	0.0047
557.63	0.0031
557.918	0.0045
558.206	0.0055
558.494	0.0041
558.782	0.0059
559.069	0.0047
559.357	0.0065
559.645	0.0065
559.932	0.0058
560.22	0.0045
560.507	0.0055
560.795	0.0054
561.082	0.0062
561.37	0.0062
561.657	0.006
561.944	0.0053
562.231	0.0051
562.518	0.006
562.805	0.0059
563.092	0.0046
563.379	0.005
563.665	0.0053
563.952	0.0042
564.239	0.005
564.525	0.0048
564.811	0.0059
565.098	0.0053
565.384	0.0052
565.67	0.0058
565.957	0.006
566.243	0.006
566.529	0.006
566.815	0.0051
567.101	0.0053
567.387	0.0059
567.672	0.0055
567.958	0.0052
568.244	0.0045
568.529	0.0064
568.815	0.0049
569.1	0.0044
569.386	0.0052
569.671	0.0047
569.956	0.0048
570.242	0.0052
570.527	0.0065
570.812	0.0051
571.097	0.0052
571.382	0.0046
571.666	0.0053
571.951	0.0047
572.236	0.0049
572.521	0.0055
572.805	0.0049
573.09	0.0047
573.374	0.0045
573.659	0.0051
573.943	0.0041
574.227	0.0052
574.511	0.0047
574.795	0.0046
575.079	0.0056
575.363	0.0055
575.647	0.0051
575.931	0.0054
576.215	0.0057
576.499	0.0061
576.782	0.0051
577.066	0.006
577.349	0.0057
577.633	0.006
577.916	0.0053
578.2	0.0051
578.483	0.0045
578.766	0.005
579.049	0.0056
579.332	0.0044
579.615	0.0054
579.898	0.0046
580.181	0.0046
580.464	0.0042
580.746	0.0046
581.029	0.0052
581.312	0.0045
581.594	0.0042
581.877	0.0045
582.159	0.005
582.441	0.0045
582.724	0.0042
583.006	0.0048
583.288	0.005
583.57	0.0048
583.852	0.0061
584.134	0.0048
584.416	0.0039
584.697	0.0052
584.979	0.0045
585.261	0.0044
585.542	0.0044
585.824	0.0044
586.105	0.0034
586.387	0.0039
586.668	0.0047
586.949	0.0052
587.231	0.0051
587.512	0.0053
587.793	0.0049
588.074	0.0052
588.355	0.0043
588.636	0.0044
588.916	0.0042
589.197	0.0041
589.478	0.005
589.758	0.0053
590.039	0.0038
590.319	0.0054
590.6	0.0044
590.88	0.005
591.16	0.006
591.441	0.0059
591.721	0.0055
592.001	0.0055
592.281	0.0048
592.561	0.0044
592.841	0.0046
593.12	0.0042
593.4	0.0039
593.68	0.0043
593.959	0.006
594.239	0.0038
594.518	0.0039
594.798	0.0039
595.077	0.0053
595.356	0.0047
595.636	0.0048
595.915	0.0053
596.194	0.0048
596.473	0.0056
596.752	0.0056
597.031	0.0047
597.31	0.0056
597.588	0.0063
597.867	0.0045
598.146	0.005
598.424	0.0051
598.703	0.005
598.981	0.0051
599.259	0.0043
599.538	0.005
599.816	0.0055
600.094	0.0051
600.372	0.0045
600.65	0.0041
600.928	0.0045
601.206	0.0044
601.484	0.0044
601.762	0.0052
602.04	0.0058
602.317	0.0049
602.595	0.0042
602.872	0.0048
603.15	0.0057
603.427	0.0049
603.704	0.0053
603.982	0.0039
604.259	0.0053
604.536	0.0051
604.813	0.0052
605.09	0.0051
605.367	0.0051
605.644	0.0038
605.921	0.0048
606.197	0.0045
606.474	0.0041
606.751	0.0045
607.027	0.0039
607.304	0.0043
607.58	0.0046
607.856	0.0045
608.133	0.0039
608.409	0.0044
608.685	0.0044
608.961	0.0048
609.237	0.0039
609.513	0.0042
609.789	0.004
610.065	0.0038
610.341	0.004
610.616	0.0041
610.892	0.0035
611.167	0.0034
611.443	0.0034
611.718	0.0024
611.994	0.0031
612.269	0.0034
612.544	0.0037
612.819	0.0034
613.095	0.0034
613.37	0.0031
613.645	0.003
613.919	0.0016
614.194	0.0016
614.469	0.0022
614.744	0.0027
615.019	0.0022
615.293	0.0028
615.568	0.0032
615.842	0.003
616.116	0.0022
616.391	0.0024
616.665	0.0031
616.939	0.0038
617.213	0.0031
617.488	0.0037
617.762	0.0034
618.035	0.0044
618.309	0.0037
618.583	0.0045
618.857	0.0043
619.131	0.0054
619.404	0.0036
619.678	0.0035
619.951	0.004
620.225	0.0034
620.498	0.003
620.771	0.0034
621.045	0.0017
621.318	0.0033
621.591	0.0028
621.864	0.0017
622.137	0.0027
622.41	0.0032
622.683	0.0029
622.956	0.003
623.228	0.0034
623.501	0.0035
623.774	0.0029
624.046	0.0037
624.319	0.0031
624.591	0.0027
624.863	0.0038
625.136	0.0044
625.408	0.0038
625.68	0.0044
625.952	0.0035
626.224	0.0048
626.496	0.0028
626.768	0.004
627.04	0.0037
627.311	0.0036
627.583	0.0027
627.855	0.0024
628.126	0.0031
628.398	0.0012
628.669	0.0035
628.941	0.0024
629.212	0.0029
629.483	0.0027
629.755	0.0041
630.026	0.004
630.297	0.0041
630.568	0.0049
630.839	0.0041
631.11	0.0047
631.38	0.0052
631.651	0.0038
631.922	0.004
632.192	0.0021
632.463	0.0027
632.733	0.0042
633.004	0.0031
633.274	0.0042
633.545	0.004
633.815	0.0026
634.085	0.0045
634.355	0.0031
634.625	0.003
634.895	0.0022
635.165	0.0022
635.435	0.0021
635.705	0.003
635.974	0.0024
636.244	0.0018
636.514	0.0023
636.783	0.0034
637.053	0.0023
637.322	0.0018
637.591	0.0018
637.861	0.0021
638.13	0.002
638.399	0.0012
638.668	0.0029
638.937	0.002
639.206	0.002
639.475	0.0035
639.744	0.0018
640.013	0.0005
640.281	0.0004
640.55	0.001
640.819	0.0012
641.087	0.001
641.356	0.0027
641.624	0.0024
641.892	0.0014
642.161	0.0018
642.429	0.0024
642.697	0.0015
642.965	0.0017
643.233	0.0016
643.501	0.0021
643.769	0.0015
644.037	0.0011
644.305	0.0014
644.572	0.0004
644.84	-0.0004
645.108	-0.0008
645.375	-0.0017
645.643	-0.0014
645.91	-0.0003
646.177	0.0002
646.445	0.0005
646.712	0.0011
646.979	0.0007
647.246	0.0011
647.513	0.0004
647.78	0.0011
648.047	0.0019
648.314	0.0015
648.58	0.0018
648.847	0.0018
649.114	0.0017
649.38	0.0023
649.647	0.0021
649.913	0.0023
650.18	0.0022
650.446	0.0002
650.712	0.0007
650.978	-0.0008
651.245	-0.0014
651.511	-0.0017
651.777	-0.0013
652.043	0.0005
652.309	-0.0006
652.574	0.0006
652.84	0.0002
653.106	-0.0001
653.371	-0.0005
653.637	0.0015
653.903	0.0008
654.168	0.0018
654.433	0.0007
654.699	0.0011
654.964	0.0004
655.229	0.0013
655.494	0.0001
655.759	0.0004
656.024	0.0013
656.289	-0
656.554	-0.0008
656.819	-0.0005
657.084	0.0003
657.349	-0.0005
657.613	0.001
657.878	0.0012
658.142	0.0017
658.407	0.0005
658.671	0.0011
658.936	0.0022
659.2	0.0028
659.464	0.0009
659.728	0.0017
659.992	0.0027
660.256	0.0017
660.52	-0.0003
660.784	-0.001
661.048	-0.001
661.312	-0.0013
661.575	-0.0013
661.839	-0.002
662.103	-0.0011
662.366	-0.0009
662.63	-0.0014
662.893	0
663.156	0.0005
663.42	0.0017
663.683	0.0018
663.946	0.0018
664.209	0.0012
664.472	0.002
664.735	0.0007
664.998	0.0019
665.261	0.0021
665.524	0.0013
665.786	0.0008
666.049	0.0002
666.312	0.0003
666.574	-0.0005
666.837	-0
667.099	0
667.361	0
667.624	0.0008
667.886	-0
668.148	0.0005
668.41	0.0013
668.672	0.0009
668.934	0.0017
669.196	0.0015
669.458	0.0003
669.72	0.0008
669.982	-0.0004
670.243	0.0002
670.505	-0.0007
670.766	-0.0009
671.028	-0.0002
671.289	0.0013
671.551	0.0013
671.812	0.0008
672.073	0.0013
672.334	0.0013
672.596	0.002
672.857	0.0006
673.118	0.0003
673.379	0.0015
673.639	0.0008
673.9	0.0025
674.161	0.0016
674.422	-0.0002
674.682	-0.0013
674.943	-0.001
675.203	-0.0003
675.464	-0.0007
675.724	-0.0014
675.985	-0.0009
676.245	0.0002
676.505	0.0013
676.765	0.0013
677.025	0.0011
677.285	0.0017
677.545	0.0024
677.805	0.0008
678.065	0.0004
678.325	0.0002
678.585	0.0005
678.844	-0.0011
679.104	-0.001
679.363	-0.0006
679.623	-0.0004
679.882	-0.0001
680.142	0.0005
680.401	0.0004
680.66	0.0011
680.919	0.0014
681.178	0.0013
681.437	0.0012
681.696	-0.0004
681.955	-0.0001
682.214	0.0008
682.473	-0.0002
682.732	0.0009
682.99	-0.001
683.249	0.0002
683.508	-0.0002
683.766	0.0013
684.024	0.0017
684.283	0.0019
684.541	0.0021
684.799	0.0022
685.058	0.0015
685.316	0.0009
685.574	0.0012
685.832	0.0005
686.09	0.0004
686.348	0.0002
686.606	0.0007
686.863	0.0018
687.121	0.0015
687.379	0.0012
687.636	-0
687.894	-0.0001
688.151	-0
688.409	-0.0013
688.666	-0.0015
688.923	-0.0025
689.181	-0.0028
689.438	-0.0018
689.695	-0.0014
689.952	-0.0012
690.209	-0.0001
690.466	0.0003
690.723	-0.0002
690.979	-0.0005
691.236	-0.0014
691.493	-0.0009
691.75	0.0001
692.006	0.0012
692.263	0.0012
692.519	0.002
692.775	0.0019
693.032	0.0006
693.288	-0.0001
693.544	-0.0003
693.8	0.0003
694.056	0.0002
694.313	0.0006
694.568	0.0009
694.824	0.0002
695.08	0.0002
695.336	-0.0013
695.592	-0.001
695.847	-0.0011
696.103	0.0001
696.359	0.0006
696.614	0.0003
696.869	-0.0012
697.125	-0.0013
697.38	-0.0012
697.635	-0.0015
697.891	-0.0013
698.146	-0.0007
698.401	-0.0005
698.656	-0.0003
698.911	-0
699.166	-0.0008
699.42	-0.0005
699.675	-0.0007
699.93	-0.0001
700.185	-0.0002
700.439	0.0006
700.694	0.0018
700.948	0.0018
701.203	0.0019
701.457	0.0034
701.711	0.0032
701.965	0.0034
702.22	0.0029
702.474	0.0042
702.728	0.0033
702.982	0.003
703.236	0.0024
703.49	0.0034
703.743	0.0026
703.997	0.0034
704.251	0.0039
704.504	0.0029
704.758	0.0016
705.012	0.0009
705.265	-0.0005
705.518	-0.0005
705.772	0.0001
706.025	0.0003
706.278	-0.0007
706.531	0.0004
706.785	0.0002
707.038	-0.0012
707.291	-0.0009
707.543	-0.0009
707.796	-0.0016
708.049	-0.0021
708.302	-0.0024
708.555	-0.0033
708.807	-0.0022
709.06	-0.0012
709.312	-0.0022
709.565	-0.0011
709.817	-0.0011
710.069	-0.0022
710.322	-0.0013
710.574	-0.0027
710.826	-0.0028
711.078	-0.0032
711.33	-0.003
711.582	-0.0023
711.834	-0.0015
712.086	-0.0006
712.338	-0.0022
712.59	-0.003
712.841	-0.0029
713.093	-0.0018
713.344	-0.0015
713.596	-0.0018
713.847	-0.0016
714.099	-0.0009
714.35	-0.0006
714.601	-0.0013
714.853	-0.0016
715.104	-0.0003
715.355	-0.0005
715.606	-0.0004
715.857	0.0001
716.108	0.0003
716.359	-0.0002
716.609	-0.0008
716.86	-0.0026
717.111	-0.0032
717.361	-0.0026
717.612	-0.0022
717.863	-0.0011
718.113	-0.0009
718.363	-0.0017
718.614	-0.0022
718.864	-0.0032
719.114	-0.0027
719.364	-0.0016
719.614	-0.0015
719.865	-0.0014
720.114	-0.0013
720.364	-0.003
720.614	-0.0025
720.864	-0.002
721.114	-0.002
721.364	-0.0011
721.613	-0.0004
721.863	-0.0003
722.112	-0.0002
722.362	0.0006
722.611	0.0017
722.86	0.0016
723.11	0.0014
723.359	0.0014
723.608	0.0024
723.857	0.0034
724.106	0.0036
724.355	0.0027
724.604	0.0022
724.853	0.0015
725.102	0.0011
725.351	0.0011
725.599	0.0012
725.848	0.0009
726.097	0.0003
726.345	0.0005
726.594	0.0013
726.842	0.0011
727.09	0.0026
727.339	0.0018
727.587	0.0009
727.835	0.0013
728.083	0.0004
728.331	0.0001
728.579	0.0002
728.827	-0.0006
729.075	-0.0008
729.323	-0.0015
729.571	-0.0006
729.818	-0.0008
730.066	-0.0002
730.314	0.0004
730.561	0.0008
730.809	0.0001
731.056	0.0003
731.303	0.0007
731.551	0.0003
731.798	0.0002
732.045	0.0001
732.292	0.0006
732.539	-0.0007
732.786	-0.0009
733.033	-0.0012
733.28	-0.0015
733.527	-0.0008
733.774	-0.002
734.021	-0.0016
734.267	-0.0013
734.514	-0.0017
734.76	-0.0019
735.007	-0.0017
735.253	-0.0016
735.5	-0.0009
735.746	-0.0013
735.992	-0.0004
736.238	0.0003
736.485	-0.0005
736.731	0.0014
736.977	0.0006
737.223	0.0006
737.469	0.0002
737.715	-0.0009
737.96	-0.0007
738.206	-0.0003
738.452	0.0005
738.697	0.0006
738.943	0.0002
739.189	0.0005
739.434	-0.0003
739.679	0.0002
739.925	-0.0006
740.17	-0.0001
740.415	0.0002
740.66	-0.0004
740.906	-0.0002
741.151	0.0007
741.396	0.0012
741.641	0.0011
741.886	-0.0004
742.13	0
742.375	-0
742.62	0.0001
742.865	-0.0007
743.109	-0.0002
743.354	0.0008
743.598	-0.0007
743.843	-0
744.087	-0.0003
744.331	-0.0006
744.576	0.0007
744.82	0.0017
745.064	0.0018
745.308	0.0021
745.552	0.0008
745.796	0.0012
746.04	-0.0003
746.284	-0.0016
746.528	-0.0023
746.771	-0.0022
747.015	-0.0018
747.259	-0.0029
747.502	-0.0039
747.746	-0.0046
747.989	-0.0038
748.233	-0.0038
748.476	-0.0027
748.719	-0.0028
748.963	-0.0029
749.206	-0.0033
749.449	-0.0034
749.692	-0.0029
749.935	-0.0016
750.178	-0.0017
750.421	-0.0005
750.664	-0.0008
750.906	-0.0005
751.149	-0.001
751.392	-0.0006
751.635	0.0002
751.877	-0.0009
752.12	-0.0014
752.362	-0.0024
752.604	-0.0032
752.847	-0.0037
753.089	-0.0031
753.331	-0.0034
753.573	-0.0032
753.816	-0.0037
754.058	-0.0034
754.3	-0.0036
754.542	-0.0023
754.783	-0.0024
755.025	-0.0013
755.267	-0.0014
755.509	-0.0017
755.75	-0.0019
755.992	-0.0017
756.234	-0.0006
756.475	-0.001
756.716	-0.0005
756.958	-0.0018
757.199	-0.0009
757.44	-0.0011
757.682	-0.0023
757.923	-0.0013
758.164	-0.0012
758.405	-0.0007
758.646	-0.0001
758.887	0.0002
759.128	0.0002
759.369	-0.0001
759.609	-0.0007
759.85	-0.0003
760.091	0.0002
760.331	0.0002
760.572	-0.0004
760.812	-0.0015
761.053	-0.0014
761.293	-0.0019
761.533	-0.0028
761.774	-0.0014
762.014	-0.0035
762.254	-0.0027
762.494	-0.0032
762.734	-0.0023
762.974	-0.0022
763.214	-0.0009
763.454	-0.0003
763.694	-0.0013
763.933	-0.0007
764.173	-0.0021
764.413	-0.0022
764.652	-0.0025
764.892	-0.0029
765.131	-0.0032
765.371	-0.0028
765.61	-0.0037
765.849	-0.0044
766.089	-0.0038
766.328	-0.0037
766.567	-0.0027
766.806	-0.0015
767.045	-0.0001
767.284	-0
767.523	0.0008
767.762	-0.0011
768.001	-0.001
768.239	0.0004
768.478	-0.0008
768.717	0.0002
768.955	-0.0015
769.194	-0.0014
769.432	-0.0013
769.671	-0.0007
769.909	0.0001
770.148	-0.0007
770.386	-0.0018
770.624	-0.0005
770.862	-0.0003
771.1	-0.0009
771.338	-0.0007
771.576	-0.0005
771.814	0
772.052	0.0004
772.29	-0.0005
772.528	-0.0006
772.765	-0.0008
773.003	-0.0008
773.24	-0.0001
773.478	0.0003
773.716	0.0014
773.953	0.0007
774.19	0.0012
774.428	0.001
774.665	0.0006
774.902	0.0011
775.139	0.0005
775.376	0.0009
775.613	0.0015
775.85	0.0017
776.087	0.0017
776.324	0.001
776.561	0.0015
776.798	0.0026
777.034	0.0017
777.271	0.0013
777.508	0.0026
777.744	0.0011
777.981	0.001
778.217	0.0011
778.454	0.0027
778.69	0.0025
778.926	0.0034
779.162	0.0026
779.399	0.0043
779.635	0.004
779.871	0.0028
780.107	0.0026
780.343	0.0027
780.579	0.0017
780.814	0.0019
781.05	0.0011
781.286	0.0006
781.522	-0.0003
781.757	0.0002
781.993	0.0014
782.228	0.0013
782.464	0.0005
782.699	0.0003
782.934	-0.0015
783.17	-0.0022
783.405	-0.004
783.64	-0.0042
783.875	-0.0041
784.11	-0.0038
784.345	-0.0039
784.58	-0.0031
784.815	-0.0034
785.05	-0.0031
785.285	-0.0034
785.52	-0.0035
785.754	-0.003
785.989	-0.0021
786.223	-0.0012
786.458	-0.0005
786.692	-0.0008
786.927	-0
787.161	-0.0004
787.396	-0.0011
787.63	-0.0013
787.864	-0.0029
788.098	-0.0019
788.332	-0.003
788.566	-0.0025
788.8	-0.0033
789.034	-0.0032
789.268	-0.0035
789.502	-0.0036
789.736	-0.0035
789.969	-0.0033
790.203	-0.0044
790.437	-0.0034
790.67	-0.0034
790.904	-0.0036
791.137	-0.0028
791.37	-0.004
791.604	-0.0044
791.837	-0.0042
792.07	-0.0041
792.303	-0.0047
792.537	-0.0045
792.77	-0.005
793.003	-0.0055
793.236	-0.0062
793.469	-0.0048
793.701	-0.0043
793.934	-0.0034
794.167	-0.0026
794.4	-0.003
794.632	-0.0034
794.865	-0.0028
795.097	-0.0036
795.33	-0.0038
795.562	-0.0035
795.795	-0.0036
796.027	-0.0041
796.259	-0.0041
796.491	-0.0034
796.724	-0.0028
796.956	-0.003
797.188	-0.0029
797.42	-0.0021
797.652	-0.0006
797.883	-0.0005
798.115	-0.0009
798.347	-0.0001
798.579	-0.0008
798.81	-0.0024
799.042	-0.0037
799.274	-0.0036
799.505	-0.0036
799.737	-0.0034
799.968	-0.0037
800.199	-0.0041
800.431	-0.0033
800.662	-0.0035
800.893	-0.0033
801.124	-0.0032
801.355	-0.003
801.586	-0.0031
801.817	-0.0025
802.048	-0.0015
802.279	-0.0001
802.51	-0.0003
802.741	0
802.971	-0.0016
803.202	-0.0024
803.433	-0.0023
803.663	-0.0009
803.894	-0.0005
804.124	-0.0003
804.354	0.0002
804.585	-0.0004
804.815	0.0007
805.045	-0.0002
805.275	-0.0005
805.506	-0.0094
805.736	0.0253
805.966	-0.0307
806.196	-0.1081
