Data from 04 0.5 mM K2Cr2O7 0.3 mM BQDS 1 M H2SO4 5 min_ 29_min_gap_Absorbance_0027.txt Node
Date: Tue Dec 14 14:57:56 EST 2021
User: kwabilab-user
Spectrometer: HDX00518
Trigger mode: 0
Integration Time (sec): 5.000000E-2
Scans to average: 50
Nonlinearity correction enabled: false
Boxcar width: 0
Storing dark spectrum: false
XAxis mode: Wavelengths
Number of Pixels in Spectrum: 2068
>>>>>Begin Spectral Data<<<<<
195.27	0.0699
195.642	0.1842
196.014	0.1662
196.386	0.1237
196.758	0.0581
197.129	0.0581
197.501	0.0611
197.872	0.0585
198.244	0.0573
198.615	0.0856
198.986	0.0839
199.357	0.0844
199.728	0.0747
200.099	0.0975
200.47	0.0858
200.841	0.1019
201.212	0.0815
201.582	0.0923
201.953	0.0704
202.323	0.0861
202.694	0.0674
203.064	0.0741
203.434	0.0832
203.804	0.0812
204.174	0.0712
204.544	0.1059
204.914	0.0778
205.284	0.0932
205.653	0.0812
206.023	0.0883
206.393	0.0703
206.762	0.0749
207.131	0.0862
207.501	0.0826
207.87	0.0866
208.239	0.0852
208.608	0.0891
208.977	0.0871
209.346	0.0916
209.715	0.0955
210.083	0.0917
210.452	0.1032
210.82	0.0794
211.189	0.0895
211.557	0.0808
211.925	0.0905
212.294	0.1211
212.662	0.1049
213.03	0.1178
213.398	0.1229
213.766	0.1065
214.133	0.1038
214.501	0.1143
214.869	0.0998
215.236	0.1147
215.604	0.0861
215.971	0.1195
216.338	0.1157
216.705	0.1327
217.072	0.1252
217.439	0.12
217.806	0.1455
218.173	0.1158
218.54	0.1394
218.907	0.1527
219.273	0.1748
219.64	0.1538
220.006	0.2264
220.373	0.1807
220.739	0.2191
221.105	0.2393
221.471	0.2482
221.837	0.2624
222.203	0.2762
222.569	0.328
222.935	0.3145
223.3	0.3464
223.666	0.3745
224.031	0.3995
224.397	0.4085
224.762	0.4438
225.127	0.484
225.493	0.4954
225.858	0.5157
226.223	0.5492
226.588	0.5838
226.952	0.5907
227.317	0.6454
227.682	0.6486
228.046	0.6461
228.411	0.6747
228.775	0.6982
229.14	0.7075
229.504	0.7202
229.868	0.7338
230.232	0.7441
230.596	0.748
230.96	0.7769
231.324	0.7573
231.688	0.7712
232.052	0.7915
232.415	0.7698
232.779	0.7915
233.142	0.8011
233.505	0.7934
233.869	0.8014
234.232	0.7943
234.595	0.7787
234.958	0.7761
235.321	0.795
235.684	0.7756
236.047	0.7723
236.409	0.7604
236.772	0.7756
237.134	0.7744
237.497	0.762
237.859	0.765
238.222	0.7593
238.584	0.7562
238.946	0.7488
239.308	0.748
239.67	0.7485
240.032	0.7342
240.393	0.7306
240.755	0.7291
241.117	0.7363
241.478	0.7167
241.84	0.7174
242.201	0.7071
242.562	0.7
242.924	0.689
243.285	0.6912
243.646	0.6869
244.007	0.6846
244.368	0.6842
244.728	0.6809
245.089	0.671
245.45	0.6671
245.81	0.6696
246.171	0.6677
246.531	0.6643
246.891	0.6575
247.252	0.6541
247.612	0.6543
247.972	0.645
248.332	0.6435
248.692	0.6465
249.051	0.6469
249.411	0.6387
249.771	0.6313
250.13	0.6394
250.49	0.633
250.849	0.6305
251.208	0.6254
251.568	0.629
251.927	0.6218
252.286	0.6212
252.645	0.6226
253.004	0.619
253.363	0.6184
253.721	0.6175
254.08	0.6189
254.439	0.6111
254.797	0.6082
255.155	0.6081
255.514	0.6095
255.872	0.6126
256.23	0.6002
256.588	0.6136
256.946	0.6039
257.304	0.6014
257.662	0.5964
258.02	0.6011
258.377	0.5983
258.735	0.5932
259.093	0.5893
259.45	0.5852
259.807	0.5938
260.165	0.5885
260.522	0.5887
260.879	0.5864
261.236	0.5872
261.593	0.5781
261.95	0.582
262.306	0.5803
262.663	0.575
263.02	0.5717
263.376	0.5733
263.733	0.5751
264.089	0.5706
264.445	0.5658
264.802	0.5675
265.158	0.5652
265.514	0.5619
265.87	0.5574
266.226	0.558
266.581	0.5573
266.937	0.5537
267.293	0.5525
267.648	0.5534
268.004	0.5465
268.359	0.5472
268.714	0.5434
269.07	0.5469
269.425	0.5415
269.78	0.5372
270.135	0.5351
270.49	0.5343
270.844	0.5296
271.199	0.5294
271.554	0.5267
271.908	0.5222
272.263	0.5204
272.617	0.5184
272.972	0.5167
273.326	0.5159
273.68	0.5109
274.034	0.5073
274.388	0.5078
274.742	0.5027
275.096	0.5006
275.45	0.498
275.803	0.497
276.157	0.4953
276.51	0.4878
276.864	0.4852
277.217	0.4824
277.571	0.4808
277.924	0.4755
278.277	0.4729
278.63	0.4694
278.983	0.4647
279.336	0.4624
279.688	0.4601
280.041	0.4526
280.394	0.4502
280.746	0.4487
281.099	0.4433
281.451	0.4414
281.803	0.4357
282.156	0.4315
282.508	0.4299
282.86	0.4241
283.212	0.4242
283.564	0.4168
283.916	0.4138
284.267	0.4105
284.619	0.4055
284.971	0.4041
285.322	0.4001
285.673	0.396
286.025	0.3914
286.376	0.3886
286.727	0.3819
287.078	0.3791
287.429	0.3739
287.78	0.3698
288.131	0.3666
288.482	0.3627
288.833	0.3599
289.183	0.3563
289.534	0.3518
289.884	0.3471
290.235	0.3433
290.585	0.338
290.935	0.3337
291.285	0.3317
291.635	0.3271
291.985	0.3237
292.335	0.3183
292.685	0.3158
293.035	0.3113
293.384	0.3065
293.734	0.3036
294.083	0.3004
294.433	0.2962
294.782	0.2919
295.131	0.289
295.48	0.2835
295.829	0.2807
296.179	0.276
296.527	0.273
296.876	0.269
297.225	0.2665
297.574	0.2616
297.922	0.258
298.271	0.2544
298.619	0.251
298.968	0.2478
299.316	0.2439
299.664	0.2412
300.012	0.2377
300.36	0.2343
300.708	0.2306
301.056	0.2295
301.404	0.225
301.752	0.2223
302.099	0.2201
302.447	0.2167
302.794	0.2152
303.142	0.2111
303.489	0.2084
303.836	0.206
304.183	0.2041
304.531	0.2023
304.878	0.1999
305.224	0.1978
305.571	0.1965
305.918	0.1945
306.265	0.1916
306.611	0.1907
306.958	0.1885
307.304	0.1857
307.651	0.1851
307.997	0.1827
308.343	0.182
308.689	0.1808
309.035	0.1793
309.381	0.1787
309.727	0.1774
310.073	0.1765
310.419	0.1746
310.764	0.1746
311.11	0.174
311.455	0.173
311.801	0.1725
312.146	0.1718
312.491	0.1712
312.837	0.1705
313.182	0.1706
313.527	0.1696
313.872	0.1705
314.216	0.1687
314.561	0.169
314.906	0.1689
315.251	0.1692
315.595	0.1694
315.94	0.1689
316.284	0.1696
316.628	0.1697
316.972	0.1695
317.317	0.1693
317.661	0.17
318.005	0.1707
318.348	0.1706
318.692	0.1708
319.036	0.1722
319.38	0.1731
319.723	0.1729
320.067	0.1733
320.41	0.1742
320.754	0.1756
321.097	0.1759
321.44	0.1762
321.783	0.1776
322.126	0.1782
322.469	0.1793
322.812	0.1811
323.155	0.1825
323.498	0.1831
323.84	0.1841
324.183	0.1847
324.525	0.186
324.868	0.1869
325.21	0.188
325.552	0.1896
325.894	0.1905
326.236	0.1912
326.578	0.1929
326.92	0.1941
327.262	0.1948
327.604	0.1952
327.946	0.1974
328.287	0.1992
328.629	0.2008
328.97	0.2015
329.312	0.2029
329.653	0.2036
329.994	0.2058
330.335	0.2066
330.676	0.2087
331.017	0.2092
331.358	0.212
331.699	0.2127
332.04	0.2141
332.38	0.2155
332.721	0.2172
333.061	0.219
333.402	0.2198
333.742	0.2217
334.083	0.2223
334.423	0.2241
334.763	0.2249
335.103	0.2264
335.443	0.2275
335.783	0.2284
336.123	0.2297
336.462	0.2308
336.802	0.2312
337.141	0.2325
337.481	0.2338
337.82	0.2352
338.16	0.2363
338.499	0.2374
338.838	0.2386
339.177	0.2396
339.516	0.2406
339.855	0.2419
340.194	0.243
340.533	0.2438
340.872	0.2436
341.21	0.2452
341.549	0.246
341.887	0.2466
342.226	0.2477
342.564	0.2473
342.902	0.2494
343.24	0.2493
343.578	0.2499
343.916	0.2494
344.254	0.2501
344.592	0.2503
344.93	0.2504
345.268	0.2505
345.605	0.2504
345.943	0.2509
346.28	0.2514
346.618	0.251
346.955	0.2514
347.292	0.2517
347.629	0.2513
347.966	0.2513
348.303	0.2515
348.64	0.2521
348.977	0.2524
349.314	0.2517
349.65	0.2524
349.987	0.2515
350.324	0.2511
350.66	0.2503
350.996	0.2506
351.333	0.2495
351.669	0.2488
352.005	0.2487
352.341	0.2479
352.677	0.2474
353.013	0.2453
353.349	0.2449
353.685	0.2451
354.02	0.2432
354.356	0.2427
354.691	0.2404
355.027	0.2404
355.362	0.2393
355.697	0.238
356.033	0.2372
356.368	0.2369
356.703	0.2352
357.038	0.2353
357.373	0.2329
357.707	0.2326
358.042	0.232
358.377	0.2313
358.711	0.2298
359.046	0.2294
359.38	0.2277
359.715	0.2265
360.049	0.2248
360.383	0.2231
360.717	0.2229
361.051	0.2204
361.385	0.2198
361.719	0.218
362.053	0.2166
362.387	0.2146
362.72	0.2128
363.054	0.2111
363.387	0.2088
363.721	0.2077
364.054	0.2061
364.387	0.204
364.721	0.2031
365.054	0.2013
365.387	0.1992
365.72	0.1967
366.053	0.1957
366.385	0.1944
366.718	0.1923
367.051	0.1919
367.383	0.1898
367.716	0.1889
368.048	0.187
368.381	0.1853
368.713	0.1842
369.045	0.1818
369.377	0.1815
369.709	0.1805
370.041	0.1789
370.373	0.1769
370.705	0.1747
371.037	0.1745
371.368	0.1729
371.7	0.1708
372.031	0.1696
372.363	0.1678
372.694	0.1653
373.025	0.1638
373.356	0.1619
373.688	0.1594
374.019	0.1575
374.35	0.1561
374.68	0.1538
375.011	0.152
375.342	0.1495
375.673	0.1478
376.003	0.1456
376.334	0.1439
376.664	0.1436
376.995	0.1409
377.325	0.1393
377.655	0.1379
377.985	0.1371
378.315	0.1341
378.645	0.1339
378.975	0.1322
379.305	0.1304
379.635	0.1294
379.964	0.128
380.294	0.1279
380.623	0.1258
380.953	0.1238
381.282	0.1236
381.611	0.1217
381.941	0.1205
382.27	0.1189
382.599	0.1177
382.928	0.1164
383.257	0.1149
383.585	0.1138
383.914	0.1118
384.243	0.1099
384.571	0.1077
384.9	0.1059
385.228	0.1054
385.557	0.1033
385.885	0.1022
386.213	0.1009
386.541	0.0982
386.869	0.0969
387.197	0.0956
387.525	0.0944
387.853	0.0928
388.181	0.0912
388.508	0.0904
388.836	0.0888
389.164	0.0873
389.491	0.0868
389.818	0.0854
390.146	0.0842
390.473	0.0828
390.8	0.0815
391.127	0.0802
391.454	0.0801
391.781	0.0788
392.108	0.0774
392.435	0.0779
392.761	0.0762
393.088	0.0745
393.415	0.0737
393.741	0.0731
394.067	0.0722
394.394	0.0718
394.72	0.0709
395.046	0.0699
395.372	0.0681
395.698	0.0672
396.024	0.0663
396.35	0.066
396.676	0.0648
397.001	0.0642
397.327	0.0638
397.653	0.063
397.978	0.0625
398.303	0.0611
398.629	0.0605
398.954	0.0596
399.279	0.0588
399.604	0.0581
399.929	0.0572
400.254	0.0561
400.579	0.0555
400.904	0.0555
401.229	0.0543
401.553	0.0537
401.878	0.054
402.202	0.0531
402.527	0.0522
402.851	0.0515
403.175	0.0513
403.5	0.0512
403.824	0.0506
404.148	0.0505
404.472	0.0501
404.796	0.0499
405.119	0.049
405.443	0.0499
405.767	0.0487
406.09	0.0483
406.414	0.0481
406.737	0.0475
407.061	0.0474
407.384	0.0472
407.707	0.0465
408.03	0.0466
408.353	0.0463
408.676	0.0464
408.999	0.0468
409.322	0.0462
409.645	0.0465
409.968	0.0461
410.29	0.0467
410.613	0.0453
410.935	0.0453
411.258	0.0453
411.58	0.0456
411.902	0.0452
412.224	0.0453
412.546	0.0448
412.868	0.0444
413.19	0.0451
413.512	0.0454
413.834	0.0454
414.156	0.0455
414.477	0.045
414.799	0.0454
415.121	0.0446
415.442	0.0449
415.763	0.0456
416.085	0.0447
416.406	0.045
416.727	0.0445
417.048	0.0454
417.369	0.0447
417.69	0.0456
418.011	0.045
418.331	0.045
418.652	0.045
418.973	0.0442
419.293	0.0444
419.614	0.045
419.934	0.044
420.254	0.0443
420.574	0.0446
420.895	0.045
421.215	0.0451
421.535	0.0444
421.855	0.0447
422.174	0.0444
422.494	0.0443
422.814	0.0447
423.134	0.0453
423.453	0.0448
423.773	0.0447
424.092	0.0451
424.411	0.0459
424.731	0.0455
425.05	0.0451
425.369	0.0456
425.688	0.0449
426.007	0.0451
426.326	0.0444
426.644	0.0444
426.963	0.0448
427.282	0.0449
427.6	0.0447
427.919	0.0451
428.237	0.0447
428.556	0.0456
428.874	0.045
429.192	0.0458
429.51	0.0457
429.828	0.0448
430.146	0.0449
430.464	0.0452
430.782	0.0453
431.1	0.0442
431.418	0.0456
431.735	0.0457
432.053	0.0456
432.37	0.0462
432.688	0.0458
433.005	0.0452
433.322	0.045
433.639	0.0456
433.957	0.0446
434.274	0.0454
434.591	0.0452
434.907	0.0456
435.224	0.046
435.541	0.0451
435.858	0.045
436.174	0.0457
436.491	0.0453
436.807	0.0453
437.124	0.0455
437.44	0.0455
437.756	0.0445
438.072	0.0452
438.388	0.0452
438.704	0.044
439.02	0.045
439.336	0.045
439.652	0.0448
439.968	0.045
440.283	0.0446
440.599	0.0455
440.914	0.045
441.23	0.0457
441.545	0.0452
441.86	0.0444
442.175	0.0443
442.491	0.0448
442.806	0.0441
443.121	0.0446
443.435	0.0443
443.75	0.0449
444.065	0.0447
444.38	0.0438
444.694	0.0437
445.009	0.0445
445.323	0.0442
445.638	0.0442
445.952	0.0434
446.266	0.044
446.58	0.0438
446.894	0.0442
447.208	0.0436
447.522	0.0433
447.836	0.0429
448.15	0.0436
448.464	0.0424
448.777	0.0427
449.091	0.0433
449.404	0.0435
449.718	0.0425
450.031	0.043
450.345	0.0429
450.658	0.0428
450.971	0.0434
451.284	0.0427
451.597	0.0423
451.91	0.042
452.223	0.0425
452.535	0.0426
452.848	0.0413
453.161	0.0414
453.473	0.0405
453.786	0.0415
454.098	0.0413
454.411	0.0411
454.723	0.0413
455.035	0.0407
455.347	0.0401
455.659	0.041
455.971	0.0403
456.283	0.04
456.595	0.0403
456.907	0.0397
457.218	0.0396
457.53	0.0391
457.841	0.0397
458.153	0.0393
458.464	0.0386
458.776	0.0386
459.087	0.0382
459.398	0.0384
459.709	0.0386
460.02	0.0389
460.331	0.0392
460.642	0.0377
460.953	0.0381
461.263	0.0382
461.574	0.0379
461.885	0.038
462.195	0.0373
462.506	0.0364
462.816	0.0374
463.126	0.0373
463.437	0.0361
463.747	0.0364
464.057	0.0368
464.367	0.0367
464.677	0.0363
464.987	0.0357
465.296	0.0358
465.606	0.0362
465.916	0.0352
466.225	0.0352
466.535	0.0347
466.844	0.0348
467.154	0.0341
467.463	0.0339
467.772	0.0339
468.081	0.0337
468.39	0.0327
468.699	0.0338
469.008	0.0331
469.317	0.0336
469.626	0.0331
469.935	0.0327
470.243	0.0332
470.552	0.0331
470.86	0.032
471.169	0.0332
471.477	0.0316
471.785	0.0314
472.093	0.0316
472.402	0.0308
472.71	0.0318
473.018	0.031
473.326	0.0295
473.633	0.0296
473.941	0.0299
474.249	0.0298
474.556	0.0304
474.864	0.0297
475.171	0.0299
475.479	0.0289
475.786	0.0294
476.094	0.029
476.401	0.0288
476.708	0.0286
477.015	0.0284
477.322	0.0279
477.629	0.0274
477.936	0.0276
478.242	0.0266
478.549	0.027
478.856	0.0272
479.162	0.0263
479.469	0.0273
479.775	0.0258
480.081	0.0268
480.388	0.0267
480.694	0.0255
481	0.025
481.306	0.026
481.612	0.0252
481.918	0.0249
482.224	0.025
482.53	0.0249
482.835	0.0245
483.141	0.0245
483.446	0.0247
483.752	0.0236
484.057	0.0234
484.363	0.0232
484.668	0.0238
484.973	0.0223
485.278	0.0223
485.583	0.0225
485.888	0.0221
486.193	0.0223
486.498	0.0224
486.803	0.0218
487.107	0.022
487.412	0.0203
487.717	0.0208
488.021	0.0203
488.325	0.0214
488.63	0.0203
488.934	0.0205
489.238	0.0192
489.542	0.02
489.846	0.0202
490.15	0.0202
490.454	0.0191
490.758	0.0194
491.062	0.0189
491.366	0.0183
491.669	0.0188
491.973	0.0189
492.276	0.0189
492.58	0.019
492.883	0.0187
493.186	0.018
493.489	0.0178
493.792	0.0195
494.096	0.0176
494.399	0.0174
494.701	0.0167
495.004	0.0162
495.307	0.0165
495.61	0.0156
495.912	0.0161
496.215	0.0154
496.517	0.015
496.82	0.0158
497.122	0.0155
497.424	0.0159
497.727	0.0159
498.029	0.0156
498.331	0.0149
498.633	0.0141
498.935	0.0143
499.237	0.0137
499.538	0.0142
499.84	0.015
500.142	0.0137
500.443	0.0138
500.745	0.0146
501.046	0.0128
501.348	0.0138
501.649	0.0132
501.95	0.0137
502.251	0.0144
502.552	0.0128
502.853	0.0126
503.154	0.0122
503.455	0.0118
503.756	0.0119
504.057	0.0113
504.357	0.0123
504.658	0.0125
504.958	0.0116
505.259	0.0122
505.559	0.0118
505.859	0.0119
506.16	0.0115
506.46	0.0115
506.76	0.01
507.06	0.0114
507.36	0.0117
507.66	0.0119
507.96	0.0103
508.259	0.0111
508.559	0.0102
508.859	0.0115
509.158	0.0111
509.457	0.0099
509.757	0.0101
510.056	0.0111
510.355	0.0111
510.655	0.009
510.954	0.0091
511.253	0.0097
511.552	0.0097
511.851	0.009
512.149	0.0098
512.448	0.0089
512.747	0.0078
513.045	0.0091
513.344	0.0083
513.642	0.0091
513.941	0.0091
514.239	0.0077
514.537	0.008
514.836	0.0089
515.134	0.0093
515.432	0.0082
515.73	0.0095
516.028	0.0086
516.326	0.0079
516.623	0.0077
516.921	0.0079
517.219	0.0078
517.516	0.0085
517.814	0.0091
518.111	0.0077
518.409	0.0079
518.706	0.0067
519.003	0.0078
519.3	0.0075
519.597	0.0071
519.894	0.0071
520.191	0.0073
520.488	0.0076
520.785	0.0078
521.082	0.0075
521.378	0.0068
521.675	0.0077
521.971	0.008
522.268	0.007
522.564	0.0065
522.861	0.0073
523.157	0.0067
523.453	0.0069
523.749	0.0057
524.045	0.0065
524.341	0.0069
524.637	0.0059
524.933	0.0063
525.229	0.006
525.524	0.0068
525.82	0.0069
526.115	0.0067
526.411	0.0059
526.706	0.0058
527.002	0.0075
527.297	0.0059
527.592	0.0066
527.887	0.0062
528.182	0.0057
528.477	0.0065
528.772	0.0059
529.067	0.0067
529.362	0.0058
529.657	0.0062
529.951	0.0053
530.246	0.0054
530.54	0.0058
530.835	0.0058
531.129	0.0053
531.423	0.0072
531.718	0.0054
532.012	0.0051
532.306	0.0051
532.6	0.0056
532.894	0.0043
533.188	0.0053
533.482	0.0055
533.775	0.0049
534.069	0.0047
534.363	0.0056
534.656	0.0052
534.95	0.005
535.243	0.0049
535.536	0.0038
535.83	0.0054
536.123	0.0054
536.416	0.0052
536.709	0.0053
537.002	0.0054
537.295	0.0053
537.588	0.0052
537.881	0.0054
538.173	0.0061
538.466	0.0054
538.759	0.0059
539.051	0.0052
539.344	0.0042
539.636	0.0049
539.928	0.0035
540.22	0.0059
540.513	0.0044
540.805	0.0053
541.097	0.0057
541.389	0.0044
541.681	0.005
541.972	0.0057
542.264	0.0063
542.556	0.0057
542.847	0.0055
543.139	0.0058
543.431	0.0059
543.722	0.0048
544.013	0.0043
544.305	0.0045
544.596	0.0046
544.887	0.0041
545.178	0.0041
545.469	0.0036
545.76	0.0048
546.051	0.0031
546.342	0.0045
546.632	0.005
546.923	0.005
547.214	0.005
547.504	0.0052
547.795	0.0058
548.085	0.0058
548.375	0.0054
548.666	0.0053
548.956	0.0052
549.246	0.005
549.536	0.0047
549.826	0.0055
550.116	0.005
550.406	0.0059
550.695	0.0051
550.985	0.0049
551.275	0.0051
551.564	0.0045
551.854	0.0049
552.143	0.0055
552.433	0.004
552.722	0.006
553.011	0.0062
553.3	0.005
553.589	0.0041
553.879	0.0053
554.167	0.0042
554.456	0.0042
554.745	0.0044
555.034	0.0044
555.323	0.0047
555.611	0.0042
555.9	0.0037
556.188	0.0046
556.477	0.0056
556.765	0.0055
557.053	0.005
557.342	0.0045
557.63	0.0043
557.918	0.0039
558.206	0.0059
558.494	0.0048
558.782	0.0069
559.069	0.0057
559.357	0.0075
559.645	0.0061
559.932	0.0056
560.22	0.0049
560.507	0.0049
560.795	0.0065
561.082	0.0064
561.37	0.0064
561.657	0.0063
561.944	0.0064
562.231	0.0049
562.518	0.006
562.805	0.0053
563.092	0.0049
563.379	0.006
563.665	0.0049
563.952	0.0048
564.239	0.0059
564.525	0.0041
564.811	0.0049
565.098	0.0068
565.384	0.0057
565.67	0.006
565.957	0.0057
566.243	0.0061
566.529	0.0047
566.815	0.0054
567.101	0.0054
567.387	0.0063
567.672	0.006
567.958	0.0056
568.244	0.0054
568.529	0.0058
568.815	0.0047
569.1	0.0048
569.386	0.0051
569.671	0.0054
569.956	0.0047
570.242	0.0059
570.527	0.0062
570.812	0.0054
571.097	0.0053
571.382	0.0046
571.666	0.0056
571.951	0.005
572.236	0.0051
572.521	0.006
572.805	0.0052
573.09	0.005
573.374	0.0046
573.659	0.0053
573.943	0.0047
574.227	0.0053
574.511	0.0044
574.795	0.0052
575.079	0.0057
575.363	0.0059
575.647	0.0051
575.931	0.0055
576.215	0.0051
576.499	0.006
576.782	0.0053
577.066	0.006
577.349	0.0062
577.633	0.006
577.916	0.0051
578.2	0.0053
578.483	0.0045
578.766	0.0044
579.049	0.0053
579.332	0.0045
579.615	0.0051
579.898	0.0047
580.181	0.0048
580.464	0.0047
580.746	0.0042
581.029	0.005
581.312	0.0044
581.594	0.0039
581.877	0.0045
582.159	0.0045
582.441	0.0043
582.724	0.0045
583.006	0.0047
583.288	0.0055
583.57	0.0046
583.852	0.0056
584.134	0.0055
584.416	0.0042
584.697	0.0055
584.979	0.0048
585.261	0.0051
585.542	0.0044
585.824	0.0044
586.105	0.0035
586.387	0.0038
586.668	0.0044
586.949	0.0043
587.231	0.0046
587.512	0.0052
587.793	0.0046
588.074	0.0055
588.355	0.0045
588.636	0.0042
588.916	0.004
589.197	0.0049
589.478	0.0057
589.758	0.0053
590.039	0.0044
590.319	0.005
590.6	0.0046
590.88	0.005
591.16	0.0052
591.441	0.006
591.721	0.0045
592.001	0.0057
592.281	0.0055
592.561	0.0049
592.841	0.0044
593.12	0.0036
593.4	0.0041
593.68	0.0048
593.959	0.0051
594.239	0.0046
594.518	0.005
594.798	0.0047
595.077	0.0052
595.356	0.005
595.636	0.0049
595.915	0.006
596.194	0.006
596.473	0.006
596.752	0.0059
597.031	0.0042
597.31	0.006
597.588	0.0058
597.867	0.0045
598.146	0.005
598.424	0.0054
598.703	0.0052
598.981	0.0053
599.259	0.0048
599.538	0.0052
599.816	0.0054
600.094	0.0045
600.372	0.0047
600.65	0.0047
600.928	0.005
601.206	0.005
601.484	0.0049
601.762	0.0053
602.04	0.0057
602.317	0.0057
602.595	0.005
602.872	0.0058
603.15	0.0055
603.427	0.0047
603.704	0.0055
603.982	0.0045
604.259	0.0047
604.536	0.005
604.813	0.0057
605.09	0.0045
605.367	0.0047
605.644	0.0044
605.921	0.005
606.197	0.005
606.474	0.0047
606.751	0.0041
607.027	0.0041
607.304	0.0041
607.58	0.0041
607.856	0.0042
608.133	0.0043
608.409	0.0049
608.685	0.0049
608.961	0.0049
609.237	0.0041
609.513	0.0046
609.789	0.0037
610.065	0.003
610.341	0.0039
610.616	0.0033
610.892	0.004
611.167	0.004
611.443	0.0037
611.718	0.0031
611.994	0.0032
612.269	0.0046
612.544	0.0034
612.819	0.0037
613.095	0.0034
613.37	0.0027
613.645	0.0025
613.919	0.0017
614.194	0.0021
614.469	0.0026
614.744	0.0017
615.019	0.0021
615.293	0.0026
615.568	0.0033
615.842	0.0027
616.116	0.0032
616.391	0.0026
616.665	0.0036
616.939	0.0038
617.213	0.0035
617.488	0.0046
617.762	0.004
618.035	0.0045
618.309	0.004
618.583	0.0045
618.857	0.0051
619.131	0.0047
619.404	0.0042
619.678	0.004
619.951	0.0032
620.225	0.0036
620.498	0.0041
620.771	0.0044
621.045	0.0036
621.318	0.0038
621.591	0.0033
621.864	0.0024
622.137	0.0023
622.41	0.0035
622.683	0.0034
622.956	0.0033
623.228	0.0039
623.501	0.0033
623.774	0.0032
624.046	0.0038
624.319	0.0035
624.591	0.0031
624.863	0.004
625.136	0.0052
625.408	0.005
625.68	0.0046
625.952	0.0049
626.224	0.0057
626.496	0.0033
626.768	0.0045
627.04	0.0037
627.311	0.0035
627.583	0.0023
627.855	0.003
628.126	0.003
628.398	0.0028
628.669	0.0042
628.941	0.0026
629.212	0.0037
629.483	0.0042
629.755	0.0039
630.026	0.0042
630.297	0.004
630.568	0.0051
630.839	0.0049
631.11	0.0057
631.38	0.0046
631.651	0.0055
631.922	0.0036
632.192	0.0031
632.463	0.0029
632.733	0.0036
633.004	0.004
633.274	0.0036
633.545	0.0039
633.815	0.0044
634.085	0.0051
634.355	0.004
634.625	0.0036
634.895	0.0037
635.165	0.0022
635.435	0.0023
635.705	0.0023
635.974	0.0026
636.244	0.0025
636.514	0.0032
636.783	0.0039
637.053	0.0036
637.322	0.0016
637.591	0.0027
637.861	0.0031
638.13	0.0021
638.399	0.0034
638.668	0.0031
638.937	0.0025
639.206	0.0022
639.475	0.0029
639.744	0.0016
640.013	0.0003
640.281	0.0011
640.55	0.0021
640.819	0.0017
641.087	0.0032
641.356	0.0024
641.624	0.0034
641.892	0.002
642.161	0.0028
642.429	0.0036
642.697	0.0026
642.965	0.0033
643.233	0.0032
643.501	0.0026
643.769	0.0019
644.037	0.0009
644.305	0.001
644.572	0.0011
644.84	0.0012
645.108	-0.0001
645.375	-0
645.643	-0.0003
645.91	-0.0005
646.177	0.0006
646.445	0.0001
646.712	0.0007
646.979	0.0022
647.246	0.0019
647.513	0.0024
647.78	0.0026
648.047	0.0015
648.314	0.0017
648.58	0.0019
648.847	0.0016
649.114	0.0018
649.38	0.0024
649.647	0.0021
649.913	0.0032
650.18	0.0026
650.446	0.0014
650.712	0.0021
650.978	-0.0001
651.245	-0.0007
651.511	-0.0005
651.777	-0.0004
652.043	-0.0007
652.309	-0.0003
652.574	0.0005
652.84	0.0006
653.106	0.0005
653.371	0.0006
653.637	0.0015
653.903	0.0005
654.168	0.0021
654.433	0.0015
654.699	0.0023
654.964	0.0014
655.229	0.001
655.494	-0.0008
655.759	-0.0009
656.024	0.0009
656.289	-0
656.554	0.0004
656.819	0
657.084	-0
657.349	-0.0002
657.613	0.0016
657.878	0.0014
658.142	0.0019
658.407	0.0013
658.671	0.0012
658.936	0.0025
659.2	0.0028
659.464	0.0017
659.728	0.0023
659.992	0.002
660.256	0.0012
660.52	0.0004
660.784	0.0005
661.048	0
661.312	-0.0007
661.575	-0.0011
661.839	-0.0008
662.103	-0.001
662.366	0.0001
662.63	-0.0008
662.893	0.0014
663.156	0.0006
663.42	0.0017
663.683	0.0022
663.946	0.0012
664.209	0.0015
664.472	0.0021
664.735	0.0004
664.998	0.0021
665.261	0.0027
665.524	0.0019
665.786	0.0011
666.049	0.0005
666.312	0.0008
666.574	-0
666.837	0.0007
667.099	0.0005
667.361	0.0003
667.624	0.001
667.886	0.0004
668.148	0.0005
668.41	0.0012
668.672	0.0017
668.934	0.0021
669.196	0.0022
669.458	0.0009
669.72	0.0002
669.982	-0.0006
670.243	0.0001
670.505	-0.0002
670.766	0.0003
671.028	-0.0005
671.289	0.0009
671.551	0.001
671.812	0.0011
672.073	0.001
672.334	0.0025
672.596	0.0024
672.857	0.001
673.118	0.0003
673.379	0.0011
673.639	0.0016
673.9	0.0027
674.161	0.0012
674.422	0.0004
674.682	0.0001
674.943	-0.0006
675.203	-0.0011
675.464	-0.0005
675.724	-0.0011
675.985	-0.0005
676.245	-0.0001
676.505	0.0012
676.765	0.0011
677.025	0.0023
677.285	0.0029
677.545	0.0031
677.805	0.0003
678.065	0.0007
678.325	0.0002
678.585	0.0005
678.844	-0.0006
679.104	-0.0006
679.363	-0.0005
679.623	-0.0003
679.882	-0.0004
680.142	0.0003
680.401	0.0014
680.66	0.0014
680.919	0.001
681.178	0.001
681.437	0.0006
681.696	-0.0001
681.955	0.0009
682.214	0.0007
682.473	-0.0005
682.732	0.0003
682.99	0.0001
683.249	-0
683.508	-0
683.766	0.0015
684.024	0.0014
684.283	0.0017
684.541	0.0021
684.799	0.0023
685.058	0.0006
685.316	0.001
685.574	0.0004
685.832	0.0004
686.09	0.0002
686.348	0.0006
686.606	0.0011
686.863	0.0021
687.121	0.0012
687.379	0.0006
687.636	0.0002
687.894	-0
688.151	0.0002
688.409	-0.0013
688.666	-0.0017
688.923	-0.0019
689.181	-0.0019
689.438	-0.0013
689.695	-0.0017
689.952	-0.0004
690.209	0.0006
690.466	0.0003
690.723	-0.0004
690.979	0.0004
691.236	-0.0008
691.493	-0.0005
691.75	0.0001
692.006	0.0019
692.263	0.0025
692.519	0.0029
692.775	0.002
693.032	0.0016
693.288	0.0005
693.544	0.0004
693.8	0.0011
694.056	0.0004
694.313	0.0009
694.568	0.0008
694.824	0.0017
695.08	0.0007
695.336	-0.0009
695.592	-0.0007
695.847	-0.0003
696.103	0.0001
696.359	0.0017
696.614	-0.0003
696.869	-0.0011
697.125	-0.0015
697.38	-0.0013
697.635	-0.0015
697.891	-0.0012
698.146	-0.0005
698.401	-0.0007
698.656	0
698.911	0.0002
699.166	-0.0007
699.42	-0.0006
699.675	-0.0001
699.93	0
700.185	-0.0001
700.439	0.0001
700.694	0.0016
700.948	0.0018
701.203	0.0012
701.457	0.003
701.711	0.0038
701.965	0.0035
702.22	0.0033
702.474	0.0039
702.728	0.0031
702.982	0.0031
703.236	0.003
703.49	0.0042
703.743	0.0034
703.997	0.0042
704.251	0.0037
704.504	0.002
704.758	0.0017
705.012	0.0013
705.265	-0
705.518	0.0003
705.772	0.0003
706.025	0.0006
706.278	0.0007
706.531	0.0008
706.785	0.0003
707.038	-0.001
707.291	-0.0005
707.543	-0.0014
707.796	-0.0019
708.049	-0.0018
708.302	-0.0025
708.555	-0.0024
708.807	-0.0015
709.06	-0.0009
709.312	-0.0014
709.565	-0.0013
709.817	-0.0012
710.069	-0.002
710.322	-0.0018
710.574	-0.0028
710.826	-0.0021
711.078	-0.0028
711.33	-0.0027
711.582	-0.0023
711.834	-0.001
712.086	-0.0007
712.338	-0.0021
712.59	-0.0022
712.841	-0.0034
713.093	-0.0014
713.344	-0.0006
713.596	-0.0016
713.847	-0.0009
714.099	-0.0009
714.35	-0.001
714.601	-0.0014
714.853	-0.0018
715.104	-0.0011
715.355	-0.0008
715.606	-0.001
715.857	-0.0004
716.108	-0
716.359	-0.0003
716.609	-0.0008
716.86	-0.002
717.111	-0.0028
717.361	-0.0034
717.612	-0.0014
717.863	-0.0013
718.113	-0.0013
718.363	-0.0019
718.614	-0.0016
718.864	-0.0031
719.114	-0.0025
719.364	-0.0008
719.614	-0.0018
719.865	-0.0011
720.114	-0.0006
720.364	-0.0022
720.614	-0.002
720.864	-0.0013
721.114	-0.0013
721.364	-0.0005
721.613	-0.0001
721.863	-0.0013
722.112	0.0007
722.362	0.001
722.611	0.0017
722.86	0.0013
723.11	0.0011
723.359	0.0025
723.608	0.0025
723.857	0.003
724.106	0.0039
724.355	0.0026
724.604	0.0027
724.853	0.0016
725.102	0.0018
725.351	0.0005
725.599	0.0015
725.848	0.0018
726.097	0.0022
726.345	0.0016
726.594	0.0021
726.842	0.002
727.09	0.0027
727.339	0.0029
727.587	0.0012
727.835	0.0017
728.083	0.0006
728.331	0.0013
728.579	0.0003
728.827	-0.0001
729.075	-0.0001
729.323	-0.0009
729.571	0.0002
729.818	-0.0002
730.066	0.0002
730.314	0.0004
730.561	0.0014
730.809	0.0003
731.056	0.0003
731.303	0.0012
731.551	0.0011
731.798	0.0018
732.045	0.0008
732.292	0.0007
732.539	0.0008
732.786	0.0004
733.033	-0.0002
733.28	-0.0005
733.527	-0.0003
733.774	-0.0016
734.021	-0.0014
734.267	-0.001
734.514	-0.0014
734.76	-0.0015
735.007	-0.0012
735.253	-0.0011
735.5	-0.0005
735.746	-0.0013
735.992	-0.0002
736.238	0.0009
736.485	0.0001
736.731	0.0013
736.977	0.0008
737.223	0.0008
737.469	0.0006
737.715	-0.0004
737.96	0.0002
738.206	0.0013
738.452	0.0006
738.697	0.0013
738.943	-0.0001
739.189	0.0008
739.434	-0.0003
739.679	0.0008
739.925	-0.0003
740.17	-0
740.415	0.0002
740.66	0.0002
740.906	-0.0004
741.151	0
741.396	0.0015
741.641	0.0008
741.886	-0
742.13	-0.0003
742.375	-0.0004
742.62	-0.0003
742.865	-0.0007
743.109	-0.0001
743.354	0.0006
743.598	0.0001
743.843	-0.0005
744.087	-0.0003
744.331	0
744.576	0.0011
744.82	0.0016
745.064	0.0022
745.308	0.0021
745.552	0.0011
745.796	0.0006
746.04	0.0001
746.284	-0.0016
746.528	-0.002
746.771	-0.0016
747.015	-0.0016
747.259	-0.0027
747.502	-0.0039
747.746	-0.0046
747.989	-0.0032
748.233	-0.0032
748.476	-0.0025
748.719	-0.0021
748.963	-0.0029
749.206	-0.0028
749.449	-0.0026
749.692	-0.0018
749.935	-0.0006
750.178	-0.0016
750.421	-0.0005
750.664	-0.0005
750.906	-0.0006
751.149	0.0001
751.392	0.0002
751.635	0
751.877	-0.0003
752.12	-0.0005
752.362	-0.0023
752.604	-0.0024
752.847	-0.0026
753.089	-0.0027
753.331	-0.0034
753.573	-0.0027
753.816	-0.0035
754.058	-0.0028
754.3	-0.0031
754.542	-0.002
754.783	-0.0019
755.025	-0.0016
755.267	-0.0003
755.509	-0.0013
755.75	-0.0016
755.992	-0.0014
756.234	-0.0011
756.475	-0.0007
756.716	-0.0001
756.958	-0.001
757.199	-0.0003
757.44	-0.0006
757.682	-0.0022
757.923	-0.0012
758.164	-0.0001
758.405	0.0004
758.646	0.0001
758.887	0.0019
759.128	0.0015
759.369	0.0006
759.609	0.0005
759.85	0.0003
760.091	0.0013
760.331	0.0005
760.572	0.0006
760.812	-0.0009
761.053	-0.0007
761.293	-0.0019
761.533	-0.0015
761.774	-0.0006
762.014	-0.0023
762.254	-0.002
762.494	-0.0025
762.734	-0.0015
762.974	-0.0006
763.214	-0.0001
763.454	-0.0003
763.694	-0.0006
763.933	0.0001
764.173	-0.0019
764.413	-0.0013
764.652	-0.0023
764.892	-0.0029
765.131	-0.0027
765.371	-0.002
765.61	-0.0027
765.849	-0.0041
766.089	-0.0035
766.328	-0.0031
766.567	-0.0018
766.806	-0.0008
767.045	0.0005
767.284	0.0012
767.523	0.0017
767.762	0.0009
768.001	0.0004
768.239	0.0001
768.478	0.0001
768.717	0.0007
768.955	-0.0003
769.194	-0.0002
769.432	-0.0005
769.671	-0.0008
769.909	0.0005
770.148	0.0003
770.386	-0.0012
770.624	0.0007
770.862	0.001
771.1	-0.0002
771.338	-0.0001
771.576	-0
771.814	0.0007
772.052	0.0017
772.29	0.0007
772.528	0.0003
772.765	-0.0003
773.003	-0
773.24	0.0006
773.478	0.0009
773.716	0.002
773.953	0.0016
774.19	0.0017
774.428	0.0026
774.665	0.0018
774.902	0.0024
775.139	0.0016
775.376	0.001
775.613	0.0022
775.85	0.0021
776.087	0.0021
776.324	0.0024
776.561	0.0029
776.798	0.003
777.034	0.0024
777.271	0.0028
777.508	0.0028
777.744	0.0015
777.981	0.0015
778.217	0.0023
778.454	0.002
778.69	0.0034
778.926	0.0033
779.162	0.0034
779.399	0.005
779.635	0.0045
779.871	0.0038
780.107	0.0036
780.343	0.0029
780.579	0.0016
780.814	0.002
781.05	0.0011
781.286	0.0008
781.522	-0.0003
781.757	0.0015
781.993	0.0017
782.228	0.0017
782.464	0.0016
782.699	0.0013
782.934	-0.0013
783.17	-0.0014
783.405	-0.0034
783.64	-0.0031
783.875	-0.004
784.11	-0.0032
784.345	-0.0026
784.58	-0.0021
784.815	-0.0024
785.05	-0.0031
785.285	-0.0023
785.52	-0.0029
785.754	-0.0027
785.989	-0.0017
786.223	-0.0008
786.458	0
786.692	0.0002
786.927	0.0003
787.161	0.0002
787.396	0.0002
787.63	-0.0007
787.864	-0.0025
788.098	-0.0021
788.332	-0.0023
788.566	-0.0022
788.8	-0.0031
789.034	-0.0028
789.268	-0.0023
789.502	-0.0025
789.736	-0.0029
789.969	-0.0026
790.203	-0.0036
790.437	-0.0027
790.67	-0.0023
790.904	-0.0028
791.137	-0.0021
791.37	-0.003
791.604	-0.0043
791.837	-0.0042
792.07	-0.0027
792.303	-0.0045
792.537	-0.0042
792.77	-0.0045
793.003	-0.0049
793.236	-0.0053
793.469	-0.0045
793.701	-0.003
793.934	-0.0031
794.167	-0.0029
794.4	-0.0034
794.632	-0.003
794.865	-0.0033
795.097	-0.0035
795.33	-0.0039
795.562	-0.0034
795.795	-0.0033
796.027	-0.004
796.259	-0.0045
796.491	-0.003
796.724	-0.0018
796.956	-0.003
797.188	-0.0014
797.42	-0.001
797.652	-0.0002
797.883	0
798.115	-0.0003
798.347	-0.0002
798.579	-0.0014
798.81	-0.0012
799.042	-0.0034
799.274	-0.0025
799.505	-0.0028
799.737	-0.0023
799.968	-0.0029
800.199	-0.0032
800.431	-0.0025
800.662	-0.0024
800.893	-0.0033
801.124	-0.0025
801.355	-0.0027
801.586	-0.0019
801.817	-0.001
802.048	-0.0006
802.279	0.0011
802.51	0.0006
802.741	0.0004
802.971	-0.0012
803.202	-0.0013
803.433	-0.0011
803.663	-0.0016
803.894	-0.0005
804.124	0.0008
804.354	0.0008
804.585	0.0006
804.815	0.0007
805.045	-0.0001
805.275	0.0006
805.506	-0.001
805.736	-0.0239
805.966	0.0217
806.196	0.022
