Data from 04 0.5 mM K2Cr2O7 0.3 mM BQDS 1 M H2SO4 5 min_ 29_min_gap_Absorbance_0033.txt Node
Date: Tue Dec 14 15:27:56 EST 2021
User: kwabilab-user
Spectrometer: HDX00518
Trigger mode: 0
Integration Time (sec): 5.000000E-2
Scans to average: 50
Nonlinearity correction enabled: false
Boxcar width: 0
Storing dark spectrum: false
XAxis mode: Wavelengths
Number of Pixels in Spectrum: 2068
>>>>>Begin Spectral Data<<<<<
195.27	0.2368
195.642	0.3321
196.014	0.1028
196.386	0.2165
196.758	0.0954
197.129	0.0519
197.501	0.0845
197.872	0.078
198.244	0.084
198.615	0.0886
198.986	0.0904
199.357	0.0844
199.728	0.0917
200.099	0.0988
200.47	0.0882
200.841	0.103
201.212	0.1063
201.582	0.0838
201.953	0.0939
202.323	0.1059
202.694	0.0872
203.064	0.0787
203.434	0.0967
203.804	0.0934
204.174	0.0783
204.544	0.1144
204.914	0.0754
205.284	0.094
205.653	0.0862
206.023	0.1011
206.393	0.0891
206.762	0.091
207.131	0.1002
207.501	0.0725
207.87	0.108
208.239	0.0957
208.608	0.1093
208.977	0.0951
209.346	0.1002
209.715	0.1039
210.083	0.104
210.452	0.1051
210.82	0.1031
211.189	0.0957
211.557	0.1003
211.925	0.1296
212.294	0.1377
212.662	0.1255
213.03	0.108
213.398	0.1378
213.766	0.1142
214.133	0.1016
214.501	0.1162
214.869	0.1377
215.236	0.1285
215.604	0.1096
215.971	0.12
216.338	0.1068
216.705	0.1285
217.072	0.126
217.439	0.1192
217.806	0.1685
218.173	0.1381
218.54	0.1705
218.907	0.1556
219.273	0.1744
219.64	0.1816
220.006	0.212
220.373	0.1922
220.739	0.2169
221.105	0.2348
221.471	0.2582
221.837	0.2711
222.203	0.3129
222.569	0.3188
222.935	0.3446
223.3	0.3574
223.666	0.4024
224.031	0.4048
224.397	0.4199
224.762	0.46
225.127	0.495
225.493	0.5067
225.858	0.5421
226.223	0.571
226.588	0.5898
226.952	0.6115
227.317	0.6651
227.682	0.643
228.046	0.6484
228.411	0.6981
228.775	0.7076
229.14	0.7074
229.504	0.7268
229.868	0.7323
230.232	0.7376
230.596	0.7634
230.96	0.7764
231.324	0.7693
231.688	0.7659
232.052	0.7923
232.415	0.7931
232.779	0.8077
233.142	0.7957
233.505	0.8013
233.869	0.8095
234.232	0.8184
234.595	0.7929
234.958	0.8007
235.321	0.7992
235.684	0.7908
236.047	0.7878
236.409	0.7788
236.772	0.7852
237.134	0.7818
237.497	0.7706
237.859	0.7722
238.222	0.7644
238.584	0.7618
238.946	0.7523
239.308	0.7455
239.67	0.7535
240.032	0.7394
240.393	0.7377
240.755	0.74
241.117	0.731
241.478	0.7228
241.84	0.7234
242.201	0.7117
242.562	0.7036
242.924	0.7019
243.285	0.6953
243.646	0.6925
244.007	0.6903
244.368	0.6838
244.728	0.684
245.089	0.6786
245.45	0.6662
245.81	0.664
246.171	0.668
246.531	0.6643
246.891	0.6621
247.252	0.6532
247.612	0.6542
247.972	0.6507
248.332	0.6472
248.692	0.6443
249.051	0.6415
249.411	0.641
249.771	0.6361
250.13	0.6314
250.49	0.6349
250.849	0.6302
251.208	0.6256
251.568	0.6291
251.927	0.6255
252.286	0.6236
252.645	0.6221
253.004	0.6202
253.363	0.6161
253.721	0.6195
254.08	0.615
254.439	0.6077
254.797	0.6032
255.155	0.6072
255.514	0.6081
255.872	0.6108
256.23	0.6085
256.588	0.6057
256.946	0.6035
257.304	0.6009
257.662	0.5997
258.02	0.599
258.377	0.5948
258.735	0.5964
259.093	0.5959
259.45	0.5912
259.807	0.5932
260.165	0.587
260.522	0.5899
260.879	0.5857
261.236	0.5823
261.593	0.5815
261.95	0.5812
262.306	0.5798
262.663	0.5757
263.02	0.575
263.376	0.5736
263.733	0.5695
264.089	0.566
264.445	0.5668
264.802	0.5643
265.158	0.5639
265.514	0.5614
265.87	0.5584
266.226	0.5613
266.581	0.5578
266.937	0.5542
267.293	0.5532
267.648	0.5508
268.004	0.5457
268.359	0.5474
268.714	0.546
269.07	0.5391
269.425	0.5435
269.78	0.5348
270.135	0.5318
270.49	0.5349
270.844	0.5315
271.199	0.5303
271.554	0.5261
271.908	0.5261
272.263	0.5202
272.617	0.5156
272.972	0.5163
273.326	0.5121
273.68	0.5104
274.034	0.5077
274.388	0.5036
274.742	0.5052
275.096	0.5019
275.45	0.4968
275.803	0.4983
276.157	0.4934
276.51	0.486
276.864	0.485
277.217	0.4811
277.571	0.4799
277.924	0.4751
278.277	0.4719
278.63	0.4676
278.983	0.4678
279.336	0.4612
279.688	0.46
280.041	0.452
280.394	0.4513
280.746	0.4479
281.099	0.4449
281.451	0.4413
281.803	0.434
282.156	0.4294
282.508	0.4283
282.86	0.427
283.212	0.423
283.564	0.4186
283.916	0.4136
284.267	0.4093
284.619	0.4043
284.971	0.4008
285.322	0.3963
285.673	0.3947
286.025	0.3897
286.376	0.3859
286.727	0.3821
287.078	0.3785
287.429	0.3753
287.78	0.371
288.131	0.3661
288.482	0.3622
288.833	0.3593
289.183	0.3539
289.534	0.349
289.884	0.3483
290.235	0.3411
290.585	0.3379
290.935	0.3339
291.285	0.3298
291.635	0.3263
291.985	0.3222
292.335	0.3173
292.685	0.3152
293.035	0.3103
293.384	0.3067
293.734	0.3031
294.083	0.2983
294.433	0.2956
294.782	0.2914
295.131	0.2871
295.48	0.2836
295.829	0.2806
296.179	0.2755
296.527	0.2733
296.876	0.2686
297.225	0.2654
297.574	0.2614
297.922	0.2575
298.271	0.2543
298.619	0.25
298.968	0.2462
299.316	0.243
299.664	0.2418
300.012	0.2378
300.36	0.2334
300.708	0.2298
301.056	0.2288
301.404	0.2241
301.752	0.2212
302.099	0.218
302.447	0.2165
302.794	0.2131
303.142	0.2117
303.489	0.2085
303.836	0.2055
304.183	0.2038
304.531	0.2012
304.878	0.1988
305.224	0.1975
305.571	0.1957
305.918	0.1925
306.265	0.1912
306.611	0.1885
306.958	0.1878
307.304	0.1851
307.651	0.1847
307.997	0.1827
308.343	0.1821
308.689	0.1808
309.035	0.1783
309.381	0.1775
309.727	0.1771
310.073	0.1749
310.419	0.1737
310.764	0.1739
311.11	0.1733
311.455	0.1719
311.801	0.1722
312.146	0.1706
312.491	0.1706
312.837	0.1701
313.182	0.1703
313.527	0.1687
313.872	0.1688
314.216	0.1682
314.561	0.1684
314.906	0.1684
315.251	0.1686
315.595	0.1687
315.94	0.1686
316.284	0.1687
316.628	0.1688
316.972	0.1687
317.317	0.1695
317.661	0.1692
318.005	0.1699
318.348	0.1702
318.692	0.1704
319.036	0.1716
319.38	0.172
319.723	0.1723
320.067	0.173
320.41	0.1731
320.754	0.1746
321.097	0.1752
321.44	0.1754
321.783	0.1768
322.126	0.1782
322.469	0.1786
322.812	0.1802
323.155	0.1813
323.498	0.1818
323.84	0.1832
324.183	0.1844
324.525	0.185
324.868	0.1861
325.21	0.1868
325.552	0.1887
325.894	0.1902
326.236	0.1906
326.578	0.1913
326.92	0.1926
327.262	0.1937
327.604	0.195
327.946	0.1968
328.287	0.1985
328.629	0.2002
328.97	0.201
329.312	0.2018
329.653	0.2032
329.994	0.2047
330.335	0.2058
330.676	0.2083
331.017	0.2093
331.358	0.2106
331.699	0.2122
332.04	0.2136
332.38	0.2144
332.721	0.216
333.061	0.2181
333.402	0.2195
333.742	0.2207
334.083	0.2216
334.423	0.2227
334.763	0.2245
335.103	0.2249
335.443	0.2268
335.783	0.2275
336.123	0.2278
336.462	0.2297
336.802	0.2311
337.141	0.2308
337.481	0.233
337.82	0.2338
338.16	0.2354
338.499	0.2366
338.838	0.237
339.177	0.2383
339.516	0.2387
339.855	0.2402
340.194	0.2412
340.533	0.2424
340.872	0.2421
341.21	0.2441
341.549	0.2445
341.887	0.2452
342.226	0.2468
342.564	0.2465
342.902	0.2476
343.24	0.2485
343.578	0.2478
343.916	0.249
344.254	0.2483
344.592	0.2492
344.93	0.2496
345.268	0.2489
345.605	0.2494
345.943	0.2496
346.28	0.2503
346.618	0.2501
346.955	0.2501
347.292	0.2502
347.629	0.2495
347.966	0.2505
348.303	0.2506
348.64	0.2505
348.977	0.2511
349.314	0.2497
349.65	0.2512
349.987	0.2508
350.324	0.2504
350.66	0.2489
350.996	0.2501
351.333	0.2489
351.669	0.2482
352.005	0.2469
352.341	0.2464
352.677	0.2455
353.013	0.2445
353.349	0.2439
353.685	0.2432
354.02	0.2413
354.356	0.2417
354.691	0.24
355.027	0.2385
355.362	0.2373
355.697	0.2369
356.033	0.236
356.368	0.2352
356.703	0.2335
357.038	0.2332
357.373	0.2315
357.707	0.2314
358.042	0.2301
358.377	0.2301
358.711	0.2294
359.046	0.2281
359.38	0.2259
359.715	0.2258
360.049	0.2242
360.383	0.2223
360.717	0.2219
361.051	0.2197
361.385	0.2181
361.719	0.2165
362.053	0.2156
362.387	0.2127
362.72	0.2116
363.054	0.2106
363.387	0.2089
363.721	0.207
364.054	0.205
364.387	0.2028
364.721	0.2016
365.054	0.1997
365.387	0.1985
365.72	0.1965
366.053	0.195
366.385	0.1943
366.718	0.1921
367.051	0.1908
367.383	0.1887
367.716	0.1875
368.048	0.1854
368.381	0.1849
368.713	0.1831
369.045	0.1819
369.377	0.181
369.709	0.1795
370.041	0.1779
370.373	0.1766
370.705	0.1747
371.037	0.1733
371.368	0.1714
371.7	0.1698
372.031	0.1681
372.363	0.1661
372.694	0.1645
373.025	0.1631
373.356	0.1609
373.688	0.1583
374.019	0.1566
374.35	0.1552
374.68	0.1528
375.011	0.1511
375.342	0.1487
375.673	0.1465
376.003	0.145
376.334	0.1438
376.664	0.1424
376.995	0.1402
377.325	0.1382
377.655	0.1368
377.985	0.1353
378.315	0.1338
378.645	0.1327
378.975	0.1317
379.305	0.1304
379.635	0.1292
379.964	0.1269
380.294	0.1265
380.623	0.1252
380.953	0.1237
381.282	0.1227
381.611	0.1214
381.941	0.1196
382.27	0.119
382.599	0.1174
382.928	0.1159
383.257	0.1145
383.585	0.1125
383.914	0.1117
384.243	0.1094
384.571	0.107
384.9	0.1059
385.228	0.1043
385.557	0.1023
385.885	0.1013
386.213	0.0996
386.541	0.0979
386.869	0.0965
387.197	0.0952
387.525	0.0938
387.853	0.0924
388.181	0.0911
388.508	0.0891
388.836	0.0882
389.164	0.0868
389.491	0.086
389.818	0.0848
390.146	0.0834
390.473	0.0832
390.8	0.0816
391.127	0.0797
391.454	0.0792
391.781	0.0781
392.108	0.0772
392.435	0.0763
392.761	0.0758
393.088	0.0744
393.415	0.0731
393.741	0.0729
394.067	0.0722
394.394	0.0718
394.72	0.0705
395.046	0.0688
395.372	0.0678
395.698	0.0668
396.024	0.0661
396.35	0.0657
396.676	0.065
397.001	0.064
397.327	0.0633
397.653	0.0628
397.978	0.0618
398.303	0.0607
398.629	0.0595
398.954	0.0587
399.279	0.0582
399.604	0.0571
399.929	0.0561
400.254	0.056
400.579	0.0551
400.904	0.0546
401.229	0.0541
401.553	0.0534
401.878	0.0532
402.202	0.0523
402.527	0.0518
402.851	0.051
403.175	0.0509
403.5	0.0505
403.824	0.0504
404.148	0.0496
404.472	0.0498
404.796	0.0489
405.119	0.0488
405.443	0.0489
405.767	0.0485
406.09	0.0478
406.414	0.0474
406.737	0.0467
407.061	0.0473
407.384	0.0467
407.707	0.0461
408.03	0.0456
408.353	0.0456
408.676	0.0458
408.999	0.0461
409.322	0.0466
409.645	0.0461
409.968	0.0462
410.29	0.0454
410.613	0.0452
410.935	0.0457
411.258	0.0448
411.58	0.045
411.902	0.0451
412.224	0.0449
412.546	0.044
412.868	0.0448
413.19	0.0442
413.512	0.0444
413.834	0.0444
414.156	0.0451
414.477	0.0447
414.799	0.0454
415.121	0.0443
415.442	0.0439
415.763	0.0449
416.085	0.0443
416.406	0.0447
416.727	0.0438
417.048	0.0441
417.369	0.0441
417.69	0.0447
418.011	0.0446
418.331	0.0446
418.652	0.0445
418.973	0.0437
419.293	0.0434
419.614	0.0441
419.934	0.0442
420.254	0.0444
420.574	0.0445
420.895	0.0449
421.215	0.044
421.535	0.0446
421.855	0.0446
422.174	0.0441
422.494	0.0443
422.814	0.0444
423.134	0.0445
423.453	0.0447
423.773	0.0448
424.092	0.0448
424.411	0.0454
424.731	0.0456
425.05	0.0437
425.369	0.0451
425.688	0.0444
426.007	0.0451
426.326	0.0439
426.644	0.0439
426.963	0.0451
427.282	0.0447
427.6	0.0444
427.919	0.0447
428.237	0.0447
428.556	0.0446
428.874	0.0443
429.192	0.045
429.51	0.0452
429.828	0.0444
430.146	0.0451
430.464	0.0452
430.782	0.0444
431.1	0.0448
431.418	0.0452
431.735	0.0452
432.053	0.0451
432.37	0.0457
432.688	0.0454
433.005	0.044
433.322	0.0444
433.639	0.0451
433.957	0.0445
434.274	0.0447
434.591	0.0445
434.907	0.0447
435.224	0.0457
435.541	0.0451
435.858	0.0447
436.174	0.0455
436.491	0.0452
436.807	0.0449
437.124	0.0451
437.44	0.0445
437.756	0.0441
438.072	0.0443
438.388	0.0449
438.704	0.0438
439.02	0.0449
439.336	0.044
439.652	0.0441
439.968	0.0445
440.283	0.0446
440.599	0.0453
440.914	0.0449
441.23	0.0453
441.545	0.0447
441.86	0.0439
442.175	0.0446
442.491	0.0448
442.806	0.044
443.121	0.044
443.435	0.0437
443.75	0.0441
444.065	0.0449
444.38	0.0438
444.694	0.043
445.009	0.0443
445.323	0.0436
445.638	0.043
445.952	0.0436
446.266	0.0433
446.58	0.0437
446.894	0.0435
447.208	0.0433
447.522	0.0428
447.836	0.0421
448.15	0.0432
448.464	0.0426
448.777	0.043
449.091	0.0423
449.404	0.043
449.718	0.0426
450.031	0.0422
450.345	0.0426
450.658	0.0427
450.971	0.0426
451.284	0.0421
451.597	0.0416
451.91	0.0416
452.223	0.0429
452.535	0.0421
452.848	0.0422
453.161	0.0413
453.473	0.0406
453.786	0.0407
454.098	0.0412
454.411	0.0418
454.723	0.0409
455.035	0.0402
455.347	0.0398
455.659	0.0402
455.971	0.0403
456.283	0.0396
456.595	0.0395
456.907	0.0391
457.218	0.0391
457.53	0.0391
457.841	0.0392
458.153	0.0392
458.464	0.0389
458.776	0.0383
459.087	0.0384
459.398	0.0386
459.709	0.0373
460.02	0.0384
460.331	0.0379
460.642	0.0374
460.953	0.0379
461.263	0.0374
461.574	0.0377
461.885	0.0371
462.195	0.037
462.506	0.0367
462.816	0.0366
463.126	0.0364
463.437	0.0362
463.747	0.036
464.057	0.0359
464.367	0.0358
464.677	0.0352
464.987	0.036
465.296	0.0351
465.606	0.0355
465.916	0.0352
466.225	0.0347
466.535	0.0346
466.844	0.0344
467.154	0.0338
467.463	0.0332
467.772	0.0334
468.081	0.0331
468.39	0.0327
468.699	0.0337
469.008	0.0327
469.317	0.0326
469.626	0.0328
469.935	0.0324
470.243	0.0331
470.552	0.0323
470.86	0.0312
471.169	0.0322
471.477	0.0316
471.785	0.0312
472.093	0.0311
472.402	0.0307
472.71	0.0302
473.018	0.0309
473.326	0.0302
473.633	0.0299
473.941	0.0296
474.249	0.0295
474.556	0.0298
474.864	0.0298
475.171	0.0298
475.479	0.0291
475.786	0.0286
476.094	0.0278
476.401	0.0287
476.708	0.0271
477.015	0.0278
477.322	0.0273
477.629	0.0267
477.936	0.0268
478.242	0.0268
478.549	0.0266
478.856	0.0265
479.162	0.0254
479.469	0.0267
479.775	0.0256
480.081	0.0268
480.388	0.0265
480.694	0.0251
481	0.0246
481.306	0.0249
481.612	0.0248
481.918	0.0251
482.224	0.0247
482.53	0.0247
482.835	0.0241
483.141	0.0244
483.446	0.0242
483.752	0.0238
484.057	0.024
484.363	0.0233
484.668	0.023
484.973	0.0224
485.278	0.0221
485.583	0.0223
485.888	0.0214
486.193	0.0219
486.498	0.0218
486.803	0.0215
487.107	0.0216
487.412	0.0203
487.717	0.0205
488.021	0.0199
488.325	0.0215
488.63	0.0208
488.934	0.0201
489.238	0.0192
489.542	0.0198
489.846	0.0198
490.15	0.0199
490.454	0.0195
490.758	0.0195
491.062	0.0183
491.366	0.0186
491.669	0.0181
491.973	0.0192
492.276	0.0187
492.58	0.0188
492.883	0.0183
493.186	0.0177
493.489	0.0183
493.792	0.0183
494.096	0.0173
494.399	0.0173
494.701	0.016
495.004	0.0165
495.307	0.0163
495.61	0.0159
495.912	0.0161
496.215	0.0155
496.517	0.0153
496.82	0.0158
497.122	0.0163
497.424	0.0156
497.727	0.0154
498.029	0.0148
498.331	0.015
498.633	0.0148
498.935	0.0148
499.237	0.0138
499.538	0.0151
499.84	0.0139
500.142	0.0144
500.443	0.0136
500.745	0.0142
501.046	0.0136
501.348	0.0138
501.649	0.0128
501.95	0.0131
502.251	0.0139
502.552	0.013
502.853	0.0118
503.154	0.0126
503.455	0.0118
503.756	0.0121
504.057	0.011
504.357	0.0116
504.658	0.0121
504.958	0.0124
505.259	0.0127
505.559	0.0117
505.859	0.0119
506.16	0.0117
506.46	0.0109
506.76	0.0103
507.06	0.0106
507.36	0.0121
507.66	0.0118
507.96	0.0101
508.259	0.0106
508.559	0.0108
508.859	0.011
509.158	0.0099
509.457	0.0102
509.757	0.0101
510.056	0.0107
510.355	0.01
510.655	0.0098
510.954	0.0096
511.253	0.0092
511.552	0.0101
511.851	0.01
512.149	0.0084
512.448	0.0088
512.747	0.0092
513.045	0.0088
513.344	0.0077
513.642	0.0093
513.941	0.0093
514.239	0.0072
514.537	0.0085
514.836	0.0083
515.134	0.0083
515.432	0.0083
515.73	0.009
516.028	0.0099
516.326	0.008
516.623	0.0072
516.921	0.0081
517.219	0.0075
517.516	0.009
517.814	0.0078
518.111	0.008
518.409	0.0077
518.706	0.0064
519.003	0.0076
519.3	0.0075
519.597	0.0075
519.894	0.0067
520.191	0.0073
520.488	0.0076
520.785	0.0071
521.082	0.008
521.378	0.0078
521.675	0.007
521.971	0.0077
522.268	0.007
522.564	0.0062
522.861	0.0072
523.157	0.0063
523.453	0.0061
523.749	0.0057
524.045	0.007
524.341	0.0065
524.637	0.0056
524.933	0.0064
525.229	0.0062
525.524	0.0066
525.82	0.0064
526.115	0.0062
526.411	0.0067
526.706	0.0063
527.002	0.0071
527.297	0.0061
527.592	0.0062
527.887	0.0069
528.182	0.0072
528.477	0.0066
528.772	0.0064
529.067	0.0061
529.362	0.0058
529.657	0.0064
529.951	0.0056
530.246	0.0058
530.54	0.0072
530.835	0.0058
531.129	0.006
531.423	0.0057
531.718	0.0056
532.012	0.006
532.306	0.0049
532.6	0.0065
532.894	0.0048
533.188	0.0052
533.482	0.0054
533.775	0.0059
534.069	0.0051
534.363	0.0056
534.656	0.0051
534.95	0.005
535.243	0.0051
535.536	0.0042
535.83	0.0053
536.123	0.0056
536.416	0.0053
536.709	0.0055
537.002	0.0044
537.295	0.005
537.588	0.0061
537.881	0.0049
538.173	0.0061
538.466	0.005
538.759	0.0053
539.051	0.0061
539.344	0.0039
539.636	0.005
539.928	0.0045
540.22	0.0056
540.513	0.0053
540.805	0.0046
541.097	0.0051
541.389	0.0052
541.681	0.0063
541.972	0.0059
542.264	0.0062
542.556	0.0055
542.847	0.0054
543.139	0.0058
543.431	0.0056
543.722	0.0042
544.013	0.0047
544.305	0.0043
544.596	0.0055
544.887	0.0049
545.178	0.0044
545.469	0.0037
545.76	0.0056
546.051	0.0046
546.342	0.0037
546.632	0.0044
546.923	0.0052
547.214	0.0045
547.504	0.0051
547.795	0.006
548.085	0.0053
548.375	0.0058
548.666	0.0061
548.956	0.0051
549.246	0.0056
549.536	0.0048
549.826	0.0059
550.116	0.0054
550.406	0.0064
550.695	0.0051
550.985	0.0042
551.275	0.0049
551.564	0.0052
551.854	0.0046
552.143	0.0052
552.433	0.004
552.722	0.0054
553.011	0.0052
553.3	0.0058
553.589	0.0039
553.879	0.0045
554.167	0.0046
554.456	0.0048
554.745	0.0055
555.034	0.0042
555.323	0.004
555.611	0.004
555.9	0.0044
556.188	0.0047
556.477	0.0048
556.765	0.0055
557.053	0.0051
557.342	0.004
557.63	0.0042
557.918	0.0047
558.206	0.0057
558.494	0.0054
558.782	0.0066
559.069	0.0061
559.357	0.0073
559.645	0.0062
559.932	0.0052
560.22	0.0044
560.507	0.005
560.795	0.0057
561.082	0.0063
561.37	0.006
561.657	0.0076
561.944	0.0052
562.231	0.0054
562.518	0.0056
562.805	0.0056
563.092	0.0054
563.379	0.0061
563.665	0.0055
563.952	0.0053
564.239	0.0048
564.525	0.0043
564.811	0.0057
565.098	0.0067
565.384	0.0051
565.67	0.0053
565.957	0.0057
566.243	0.0067
566.529	0.0055
566.815	0.0051
567.101	0.0058
567.387	0.0068
567.672	0.005
567.958	0.0057
568.244	0.0049
568.529	0.0061
568.815	0.0053
569.1	0.0044
569.386	0.0049
569.671	0.0045
569.956	0.0058
570.242	0.0048
570.527	0.0061
570.812	0.0047
571.097	0.0058
571.382	0.0045
571.666	0.0062
571.951	0.0045
572.236	0.0045
572.521	0.0052
572.805	0.0046
573.09	0.0042
573.374	0.0042
573.659	0.0052
573.943	0.0046
574.227	0.0056
574.511	0.0043
574.795	0.0045
575.079	0.0058
575.363	0.006
575.647	0.0059
575.931	0.0054
576.215	0.0056
576.499	0.0054
576.782	0.0051
577.066	0.0056
577.349	0.006
577.633	0.0061
577.916	0.0048
578.2	0.0051
578.483	0.0045
578.766	0.0048
579.049	0.0049
579.332	0.0049
579.615	0.0055
579.898	0.0047
580.181	0.0048
580.464	0.0038
580.746	0.0043
581.029	0.005
581.312	0.0039
581.594	0.0038
581.877	0.0042
582.159	0.0045
582.441	0.0042
582.724	0.0051
583.006	0.0048
583.288	0.0051
583.57	0.005
583.852	0.0063
584.134	0.0055
584.416	0.0039
584.697	0.0054
584.979	0.0041
585.261	0.0045
585.542	0.0044
585.824	0.0045
586.105	0.0038
586.387	0.0045
586.668	0.0047
586.949	0.004
587.231	0.0048
587.512	0.0059
587.793	0.0047
588.074	0.0055
588.355	0.0043
588.636	0.0043
588.916	0.0043
589.197	0.0042
589.478	0.0055
589.758	0.005
590.039	0.0052
590.319	0.0059
590.6	0.0051
590.88	0.0051
591.16	0.0047
591.441	0.005
591.721	0.0053
592.001	0.0055
592.281	0.0058
592.561	0.0043
592.841	0.0035
593.12	0.0037
593.4	0.0043
593.68	0.0044
593.959	0.0046
594.239	0.005
594.518	0.0054
594.798	0.0037
595.077	0.0044
595.356	0.0043
595.636	0.0051
595.915	0.0055
596.194	0.0056
596.473	0.006
596.752	0.0057
597.031	0.0047
597.31	0.0059
597.588	0.0052
597.867	0.0051
598.146	0.0047
598.424	0.006
598.703	0.0049
598.981	0.0049
599.259	0.0043
599.538	0.0053
599.816	0.0053
600.094	0.0045
600.372	0.0044
600.65	0.0043
600.928	0.0054
601.206	0.0045
601.484	0.0049
601.762	0.0057
602.04	0.0051
602.317	0.0052
602.595	0.0056
602.872	0.0056
603.15	0.0053
603.427	0.0047
603.704	0.0053
603.982	0.0041
604.259	0.0048
604.536	0.0048
604.813	0.0049
605.09	0.0046
605.367	0.0053
605.644	0.0043
605.921	0.0042
606.197	0.0044
606.474	0.0042
606.751	0.0042
607.027	0.0041
607.304	0.0045
607.58	0.0041
607.856	0.004
608.133	0.0051
608.409	0.0057
608.685	0.0042
608.961	0.005
609.237	0.005
609.513	0.0039
609.789	0.0037
610.065	0.0031
610.341	0.0039
610.616	0.0038
610.892	0.0036
611.167	0.0037
611.443	0.0037
611.718	0.0037
611.994	0.0026
612.269	0.0033
612.544	0.0037
612.819	0.0037
613.095	0.0042
613.37	0.0025
613.645	0.0027
613.919	0.0019
614.194	0.0024
614.469	0.0023
614.744	0.0023
615.019	0.0022
615.293	0.003
615.568	0.0033
615.842	0.0034
616.116	0.0027
616.391	0.0036
616.665	0.0023
616.939	0.0031
617.213	0.0035
617.488	0.0044
617.762	0.004
618.035	0.0038
618.309	0.0039
618.583	0.0048
618.857	0.0053
619.131	0.0048
619.404	0.0041
619.678	0.0041
619.951	0.0036
620.225	0.0033
620.498	0.0043
620.771	0.0042
621.045	0.0035
621.318	0.0039
621.591	0.0035
621.864	0.002
622.137	0.0031
622.41	0.0032
622.683	0.0032
622.956	0.0032
623.228	0.0032
623.501	0.0039
623.774	0.0034
624.046	0.0032
624.319	0.0034
624.591	0.0033
624.863	0.0044
625.136	0.0054
625.408	0.0049
625.68	0.0048
625.952	0.0046
626.224	0.0053
626.496	0.0031
626.768	0.0046
627.04	0.0035
627.311	0.0039
627.583	0.0031
627.855	0.0031
628.126	0.0037
628.398	0.0027
628.669	0.0042
628.941	0.0023
629.212	0.0029
629.483	0.0036
629.755	0.0042
630.026	0.004
630.297	0.0046
630.568	0.0054
630.839	0.0048
631.11	0.005
631.38	0.0055
631.651	0.0047
631.922	0.0036
632.192	0.0025
632.463	0.0025
632.733	0.0037
633.004	0.0031
633.274	0.0039
633.545	0.0034
633.815	0.0035
634.085	0.005
634.355	0.0037
634.625	0.0031
634.895	0.0033
635.165	0.0022
635.435	0.0032
635.705	0.0024
635.974	0.0028
636.244	0.0026
636.514	0.0031
636.783	0.003
637.053	0.0032
637.322	0.0021
637.591	0.0024
637.861	0.0034
638.13	0.0019
638.399	0.0032
638.668	0.0025
638.937	0.0016
639.206	0.0032
639.475	0.0035
639.744	0.0018
640.013	0.0006
640.281	0.0014
640.55	0.0024
640.819	0.0022
641.087	0.0025
641.356	0.0034
641.624	0.003
641.892	0.0024
642.161	0.0031
642.429	0.0019
642.697	0.0027
642.965	0.0038
643.233	0.0023
643.501	0.003
643.769	0.0026
644.037	0.0013
644.305	0.0014
644.572	0.0009
644.84	0.0007
645.108	0.0004
645.375	-0.0004
645.643	-0.0001
645.91	0.0004
646.177	0.0016
646.445	0.0009
646.712	0.0005
646.979	0.0021
647.246	0.0016
647.513	0.0021
647.78	0.0027
648.047	0.0013
648.314	0.0017
648.58	0.002
648.847	0.0023
649.114	0.0026
649.38	0.0015
649.647	0.0018
649.913	0.0033
650.18	0.0027
650.446	0.0019
650.712	0.0011
650.978	0.0004
651.245	-0.0006
651.511	-0.0006
651.777	-0.0011
652.043	-0.0003
652.309	-0.0009
652.574	0.0008
652.84	0.0007
653.106	0.0003
653.371	0.0007
653.637	0.001
653.903	0.002
654.168	0.0014
654.433	0.0015
654.699	0.0018
654.964	0.0011
655.229	0.0017
655.494	-0.0005
655.759	-0.0021
656.024	0.0011
656.289	-0
656.554	0.0009
656.819	-0.0001
657.084	0.0008
657.349	-0.0001
657.613	0.0014
657.878	0.0015
658.142	0.0022
658.407	0.0011
658.671	0.0007
658.936	0.0026
659.2	0.0028
659.464	0.0031
659.728	0.0022
659.992	0.003
660.256	0.0028
660.52	0.0015
660.784	0.0009
661.048	0.0007
661.312	-0.0002
661.575	-0.0008
661.839	-0.0007
662.103	0.0006
662.366	0.0002
662.63	-0.0005
662.893	0.0011
663.156	0.001
663.42	0.0015
663.683	0.0019
663.946	0.0017
664.209	0.0014
664.472	0.0015
664.735	0.0008
664.998	0.0025
665.261	0.0026
665.524	0.0025
665.786	0.0013
666.049	0.001
666.312	-0.0004
666.574	-0.0002
666.837	-0.0004
667.099	-0
667.361	0.0016
667.624	0.0006
667.886	0.002
668.148	0.0014
668.41	0.0013
668.672	0.0022
668.934	0.0018
669.196	0.0015
669.458	0.0012
669.72	0.0002
669.982	0.0002
670.243	0.0007
670.505	-0.0001
670.766	0
671.028	0
671.289	0.0009
671.551	0.0008
671.812	0.0007
672.073	0.002
672.334	0.0023
672.596	0.0021
672.857	0.0016
673.118	0.0013
673.379	0.0012
673.639	0.0015
673.9	0.0024
674.161	0.0018
674.422	0.0004
674.682	-0.0005
674.943	-0.0004
675.203	-0.0006
675.464	-0.0002
675.724	-0.0013
675.985	-0.0004
676.245	0.0008
676.505	0.0012
676.765	0.0017
677.025	0.0023
677.285	0.0027
677.545	0.0026
677.805	0.0004
678.065	0.0014
678.325	0.0004
678.585	0.0007
678.844	-0.0004
679.104	-0.0011
679.363	-0.0005
679.623	-0.0003
679.882	-0.0003
680.142	0.0025
680.401	0.0008
680.66	0.0017
680.919	0.0017
681.178	0.001
681.437	0.0016
681.696	0.0003
681.955	0.0003
682.214	0.0007
682.473	0.0005
682.732	0.0009
682.99	-0.0009
683.249	0.0003
683.508	0.0005
683.766	0.002
684.024	0.0014
684.283	0.0022
684.541	0.0023
684.799	0.0022
685.058	0.0011
685.316	0.0015
685.574	0.0009
685.832	0.0014
686.09	0.0016
686.348	0.0007
686.606	0.0006
686.863	0.0016
687.121	0.0017
687.379	0.0008
687.636	0.0006
687.894	0.0004
688.151	0.0004
688.409	0.0001
688.666	-0.0016
688.923	-0.001
689.181	-0.002
689.438	-0.0023
689.695	-0.0014
689.952	-0.0001
690.209	0.0014
690.466	0.0009
690.723	-0.0003
690.979	0
691.236	-0.0014
691.493	-0.0003
691.75	0.0007
692.006	0.0018
692.263	0.003
692.519	0.0031
692.775	0.0019
693.032	0.0013
693.288	0.0012
693.544	0.0009
693.8	0.0011
694.056	0.0008
694.313	0.0008
694.568	0.0015
694.824	0.0013
695.08	0.0011
695.336	-0.0002
695.592	-0.0009
695.847	-0.0001
696.103	0.0004
696.359	0.0009
696.614	0.0002
696.869	-0.001
697.125	-0.0024
697.38	-0.0003
697.635	-0.0015
697.891	-0.0004
698.146	-0.0003
698.401	-0.0008
698.656	-0.0005
698.911	0.0009
699.166	-0.0006
699.42	-0.0005
699.675	-0.0001
699.93	0.0002
700.185	0
700.439	0.0003
700.694	0.0018
700.948	0.0017
701.203	0.0016
701.457	0.0028
701.711	0.0037
701.965	0.0042
702.22	0.0037
702.474	0.0039
702.728	0.003
702.982	0.003
703.236	0.0033
703.49	0.0037
703.743	0.0038
703.997	0.0036
704.251	0.0038
704.504	0.0031
704.758	0.002
705.012	0.0017
705.265	0.0005
705.518	0.0009
705.772	0
706.025	0.0013
706.278	0.0001
706.531	-0.0004
706.785	0.0008
707.038	-0.0005
707.291	-0.001
707.543	-0.0011
707.796	-0.0009
708.049	-0.0023
708.302	-0.0017
708.555	-0.002
708.807	-0.0018
709.06	-0.0004
709.312	-0.0012
709.565	-0.0014
709.817	-0.0015
710.069	-0.0013
710.322	-0.0016
710.574	-0.0026
710.826	-0.0019
711.078	-0.0025
711.33	-0.0014
711.582	-0.0019
711.834	-0.0012
712.086	-0.0013
712.338	-0.0023
712.59	-0.0021
712.841	-0.0031
713.093	-0.0012
713.344	-0.0009
713.596	-0.0008
713.847	-0.001
714.099	-0.0005
714.35	-0.0006
714.601	-0.0013
714.853	-0.0014
715.104	-0.001
715.355	-0.0008
715.606	-0.0007
715.857	0
716.108	0.0004
716.359	-0.0002
716.609	-0.0014
716.86	-0.0015
717.111	-0.003
717.361	-0.0029
717.612	-0.0014
717.863	-0.0005
718.113	-0.0005
718.363	-0.0011
718.614	-0.0014
718.864	-0.0024
719.114	-0.0022
719.364	-0.0011
719.614	-0.0009
719.865	-0.0014
720.114	-0.0006
720.364	-0.0024
720.614	-0.0013
720.864	-0.0014
721.114	-0.0009
721.364	-0.0004
721.613	0.0004
721.863	-0.0012
722.112	0.0012
722.362	0.0007
722.611	0.0018
722.86	0.001
723.11	0.0012
723.359	0.0023
723.608	0.0024
723.857	0.0031
724.106	0.0043
724.355	0.0033
724.604	0.0026
724.853	0.0018
725.102	0.0018
725.351	0.0019
725.599	0.002
725.848	0.0018
726.097	0.0014
726.345	0.0019
726.594	0.0023
726.842	0.0023
727.09	0.0028
727.339	0.0028
727.587	0.0021
727.835	0.0016
728.083	0.0015
728.331	0.0008
728.579	0.0004
728.827	0.0001
729.075	0.0001
729.323	-0.0009
729.571	0.0003
729.818	-0.0006
730.066	0.0007
730.314	0.0007
730.561	0.0006
730.809	0.001
731.056	-0.0001
731.303	0.0019
731.551	0.002
731.798	0.0014
732.045	0.0012
732.292	0.0011
732.539	0.0001
732.786	-0
733.033	-0.0009
733.28	-0.0015
733.527	-0.0008
733.774	-0.0023
734.021	-0.0013
734.267	-0.0008
734.514	-0.0016
734.76	-0.0017
735.007	-0.0015
735.253	-0.0011
735.5	-0.0009
735.746	-0.0011
735.992	0.0003
736.238	0.0005
736.485	0.0008
736.731	0.0017
736.977	0.0003
737.223	0.0014
737.469	0.0012
737.715	0.0002
737.96	0.0004
738.206	0.0014
738.452	0.0004
738.697	0.0009
738.943	0.001
739.189	0.0003
739.434	-0
739.679	0.0011
739.925	0.0001
740.17	0.0005
740.415	0.0006
740.66	0.0009
740.906	0.0005
741.151	0.0016
741.396	0.0019
741.641	0.0011
741.886	0.0003
742.13	-0.0005
742.375	-0.0003
742.62	-0.0005
742.865	-0.0008
743.109	-0.0004
743.354	0.0007
743.598	-0.0005
743.843	-0.0003
744.087	0.0001
744.331	0.0001
744.576	0.0008
744.82	0.001
745.064	0.0019
745.308	0.0021
745.552	0.0011
745.796	0.0009
746.04	-0.0003
746.284	-0.001
746.528	-0.0015
746.771	-0.0016
747.015	-0.0015
747.259	-0.0029
747.502	-0.003
747.746	-0.0044
747.989	-0.0024
748.233	-0.0037
748.476	-0.003
748.719	-0.0025
748.963	-0.0029
749.206	-0.0023
749.449	-0.0027
749.692	-0.0012
749.935	-0.0004
750.178	-0.0012
750.421	-0.001
750.664	-0.0001
750.906	0.0005
751.149	0.0001
751.392	0.0002
751.635	-0.0001
751.877	0.0001
752.12	-0.0006
752.362	-0.0018
752.604	-0.0029
752.847	-0.0038
753.089	-0.0021
753.331	-0.0033
753.573	-0.0026
753.816	-0.003
754.058	-0.0026
754.3	-0.0028
754.542	-0.0021
754.783	-0.0023
755.025	-0.0009
755.267	-0.0006
755.509	-0.0008
755.75	-0.0012
755.992	-0.0013
756.234	-0.0003
756.475	-0.0002
756.716	-0.0002
756.958	-0.0012
757.199	-0.0004
757.44	-0.0005
757.682	-0.0024
757.923	-0.0012
758.164	0.0007
758.405	0
758.646	0.0009
758.887	0.0016
759.128	0.0011
759.369	0.0007
759.609	0.0004
759.85	-0.0001
760.091	0.0011
760.331	0.0008
760.572	0.0002
760.812	-0.0009
761.053	-0.0003
761.293	-0.0013
761.533	-0.0012
761.774	0.0001
762.014	-0.0014
762.254	-0.0024
762.494	-0.002
762.734	-0.0013
762.974	-0.0013
763.214	-0.0004
763.454	0.0005
763.694	-0.001
763.933	0.0004
764.173	-0.0018
764.413	-0.0021
764.652	-0.0023
764.892	-0.0025
765.131	-0.003
765.371	-0.0025
765.61	-0.0027
765.849	-0.0038
766.089	-0.0029
766.328	-0.0027
766.567	-0.0011
766.806	0.0001
767.045	0.0004
767.284	0.0008
767.523	0.0019
767.762	0.0008
768.001	0.0005
768.239	0.0001
768.478	0.0005
768.717	0.0005
768.955	-0.0004
769.194	-0.0009
769.432	-0.0008
769.671	-0.0003
769.909	0.0008
770.148	0.0005
770.386	-0.0011
770.624	0.0001
770.862	0.0007
771.1	-0.0006
771.338	0.0002
771.576	0.0011
771.814	0.0011
772.052	0.0009
772.29	0.0006
772.528	0.001
772.765	0.0005
773.003	-0
773.24	0.0004
773.478	0.0012
773.716	0.0016
773.953	0.0017
774.19	0.0021
774.428	0.0017
774.665	0.0019
774.902	0.0019
775.139	0.0017
775.376	0.0019
775.613	0.0028
775.85	0.003
776.087	0.0027
776.324	0.0017
776.561	0.0024
776.798	0.0029
777.034	0.0033
777.271	0.0025
777.508	0.0028
777.744	0.0021
777.981	0.0019
778.217	0.0022
778.454	0.0033
778.69	0.0045
778.926	0.0046
779.162	0.0038
779.399	0.0048
779.635	0.0045
779.871	0.005
780.107	0.0038
780.343	0.0032
780.579	0.0026
780.814	0.0024
781.05	0.0015
781.286	0.0006
781.522	0.0004
781.757	0.0008
781.993	0.0021
782.228	0.0027
782.464	0.0016
782.699	0.0007
782.934	-0.0007
783.17	-0.0016
783.405	-0.0024
783.64	-0.0033
783.875	-0.0034
784.11	-0.0029
784.345	-0.0023
784.58	-0.0022
784.815	-0.0023
785.05	-0.0021
785.285	-0.0023
785.52	-0.0024
785.754	-0.002
785.989	-0.0014
786.223	-0.0007
786.458	0.0007
786.692	-0.0003
786.927	0.0015
787.161	0.0006
787.396	0.0001
787.63	-0.0006
787.864	-0.002
788.098	-0.0014
788.332	-0.0024
788.566	-0.0026
788.8	-0.0029
789.034	-0.0018
789.268	-0.0024
789.502	-0.0023
789.736	-0.0029
789.969	-0.0022
790.203	-0.003
790.437	-0.0018
790.67	-0.0027
790.904	-0.0022
791.137	-0.0021
791.37	-0.0031
791.604	-0.0043
791.837	-0.0039
792.07	-0.0028
792.303	-0.0037
792.537	-0.0038
792.77	-0.0043
793.003	-0.0056
793.236	-0.0057
793.469	-0.0047
793.701	-0.0024
793.934	-0.0033
794.167	-0.003
794.4	-0.0036
794.632	-0.0021
794.865	-0.0023
795.097	-0.0037
795.33	-0.0031
795.562	-0.0028
795.795	-0.0025
796.027	-0.0029
796.259	-0.0031
796.491	-0.0025
796.724	-0.0018
796.956	-0.0023
797.188	-0.0007
797.42	-0.0008
797.652	-0.0004
797.883	-0.0004
798.115	0.0002
798.347	0.0004
798.579	-0
798.81	-0.0013
799.042	-0.0021
799.274	-0.0019
799.505	-0.0019
799.737	-0.0023
799.968	-0.0021
800.199	-0.0023
800.431	-0.002
800.662	-0.0021
800.893	-0.0027
801.124	-0.0022
801.355	-0.0019
801.586	-0.0018
801.817	-0.0013
802.048	-0.0001
802.279	0.0007
802.51	0
802.741	0.0007
802.971	-0.0003
803.202	-0.0006
803.433	-0.0016
803.663	-0.0008
803.894	-0.0004
804.124	0.0001
804.354	0.0002
804.585	0.0005
804.815	0.0015
805.045	-0.0004
805.275	0.0012
805.506	-0.0382
805.736	0.0459
805.966	0.0813
806.196	0.0156
