Data from 04 0.5 mM K2Cr2O7 0.3 mM BQDS 1 M H2SO4 5 min_ 29_min_gap_Absorbance_0043.txt Node
Date: Tue Dec 14 16:17:56 EST 2021
User: kwabilab-user
Spectrometer: HDX00518
Trigger mode: 0
Integration Time (sec): 5.000000E-2
Scans to average: 50
Nonlinearity correction enabled: false
Boxcar width: 0
Storing dark spectrum: false
XAxis mode: Wavelengths
Number of Pixels in Spectrum: 2068
>>>>>Begin Spectral Data<<<<<
195.27	0.2532
195.642	1.7344
196.014	0.2319
196.386	0.7928
196.758	0.0854
197.129	0.0474
197.501	0.0879
197.872	0.0802
198.244	0.0785
198.615	0.0894
198.986	0.0937
199.357	0.0723
199.728	0.0905
200.099	0.1032
200.47	0.0915
200.841	0.1055
201.212	0.0939
201.582	0.092
201.953	0.0931
202.323	0.0986
202.694	0.0777
203.064	0.0681
203.434	0.1323
203.804	0.1029
204.174	0.098
204.544	0.11
204.914	0.0981
205.284	0.0963
205.653	0.0951
206.023	0.089
206.393	0.0836
206.762	0.085
207.131	0.1158
207.501	0.0957
207.87	0.1087
208.239	0.1228
208.608	0.1134
208.977	0.106
209.346	0.1254
209.715	0.1359
210.083	0.1045
210.452	0.1096
210.82	0.1003
211.189	0.1091
211.557	0.0997
211.925	0.0959
212.294	0.1295
212.662	0.1165
213.03	0.1087
213.398	0.1134
213.766	0.1117
214.133	0.1046
214.501	0.114
214.869	0.1259
215.236	0.1015
215.604	0.1173
215.971	0.1281
216.338	0.1346
216.705	0.1421
217.072	0.1377
217.439	0.1436
217.806	0.1593
218.173	0.1318
218.54	0.1794
218.907	0.1545
219.273	0.1644
219.64	0.1935
220.006	0.221
220.373	0.1863
220.739	0.2239
221.105	0.2407
221.471	0.2771
221.837	0.2769
222.203	0.3129
222.569	0.3523
222.935	0.3476
223.3	0.3678
223.666	0.3892
224.031	0.3951
224.397	0.4271
224.762	0.4577
225.127	0.4973
225.493	0.524
225.858	0.5381
226.223	0.5657
226.588	0.588
226.952	0.6011
227.317	0.65
227.682	0.6603
228.046	0.6554
228.411	0.694
228.775	0.691
229.14	0.6976
229.504	0.7158
229.868	0.7485
230.232	0.7477
230.596	0.7574
230.96	0.7799
231.324	0.7696
231.688	0.7765
232.052	0.7881
232.415	0.7992
232.779	0.7858
233.142	0.8085
233.505	0.7943
233.869	0.8079
234.232	0.8074
234.595	0.7898
234.958	0.7891
235.321	0.7908
235.684	0.7921
236.047	0.7871
236.409	0.7657
236.772	0.7834
237.134	0.7805
237.497	0.7674
237.859	0.7787
238.222	0.7737
238.584	0.7618
238.946	0.7595
239.308	0.7581
239.67	0.7465
240.032	0.7449
240.393	0.7324
240.755	0.73
241.117	0.7315
241.478	0.7235
241.84	0.7156
242.201	0.7121
242.562	0.7007
242.924	0.6999
243.285	0.7006
243.646	0.6981
244.007	0.6909
244.368	0.6818
244.728	0.6874
245.089	0.6748
245.45	0.6718
245.81	0.6683
246.171	0.6643
246.531	0.6632
246.891	0.6494
247.252	0.6556
247.612	0.6508
247.972	0.6495
248.332	0.6501
248.692	0.6528
249.051	0.6405
249.411	0.635
249.771	0.6359
250.13	0.634
250.49	0.6306
250.849	0.6305
251.208	0.6244
251.568	0.627
251.927	0.6202
252.286	0.617
252.645	0.624
253.004	0.6191
253.363	0.6124
253.721	0.6171
254.08	0.6143
254.439	0.6062
254.797	0.6111
255.155	0.6069
255.514	0.6074
255.872	0.6088
256.23	0.5999
256.588	0.6049
256.946	0.6001
257.304	0.6003
257.662	0.5977
258.02	0.599
258.377	0.5958
258.735	0.5923
259.093	0.5925
259.45	0.5865
259.807	0.5901
260.165	0.5874
260.522	0.5901
260.879	0.5871
261.236	0.5801
261.593	0.5757
261.95	0.5797
262.306	0.574
262.663	0.5692
263.02	0.5757
263.376	0.568
263.733	0.5696
264.089	0.5644
264.445	0.5652
264.802	0.5643
265.158	0.5629
265.514	0.5601
265.87	0.5566
266.226	0.5556
266.581	0.5562
266.937	0.557
267.293	0.5463
267.648	0.547
268.004	0.5406
268.359	0.5435
268.714	0.5395
269.07	0.5362
269.425	0.537
269.78	0.5333
270.135	0.5332
270.49	0.5302
270.844	0.5289
271.199	0.5237
271.554	0.5212
271.908	0.5206
272.263	0.5202
272.617	0.516
272.972	0.5143
273.326	0.5112
273.68	0.5087
274.034	0.502
274.388	0.5012
274.742	0.4968
275.096	0.4975
275.45	0.4972
275.803	0.4918
276.157	0.4888
276.51	0.4847
276.864	0.4825
277.217	0.4779
277.571	0.4778
277.924	0.4695
278.277	0.4684
278.63	0.4657
278.983	0.4648
279.336	0.4605
279.688	0.4588
280.041	0.4512
280.394	0.4474
280.746	0.4426
281.099	0.4397
281.451	0.4388
281.803	0.4322
282.156	0.429
282.508	0.4259
282.86	0.4229
283.212	0.4219
283.564	0.4142
283.916	0.4113
284.267	0.4076
284.619	0.4026
284.971	0.3997
285.322	0.3962
285.673	0.3914
286.025	0.3911
286.376	0.3843
286.727	0.3793
287.078	0.3764
287.429	0.3752
287.78	0.3681
288.131	0.3641
288.482	0.3594
288.833	0.3582
289.183	0.3527
289.534	0.3487
289.884	0.3451
290.235	0.3404
290.585	0.3371
290.935	0.3318
291.285	0.3299
291.635	0.3252
291.985	0.321
292.335	0.3158
292.685	0.3131
293.035	0.3078
293.384	0.3045
293.734	0.301
294.083	0.2982
294.433	0.2944
294.782	0.2901
295.131	0.2851
295.48	0.2822
295.829	0.278
296.179	0.2743
296.527	0.2705
296.876	0.2667
297.225	0.2644
297.574	0.2599
297.922	0.2572
298.271	0.2536
298.619	0.2499
298.968	0.2451
299.316	0.2433
299.664	0.2401
300.012	0.2361
300.36	0.2325
300.708	0.2292
301.056	0.227
301.404	0.2239
301.752	0.2202
302.099	0.2175
302.447	0.2147
302.794	0.2133
303.142	0.2103
303.489	0.2069
303.836	0.2047
304.183	0.2018
304.531	0.2004
304.878	0.1983
305.224	0.1964
305.571	0.1946
305.918	0.1924
306.265	0.1896
306.611	0.1884
306.958	0.1872
307.304	0.1834
307.651	0.184
307.997	0.1817
308.343	0.1806
308.689	0.1799
309.035	0.1776
309.381	0.1768
309.727	0.176
310.073	0.1747
310.419	0.1727
310.764	0.1737
311.11	0.172
311.455	0.1717
311.801	0.1705
312.146	0.17
312.491	0.1697
312.837	0.1684
313.182	0.1693
313.527	0.1681
313.872	0.1683
314.216	0.1672
314.561	0.1677
314.906	0.1676
315.251	0.1681
315.595	0.1673
315.94	0.1678
316.284	0.1673
316.628	0.1682
316.972	0.1671
317.317	0.1684
317.661	0.1688
318.005	0.1684
318.348	0.1694
318.692	0.1694
319.036	0.1702
319.38	0.171
319.723	0.171
320.067	0.1717
320.41	0.1717
320.754	0.1743
321.097	0.1744
321.44	0.1749
321.783	0.1756
322.126	0.1772
322.469	0.1773
322.812	0.1789
323.155	0.1802
323.498	0.1808
323.84	0.182
324.183	0.1823
324.525	0.1846
324.868	0.1841
325.21	0.1862
325.552	0.1875
325.894	0.1879
326.236	0.1897
326.578	0.1904
326.92	0.192
327.262	0.1936
327.604	0.1944
327.946	0.1958
328.287	0.1973
328.629	0.1987
328.97	0.199
329.312	0.2003
329.653	0.2018
329.994	0.2029
330.335	0.2047
330.676	0.2065
331.017	0.2074
331.358	0.2094
331.699	0.2108
332.04	0.2117
332.38	0.2134
332.721	0.2146
333.061	0.2171
333.402	0.2176
333.742	0.2194
334.083	0.2197
334.423	0.2213
334.763	0.2227
335.103	0.2239
335.443	0.2248
335.783	0.226
336.123	0.2267
336.462	0.2283
336.802	0.2295
337.141	0.23
337.481	0.231
337.82	0.2327
338.16	0.2334
338.499	0.2351
338.838	0.2357
339.177	0.2371
339.516	0.2377
339.855	0.2391
340.194	0.2393
340.533	0.2412
340.872	0.2406
341.21	0.2427
341.549	0.2428
341.887	0.2438
342.226	0.245
342.564	0.2445
342.902	0.2462
343.24	0.2466
343.578	0.2464
343.916	0.2466
344.254	0.2468
344.592	0.2472
344.93	0.2476
345.268	0.2471
345.605	0.2473
345.943	0.2477
346.28	0.2488
346.618	0.2489
346.955	0.2484
347.292	0.2487
347.629	0.2485
347.966	0.2489
348.303	0.2491
348.64	0.2484
348.977	0.2489
349.314	0.2486
349.65	0.2492
349.987	0.2488
350.324	0.2489
350.66	0.2477
350.996	0.2482
351.333	0.2462
351.669	0.2474
352.005	0.2456
352.341	0.2447
352.677	0.2443
353.013	0.2429
353.349	0.2421
353.685	0.2408
354.02	0.2404
354.356	0.2397
354.691	0.2382
355.027	0.2373
355.362	0.2359
355.697	0.2351
356.033	0.2348
356.368	0.2336
356.703	0.2332
357.038	0.2317
357.373	0.2305
357.707	0.2302
358.042	0.2289
358.377	0.2288
358.711	0.2275
359.046	0.2266
359.38	0.2244
359.715	0.224
360.049	0.2227
360.383	0.2209
360.717	0.2201
361.051	0.2184
361.385	0.2172
361.719	0.2154
362.053	0.2142
362.387	0.2124
362.72	0.2111
363.054	0.2092
363.387	0.2068
363.721	0.2063
364.054	0.2035
364.387	0.2012
364.721	0.2004
365.054	0.1986
365.387	0.1968
365.72	0.1945
366.053	0.1934
366.385	0.1925
366.718	0.1913
367.051	0.19
367.383	0.1874
367.716	0.1859
368.048	0.185
368.381	0.1833
368.713	0.1821
369.045	0.1805
369.377	0.1787
369.709	0.1787
370.041	0.1768
370.373	0.1751
370.705	0.1738
371.037	0.172
371.368	0.1701
371.7	0.168
372.031	0.1673
372.363	0.1659
372.694	0.1632
373.025	0.1618
373.356	0.1595
373.688	0.1576
374.019	0.1553
374.35	0.1543
374.68	0.1518
375.011	0.1496
375.342	0.1472
375.673	0.1454
376.003	0.1442
376.334	0.1428
376.664	0.1412
376.995	0.1395
377.325	0.1376
377.655	0.1365
377.985	0.1345
378.315	0.133
378.645	0.132
378.975	0.1309
379.305	0.1296
379.635	0.1277
379.964	0.1266
380.294	0.1253
380.623	0.1247
380.953	0.1228
381.282	0.1218
381.611	0.1192
381.941	0.1186
382.27	0.1178
382.599	0.1165
382.928	0.1149
383.257	0.113
383.585	0.1119
383.914	0.1106
384.243	0.1086
384.571	0.1068
384.9	0.1057
385.228	0.1036
385.557	0.1017
385.885	0.1006
386.213	0.0994
386.541	0.0975
386.869	0.0966
387.197	0.0947
387.525	0.0929
387.853	0.0918
388.181	0.0901
388.508	0.089
388.836	0.0874
389.164	0.0862
389.491	0.0853
389.818	0.0847
390.146	0.0832
390.473	0.0817
390.8	0.0806
391.127	0.0795
391.454	0.0783
391.781	0.0772
392.108	0.0763
392.435	0.0755
392.761	0.0754
393.088	0.0739
393.415	0.0729
393.741	0.0727
394.067	0.0712
394.394	0.0708
394.72	0.07
395.046	0.0686
395.372	0.0666
395.698	0.0666
396.024	0.0657
396.35	0.0648
396.676	0.0643
397.001	0.0634
397.327	0.0626
397.653	0.0626
397.978	0.0615
398.303	0.0608
398.629	0.0599
398.954	0.0582
399.279	0.0578
399.604	0.0571
399.929	0.056
400.254	0.0554
400.579	0.0546
400.904	0.0543
401.229	0.054
401.553	0.0528
401.878	0.0531
402.202	0.0521
402.527	0.0516
402.851	0.0508
403.175	0.0506
403.5	0.0508
403.824	0.0498
404.148	0.0495
404.472	0.0492
404.796	0.0493
405.119	0.0487
405.443	0.0482
405.767	0.0482
406.09	0.047
406.414	0.0474
406.737	0.0464
407.061	0.0468
407.384	0.047
407.707	0.0462
408.03	0.0459
408.353	0.0462
408.676	0.0458
408.999	0.0456
409.322	0.0462
409.645	0.046
409.968	0.0456
410.29	0.0453
410.613	0.0451
410.935	0.0448
411.258	0.0447
411.58	0.0448
411.902	0.0448
412.224	0.0447
412.546	0.0441
412.868	0.0443
413.19	0.0445
413.512	0.0447
413.834	0.0447
414.156	0.0447
414.477	0.0442
414.799	0.0447
415.121	0.0439
415.442	0.0442
415.763	0.0447
416.085	0.0443
416.406	0.0445
416.727	0.0436
417.048	0.044
417.369	0.0436
417.69	0.0444
418.011	0.0442
418.331	0.0441
418.652	0.044
418.973	0.0434
419.293	0.0434
419.614	0.044
419.934	0.0439
420.254	0.0438
420.574	0.0445
420.895	0.0444
421.215	0.0438
421.535	0.0439
421.855	0.0439
422.174	0.0442
422.494	0.0437
422.814	0.0439
423.134	0.0442
423.453	0.0439
423.773	0.0439
424.092	0.0443
424.411	0.0448
424.731	0.0447
425.05	0.0442
425.369	0.0444
425.688	0.0441
426.007	0.0443
426.326	0.0441
426.644	0.0441
426.963	0.0446
427.282	0.0445
427.6	0.0438
427.919	0.0447
428.237	0.0446
428.556	0.0443
428.874	0.0444
429.192	0.0452
429.51	0.0448
429.828	0.0445
430.146	0.0445
430.464	0.0443
430.782	0.0446
431.1	0.0443
431.418	0.0455
431.735	0.0451
432.053	0.045
432.37	0.0448
432.688	0.0453
433.005	0.0445
433.322	0.0441
433.639	0.0444
433.957	0.0445
434.274	0.0448
434.591	0.0446
434.907	0.0445
435.224	0.0455
435.541	0.0442
435.858	0.0448
436.174	0.0455
436.491	0.0448
436.807	0.0444
437.124	0.0451
437.44	0.0446
437.756	0.0442
438.072	0.0441
438.388	0.0449
438.704	0.0442
439.02	0.0447
439.336	0.0444
439.652	0.0439
439.968	0.0441
440.283	0.044
440.599	0.0447
440.914	0.0443
441.23	0.0445
441.545	0.0447
441.86	0.044
442.175	0.0444
442.491	0.0448
442.806	0.044
443.121	0.0442
443.435	0.0438
443.75	0.044
444.065	0.0442
444.38	0.0446
444.694	0.0432
445.009	0.0438
445.323	0.0434
445.638	0.0434
445.952	0.0435
446.266	0.0434
446.58	0.0436
446.894	0.0429
447.208	0.0428
447.522	0.0424
447.836	0.042
448.15	0.0424
448.464	0.0424
448.777	0.042
449.091	0.042
449.404	0.0431
449.718	0.0421
450.031	0.0422
450.345	0.0421
450.658	0.0427
450.971	0.0431
451.284	0.0417
451.597	0.042
451.91	0.0407
452.223	0.0419
452.535	0.0419
452.848	0.0417
453.161	0.0412
453.473	0.0406
453.786	0.0407
454.098	0.0407
454.411	0.0412
454.723	0.0408
455.035	0.0401
455.347	0.0402
455.659	0.04
455.971	0.0401
456.283	0.0396
456.595	0.0399
456.907	0.0397
457.218	0.0392
457.53	0.0388
457.841	0.0387
458.153	0.0386
458.464	0.0386
458.776	0.0381
459.087	0.038
459.398	0.0378
459.709	0.0379
460.02	0.038
460.331	0.0383
460.642	0.0368
460.953	0.0377
461.263	0.0372
461.574	0.0373
461.885	0.0374
462.195	0.0369
462.506	0.0359
462.816	0.0363
463.126	0.0363
463.437	0.0363
463.747	0.0353
464.057	0.0363
464.367	0.0365
464.677	0.0355
464.987	0.0356
465.296	0.0354
465.606	0.0353
465.916	0.0352
466.225	0.0348
466.535	0.0341
466.844	0.0347
467.154	0.0337
467.463	0.0333
467.772	0.0325
468.081	0.0328
468.39	0.0321
468.699	0.0324
469.008	0.0326
469.317	0.0325
469.626	0.032
469.935	0.0322
470.243	0.0328
470.552	0.0321
470.86	0.0317
471.169	0.0324
471.477	0.0312
471.785	0.0317
472.093	0.0316
472.402	0.0303
472.71	0.0301
473.018	0.03
473.326	0.0298
473.633	0.0292
473.941	0.0296
474.249	0.0294
474.556	0.0302
474.864	0.0291
475.171	0.0291
475.479	0.0287
475.786	0.029
476.094	0.0276
476.401	0.029
476.708	0.0278
477.015	0.0278
477.322	0.027
477.629	0.0263
477.936	0.0268
478.242	0.0263
478.549	0.0265
478.856	0.0272
479.162	0.0253
479.469	0.0264
479.775	0.0253
480.081	0.026
480.388	0.0263
480.694	0.0257
481	0.0243
481.306	0.0244
481.612	0.025
481.918	0.025
482.224	0.0235
482.53	0.0249
482.835	0.0234
483.141	0.0234
483.446	0.0243
483.752	0.0237
484.057	0.0236
484.363	0.0231
484.668	0.0227
484.973	0.0227
485.278	0.0225
485.583	0.0221
485.888	0.0222
486.193	0.0219
486.498	0.0221
486.803	0.0206
487.107	0.0214
487.412	0.02
487.717	0.0205
488.021	0.0197
488.325	0.0205
488.63	0.0206
488.934	0.0204
489.238	0.0187
489.542	0.0187
489.846	0.0197
490.15	0.0202
490.454	0.0189
490.758	0.0192
491.062	0.0188
491.366	0.0183
491.669	0.0188
491.973	0.0183
492.276	0.0192
492.58	0.0187
492.883	0.0189
493.186	0.0183
493.489	0.0178
493.792	0.0178
494.096	0.0164
494.399	0.017
494.701	0.0161
495.004	0.0173
495.307	0.0162
495.61	0.0152
495.912	0.0164
496.215	0.0153
496.517	0.0151
496.82	0.0153
497.122	0.0157
497.424	0.0152
497.727	0.0156
498.029	0.0142
498.331	0.0149
498.633	0.0149
498.935	0.0138
499.237	0.0139
499.538	0.0141
499.84	0.0147
500.142	0.0138
500.443	0.0139
500.745	0.0144
501.046	0.0141
501.348	0.0139
501.649	0.0129
501.95	0.0139
502.251	0.0133
502.552	0.0124
502.853	0.0127
503.154	0.0124
503.455	0.0114
503.756	0.0125
504.057	0.0108
504.357	0.0114
504.658	0.0116
504.958	0.0117
505.259	0.0113
505.559	0.0112
505.859	0.0109
506.16	0.0119
506.46	0.0108
506.76	0.0105
507.06	0.0121
507.36	0.0111
507.66	0.0114
507.96	0.0099
508.259	0.0118
508.559	0.0095
508.859	0.0108
509.158	0.0101
509.457	0.0096
509.757	0.009
510.056	0.0096
510.355	0.0102
510.655	0.0091
510.954	0.0085
511.253	0.0099
511.552	0.0104
511.851	0.0089
512.149	0.0095
512.448	0.0086
512.747	0.0083
513.045	0.0084
513.344	0.0079
513.642	0.0096
513.941	0.0091
514.239	0.0064
514.537	0.0089
514.836	0.0086
515.134	0.0094
515.432	0.009
515.73	0.0093
516.028	0.0094
516.326	0.0088
516.623	0.0076
516.921	0.0081
517.219	0.0081
517.516	0.0082
517.814	0.0087
518.111	0.0084
518.409	0.0073
518.706	0.0068
519.003	0.0076
519.3	0.0073
519.597	0.0068
519.894	0.0074
520.191	0.0069
520.488	0.0084
520.785	0.0084
521.082	0.0071
521.378	0.0077
521.675	0.0075
521.971	0.0076
522.268	0.0074
522.564	0.0067
522.861	0.0079
523.157	0.0068
523.453	0.0069
523.749	0.0059
524.045	0.0067
524.341	0.0067
524.637	0.0055
524.933	0.0055
525.229	0.0062
525.524	0.0067
525.82	0.0059
526.115	0.0064
526.411	0.0061
526.706	0.0059
527.002	0.0065
527.297	0.0047
527.592	0.0054
527.887	0.006
528.182	0.0073
528.477	0.0065
528.772	0.0059
529.067	0.0052
529.362	0.0054
529.657	0.0061
529.951	0.0049
530.246	0.005
530.54	0.0057
530.835	0.0056
531.129	0.0058
531.423	0.0066
531.718	0.0046
532.012	0.0053
532.306	0.006
532.6	0.0051
532.894	0.0042
533.188	0.006
533.482	0.0049
533.775	0.0052
534.069	0.0057
534.363	0.0053
534.656	0.0048
534.95	0.0046
535.243	0.0051
535.536	0.0052
535.83	0.0052
536.123	0.0052
536.416	0.0041
536.709	0.0058
537.002	0.0053
537.295	0.0055
537.588	0.0056
537.881	0.0056
538.173	0.0056
538.466	0.0055
538.759	0.0053
539.051	0.0063
539.344	0.0029
539.636	0.0041
539.928	0.004
540.22	0.0058
540.513	0.0047
540.805	0.004
541.097	0.005
541.389	0.0056
541.681	0.0059
541.972	0.0053
542.264	0.006
542.556	0.0056
542.847	0.0057
543.139	0.0057
543.431	0.0054
543.722	0.005
544.013	0.0053
544.305	0.0037
544.596	0.0054
544.887	0.0046
545.178	0.0037
545.469	0.0032
545.76	0.0045
546.051	0.0041
546.342	0.0051
546.632	0.0043
546.923	0.0048
547.214	0.0044
547.504	0.0048
547.795	0.0051
548.085	0.0047
548.375	0.0051
548.666	0.0055
548.956	0.0049
549.246	0.0045
549.536	0.0045
549.826	0.006
550.116	0.0051
550.406	0.0063
550.695	0.0046
550.985	0.005
551.275	0.0048
551.564	0.0052
551.854	0.0049
552.143	0.0046
552.433	0.0043
552.722	0.0053
553.011	0.0062
553.3	0.006
553.589	0.0052
553.879	0.0039
554.167	0.0045
554.456	0.0046
554.745	0.005
555.034	0.0047
555.323	0.0046
555.611	0.0038
555.9	0.0039
556.188	0.0038
556.477	0.0055
556.765	0.0063
557.053	0.0048
557.342	0.0048
557.63	0.0036
557.918	0.0049
558.206	0.0058
558.494	0.0045
558.782	0.0053
559.069	0.0064
559.357	0.007
559.645	0.0058
559.932	0.0055
560.22	0.0053
560.507	0.0047
560.795	0.0056
561.082	0.0063
561.37	0.006
561.657	0.006
561.944	0.005
562.231	0.0054
562.518	0.0058
562.805	0.006
563.092	0.0053
563.379	0.0064
563.665	0.0048
563.952	0.0045
564.239	0.0054
564.525	0.0052
564.811	0.0058
565.098	0.0064
565.384	0.0045
565.67	0.006
565.957	0.0058
566.243	0.0063
566.529	0.0051
566.815	0.0055
567.101	0.0057
567.387	0.006
567.672	0.0063
567.958	0.0053
568.244	0.0057
568.529	0.0059
568.815	0.0059
569.1	0.004
569.386	0.0052
569.671	0.0053
569.956	0.005
570.242	0.0053
570.527	0.0055
570.812	0.0052
571.097	0.005
571.382	0.0052
571.666	0.005
571.951	0.0043
572.236	0.0046
572.521	0.0056
572.805	0.0052
573.09	0.005
573.374	0.0039
573.659	0.0051
573.943	0.0048
574.227	0.005
574.511	0.0042
574.795	0.0049
575.079	0.0058
575.363	0.0059
575.647	0.0051
575.931	0.0057
576.215	0.0048
576.499	0.0066
576.782	0.0053
577.066	0.0064
577.349	0.0058
577.633	0.0056
577.916	0.0055
578.2	0.005
578.483	0.0045
578.766	0.0049
579.049	0.0056
579.332	0.0045
579.615	0.0053
579.898	0.0051
580.181	0.0052
580.464	0.004
580.746	0.0051
581.029	0.0052
581.312	0.0044
581.594	0.0038
581.877	0.0044
582.159	0.0044
582.441	0.004
582.724	0.0044
583.006	0.0045
583.288	0.0049
583.57	0.0046
583.852	0.0057
584.134	0.0049
584.416	0.0044
584.697	0.0046
584.979	0.0047
585.261	0.0044
585.542	0.0043
585.824	0.0042
586.105	0.0037
586.387	0.0045
586.668	0.0041
586.949	0.0045
587.231	0.0054
587.512	0.0053
587.793	0.0049
588.074	0.0051
588.355	0.0038
588.636	0.0043
588.916	0.0036
589.197	0.0051
589.478	0.0047
589.758	0.0058
590.039	0.0043
590.319	0.0048
590.6	0.0048
590.88	0.0051
591.16	0.0053
591.441	0.0063
591.721	0.006
592.001	0.0053
592.281	0.0054
592.561	0.0038
592.841	0.0044
593.12	0.0038
593.4	0.0041
593.68	0.0041
593.959	0.0054
594.239	0.0047
594.518	0.0041
594.798	0.0036
595.077	0.0052
595.356	0.0047
595.636	0.0043
595.915	0.0057
596.194	0.0054
596.473	0.0056
596.752	0.0056
597.031	0.0045
597.31	0.0066
597.588	0.0059
597.867	0.0047
598.146	0.0052
598.424	0.0049
598.703	0.0057
598.981	0.0053
599.259	0.0047
599.538	0.005
599.816	0.0058
600.094	0.0052
600.372	0.0044
600.65	0.0045
600.928	0.0047
601.206	0.0043
601.484	0.0049
601.762	0.0054
602.04	0.0049
602.317	0.0047
602.595	0.0053
602.872	0.0054
603.15	0.0059
603.427	0.0052
603.704	0.0046
603.982	0.0042
604.259	0.005
604.536	0.0052
604.813	0.0055
605.09	0.0047
605.367	0.0048
605.644	0.0047
605.921	0.0048
606.197	0.0048
606.474	0.0043
606.751	0.0042
607.027	0.0044
607.304	0.0039
607.58	0.0043
607.856	0.0038
608.133	0.0044
608.409	0.0044
608.685	0.0047
608.961	0.0044
609.237	0.0043
609.513	0.0039
609.789	0.0036
610.065	0.0033
610.341	0.0041
610.616	0.004
610.892	0.0029
611.167	0.0033
611.443	0.0033
611.718	0.0031
611.994	0.003
612.269	0.0039
612.544	0.004
612.819	0.0032
613.095	0.0038
613.37	0.0022
613.645	0.003
613.919	0.0023
614.194	0.0019
614.469	0.0023
614.744	0.0029
615.019	0.0019
615.293	0.0022
615.568	0.0029
615.842	0.0032
616.116	0.0024
616.391	0.0025
616.665	0.0025
616.939	0.0035
617.213	0.002
617.488	0.004
617.762	0.004
618.035	0.0039
618.309	0.0037
618.583	0.0048
618.857	0.0043
619.131	0.004
619.404	0.0049
619.678	0.0047
619.951	0.0033
620.225	0.0037
620.498	0.0038
620.771	0.0034
621.045	0.0029
621.318	0.0038
621.591	0.0033
621.864	0.0016
622.137	0.0027
622.41	0.003
622.683	0.0029
622.956	0.0033
623.228	0.0029
623.501	0.0033
623.774	0.0029
624.046	0.0033
624.319	0.0028
624.591	0.0026
624.863	0.0038
625.136	0.0052
625.408	0.0044
625.68	0.0042
625.952	0.0039
626.224	0.0048
626.496	0.0042
626.768	0.0046
627.04	0.0041
627.311	0.0032
627.583	0.0023
627.855	0.0027
628.126	0.004
628.398	0.0025
628.669	0.0038
628.941	0.0021
629.212	0.0037
629.483	0.0031
629.755	0.0043
630.026	0.0038
630.297	0.0047
630.568	0.0054
630.839	0.0047
631.11	0.0053
631.38	0.0043
631.651	0.0047
631.922	0.0034
632.192	0.0034
632.463	0.0032
632.733	0.0041
633.004	0.0035
633.274	0.0028
633.545	0.0026
633.815	0.0038
634.085	0.0048
634.355	0.0029
634.625	0.004
634.895	0.0026
635.165	0.0021
635.435	0.0026
635.705	0.0023
635.974	0.0022
636.244	0.0023
636.514	0.0019
636.783	0.0028
637.053	0.0032
637.322	0.0019
637.591	0.0022
637.861	0.0028
638.13	0.0025
638.399	0.0023
638.668	0.0024
638.937	0.0017
639.206	0.0033
639.475	0.0016
639.744	0.001
640.013	0.0008
640.281	0.001
640.55	0.0009
640.819	0.0013
641.087	0.0021
641.356	0.0021
641.624	0.0033
641.892	0.0022
642.161	0.0029
642.429	0.0027
642.697	0.0028
642.965	0.0022
643.233	0.0032
643.501	0.0009
643.769	0.0017
644.037	0.0012
644.305	0.0007
644.572	0.0003
644.84	0.0001
645.108	0.0004
645.375	-0.0013
645.643	-0.0002
645.91	-0.0007
646.177	-0.0004
646.445	-0.0002
646.712	0.0005
646.979	0.0012
647.246	0.001
647.513	0.0006
647.78	0.0008
648.047	0.0026
648.314	0.0014
648.58	0.0016
648.847	0.0019
649.114	0.0022
649.38	0.0017
649.647	0.0017
649.913	0.0029
650.18	0.0024
650.446	0.0008
650.712	0.0012
650.978	-0.0006
651.245	-0.0011
651.511	-0.0008
651.777	-0.0006
652.043	0.0004
652.309	-0.0005
652.574	-0.0001
652.84	0.0001
653.106	-0.0003
653.371	0.0004
653.637	0.0015
653.903	0.0026
654.168	0.0014
654.433	0.0013
654.699	0.0015
654.964	0.0007
655.229	0.0008
655.494	0.0003
655.759	-0.0006
656.024	0.0007
656.289	-0
656.554	-0.0008
656.819	-0.0008
657.084	0.0003
657.349	0.0002
657.613	0.0011
657.878	0.0018
658.142	0.0015
658.407	0.0009
658.671	0.0019
658.936	0.0028
659.2	0.002
659.464	0.003
659.728	0.0022
659.992	0.0032
660.256	0.0021
660.52	0.001
660.784	-0.0003
661.048	0.0004
661.312	-0.0001
661.575	-0.0012
661.839	-0.0008
662.103	-0.0002
662.366	0.0006
662.63	-0.0007
662.893	0.0009
663.156	-0.0001
663.42	0.0017
663.683	0.0016
663.946	0.0012
664.209	0.002
664.472	0.002
664.735	0.001
664.998	0.0024
665.261	0.0019
665.524	0.0018
665.786	0.0007
666.049	0.0003
666.312	0.0008
666.574	0.0007
666.837	-0.0008
667.099	0.0003
667.361	0.0002
667.624	0.0012
667.886	0.0005
668.148	0.0013
668.41	0.0016
668.672	0.0018
668.934	0.0016
669.196	0.0018
669.458	0.0006
669.72	0.0001
669.982	0.0001
670.243	0.0001
670.505	-0.0004
670.766	0
671.028	-0.0003
671.289	0.0007
671.551	0.0009
671.812	0.0007
672.073	0.0019
672.334	0.0024
672.596	0.0012
672.857	0.0007
673.118	-0.0004
673.379	0.0005
673.639	0.0015
673.9	0.0022
674.161	0.0011
674.422	-0.0005
674.682	-0.0016
674.943	-0.0016
675.203	-0.0014
675.464	-0.0011
675.724	-0.0019
675.985	-0.0011
676.245	0.0003
676.505	0.0009
676.765	0.0013
677.025	0.0016
677.285	0.0018
677.545	0.0021
677.805	0.0002
678.065	0.0005
678.325	-0.0003
678.585	0.0001
678.844	-0.0011
679.104	-0.0013
679.363	-0.0006
679.623	-0.0011
679.882	0.0001
680.142	0.0012
680.401	0.001
680.66	0.0017
680.919	0.0002
681.178	0.0012
681.437	0.0017
681.696	0.0002
681.955	0.0002
682.214	-0.0003
682.473	-0.0001
682.732	-0.0006
682.99	-0.0005
683.249	0.0005
683.508	0.0008
683.766	0.0022
684.024	0.0016
684.283	0.0019
684.541	0.0021
684.799	0.0023
685.058	0.0018
685.316	0.0012
685.574	0.0004
685.832	0.0004
686.09	0.0005
686.348	0.0002
686.606	0.0007
686.863	0.0011
687.121	0.0015
687.379	0.0006
687.636	-0.0004
687.894	0.0005
688.151	-0.0003
688.409	-0.0005
688.666	-0.0012
688.923	-0.0018
689.181	-0.002
689.438	-0.001
689.695	-0.0014
689.952	-0.0003
690.209	0.0008
690.466	0
690.723	-0.0003
690.979	0.0001
691.236	-0.0014
691.493	-0.0009
691.75	0.0006
692.006	0.0015
692.263	0.003
692.519	0.0031
692.775	0.0016
693.032	0.0021
693.288	0.0006
693.544	0.0003
693.8	0.0009
694.056	0
694.313	0.0013
694.568	0.001
694.824	0.0023
695.08	0.0005
695.336	-0.0002
695.592	-0.001
695.847	0
696.103	0.0009
696.359	0.0008
696.614	0.0003
696.869	0.0001
697.125	-0.0016
697.38	-0.0008
697.635	-0.0017
697.891	-0.0009
698.146	-0.0006
698.401	-0.0002
698.656	-0.0004
698.911	-0.0011
699.166	-0.001
699.42	-0.0001
699.675	-0.0005
699.93	0.0001
700.185	-0.0008
700.439	0.0008
700.694	0.0019
700.948	0.0014
701.203	0.0018
701.457	0.0029
701.711	0.0035
701.965	0.0031
702.22	0.0036
702.474	0.0042
702.728	0.0032
702.982	0.0025
703.236	0.0029
703.49	0.0033
703.743	0.0033
703.997	0.0036
704.251	0.0038
704.504	0.0025
704.758	0.0015
705.012	0.0017
705.265	0.0003
705.518	0.0001
705.772	-0.0004
706.025	0.0003
706.278	-0.0003
706.531	-0.0002
706.785	-0.0002
707.038	-0.0018
707.291	-0.0016
707.543	-0.0018
707.796	-0.0021
708.049	-0.0025
708.302	-0.0028
708.555	-0.0029
708.807	-0.0029
709.06	-0.0013
709.312	-0.002
709.565	-0.0011
709.817	-0.0016
710.069	-0.0013
710.322	-0.0016
710.574	-0.002
710.826	-0.0024
711.078	-0.0028
711.33	-0.0016
711.582	-0.0027
711.834	-0.0013
712.086	-0.0007
712.338	-0.003
712.59	-0.003
712.841	-0.004
713.093	-0.0023
713.344	-0.0013
713.596	-0.0021
713.847	-0.0018
714.099	-0.001
714.35	-0.0007
714.601	-0.0012
714.853	-0.0021
715.104	-0.0006
715.355	-0
715.606	-0.0008
715.857	0
716.108	0.0005
716.359	-0.0008
716.609	-0.0017
716.86	-0.0021
717.111	-0.0033
717.361	-0.0028
717.612	-0.0022
717.863	-0.002
718.113	-0.0022
718.363	-0.0021
718.614	-0.0018
718.864	-0.0031
719.114	-0.0025
719.364	-0.0011
719.614	-0.0009
719.865	-0.0016
720.114	-0.0013
720.364	-0.0031
720.614	-0.0025
720.864	-0.0023
721.114	-0.0019
721.364	-0.0003
721.613	0.0004
721.863	-0
722.112	0.0006
722.362	0.0012
722.611	0.0017
722.86	0.0011
723.11	0.0015
723.359	0.0019
723.608	0.0012
723.857	0.0027
724.106	0.0032
724.355	0.0022
724.604	0.0022
724.853	0.001
725.102	0.0014
725.351	0.0003
725.599	0.0009
725.848	0.0017
726.097	0.0013
726.345	0.0016
726.594	0.0022
726.842	0.002
727.09	0.0028
727.339	0.0025
727.587	0.001
727.835	0.0008
728.083	0.0009
728.331	0.0001
728.579	0.0001
728.827	-0.0007
729.075	-0.0005
729.323	-0.0014
729.571	0.0003
729.818	-0.001
730.066	-0.0001
730.314	0.0004
730.561	0.0006
730.809	0.0001
731.056	0.0001
731.303	0.0014
731.551	0.0017
731.798	0.0019
732.045	0.0007
732.292	0.0012
732.539	0.0003
732.786	-0.0003
733.033	-0.0008
733.28	-0.0016
733.527	-0.001
733.774	-0.0024
734.021	-0.0021
734.267	-0.0014
734.514	-0.0025
734.76	-0.0019
735.007	-0.0016
735.253	-0.0016
735.5	-0.0015
735.746	-0.0012
735.992	-0.0009
736.238	0.0005
736.485	0.0003
736.731	0.0011
736.977	0.0003
737.223	0.0004
737.469	-0.0001
737.715	-0.0007
737.96	-0.0005
738.206	0.0001
738.452	-0
738.697	0.0002
738.943	0.0004
739.189	0.0012
739.434	-0.0004
739.679	0.0006
739.925	0.0003
740.17	0.0018
740.415	0.0001
740.66	-0.0002
740.906	-0
741.151	0.001
741.396	0.0008
741.641	0.0012
741.886	0.0002
742.13	-0.0008
742.375	-0.0001
742.62	0.0003
742.865	-0.0005
743.109	-0.0002
743.354	0.0005
743.598	0.0001
743.843	0.0004
744.087	-0.0009
744.331	0.0001
744.576	0.0006
744.82	0.0013
745.064	0.0024
745.308	0.002
745.552	0.0009
745.796	0.0009
746.04	-0.0001
746.284	-0.0011
746.528	-0.002
746.771	-0.0014
747.015	-0.0014
747.259	-0.0023
747.502	-0.0044
747.746	-0.0045
747.989	-0.0034
748.233	-0.0033
748.476	-0.0023
748.719	-0.0017
748.963	-0.0028
749.206	-0.0023
749.449	-0.0024
749.692	-0.0016
749.935	-0.0009
750.178	-0.0017
750.421	-0.0003
750.664	-0.0011
750.906	-0.0006
751.149	-0.0005
751.392	-0.0006
751.635	0.0003
751.877	-0.0008
752.12	-0.0005
752.362	-0.002
752.604	-0.0038
752.847	-0.0039
753.089	-0.003
753.331	-0.0038
753.573	-0.0028
753.816	-0.0038
754.058	-0.003
754.3	-0.0032
754.542	-0.0019
754.783	-0.0015
755.025	-0.0006
755.267	-0.0002
755.509	-0.0011
755.75	-0.0009
755.992	-0.0011
756.234	-0.0001
756.475	0.0005
756.716	-0.0001
756.958	-0.0011
757.199	-0.0007
757.44	-0.0003
757.682	-0.002
757.923	-0.0015
758.164	-0.0005
758.405	-0.0001
758.646	0.0005
758.887	0.001
759.128	0.0008
759.369	0.0009
759.609	-0
759.85	0.0001
760.091	0.0004
760.331	-0.0004
760.572	-0.0002
760.812	-0.0017
761.053	-0.0016
761.293	-0.002
761.533	-0.0026
761.774	-0.0015
762.014	-0.0027
762.254	-0.0025
762.494	-0.0033
762.734	-0.0013
762.974	-0.0006
763.214	-0.0007
763.454	-0.0003
763.694	-0.0008
763.933	-0
764.173	-0.0017
764.413	-0.0018
764.652	-0.0024
764.892	-0.0031
765.131	-0.0032
765.371	-0.0029
765.61	-0.0035
765.849	-0.004
766.089	-0.0033
766.328	-0.0039
766.567	-0.0018
766.806	-0.0006
767.045	0.0003
767.284	-0.0002
767.523	0.0007
767.762	-0.0002
768.001	-0.001
768.239	-0.0006
768.478	-0.0008
768.717	-0.0003
768.955	-0.0012
769.194	-0.002
769.432	-0.0015
769.671	-0.0009
769.909	0
770.148	0.0003
770.386	-0.0016
770.624	-0.0001
770.862	0.0001
771.1	-0.0014
771.338	-0.001
771.576	0
771.814	0.0003
772.052	0.0008
772.29	-0.0006
772.528	-0.0002
772.765	-0.0006
773.003	0.0003
773.24	0.0001
773.478	0.0013
773.716	0.0021
773.953	0.0019
774.19	0.0026
774.428	0.0018
774.665	0.0012
774.902	0.0019
775.139	0.0006
775.376	0.0011
775.613	0.0024
775.85	0.0024
776.087	0.0023
776.324	0.002
776.561	0.0024
776.798	0.0033
777.034	0.0025
777.271	0.0021
777.508	0.0028
777.744	0.0007
777.981	0.0008
778.217	0.0013
778.454	0.0019
778.69	0.0031
778.926	0.0029
779.162	0.0029
779.399	0.0035
779.635	0.0035
779.871	0.0037
780.107	0.0022
780.343	0.0032
780.579	0.0015
780.814	0.0014
781.05	-0.0001
781.286	0.0003
781.522	-0.0002
781.757	0.0004
781.993	0.0011
782.228	0.0011
782.464	0.0005
782.699	0.0002
782.934	-0.0018
783.17	-0.0015
783.405	-0.0036
783.64	-0.0047
783.875	-0.0035
784.11	-0.0035
784.345	-0.0032
784.58	-0.0023
784.815	-0.0032
785.05	-0.0029
785.285	-0.0032
785.52	-0.0029
785.754	-0.0023
785.989	-0.0022
786.223	-0.0007
786.458	0.0003
786.692	-0.0007
786.927	0.0009
787.161	0.0005
787.396	-0.0008
787.63	-0.0006
787.864	-0.0025
788.098	-0.0019
788.332	-0.0022
788.566	-0.0026
788.8	-0.0028
789.034	-0.0031
789.268	-0.0034
789.502	-0.0033
789.736	-0.0042
789.969	-0.0034
790.203	-0.0038
790.437	-0.0033
790.67	-0.0041
790.904	-0.0038
791.137	-0.0033
791.37	-0.0042
791.604	-0.0045
791.837	-0.0049
792.07	-0.0045
792.303	-0.0049
792.537	-0.0042
792.77	-0.0053
793.003	-0.0057
793.236	-0.0061
793.469	-0.0047
793.701	-0.0034
793.934	-0.0034
794.167	-0.0023
794.4	-0.0032
794.632	-0.0029
794.865	-0.0034
795.097	-0.0038
795.33	-0.0033
795.562	-0.0037
795.795	-0.0041
796.027	-0.0045
796.259	-0.0048
796.491	-0.003
796.724	-0.0024
796.956	-0.0028
797.188	-0.0018
797.42	-0.002
797.652	-0.0011
797.883	-0.0013
798.115	-0.0009
798.347	-0.0008
798.579	-0.0017
798.81	-0.0028
799.042	-0.0037
799.274	-0.0032
799.505	-0.0028
799.737	-0.0034
799.968	-0.0035
800.199	-0.0028
800.431	-0.0024
800.662	-0.0027
800.893	-0.0031
801.124	-0.003
801.355	-0.0027
801.586	-0.0026
801.817	-0.0016
802.048	-0.0009
802.279	0.0005
802.51	0.0005
802.741	0.0007
802.971	-0.0007
803.202	-0.0023
803.433	-0.0019
803.663	-0.0018
803.894	-0.0007
804.124	-0.0002
804.354	0.0011
804.585	0.0003
804.815	0.001
805.045	-0.0003
805.275	0.0005
805.506	-0.0842
805.736	0.1099
805.966	0.3616
806.196	0.2014
