Data from 04 0.5 mM K2Cr2O7 0.3 mM BQDS 1 M H2SO4 5 min_ 29_min_gap_Absorbance_0016.txt Node
Date: Tue Dec 14 14:02:56 EST 2021
User: kwabilab-user
Spectrometer: HDX00518
Trigger mode: 0
Integration Time (sec): 5.000000E-2
Scans to average: 50
Nonlinearity correction enabled: false
Boxcar width: 0
Storing dark spectrum: false
XAxis mode: Wavelengths
Number of Pixels in Spectrum: 2068
>>>>>Begin Spectral Data<<<<<
195.27	0.1682
195.642	0.4174
196.014	0.0549
196.386	0.2904
196.758	0.0882
197.129	0.0474
197.501	0.0648
197.872	0.076
198.244	0.0913
198.615	0.0745
198.986	0.1037
199.357	0.0928
199.728	0.0975
200.099	0.1022
200.47	0.0849
200.841	0.1097
201.212	0.0994
201.582	0.089
201.953	0.0835
202.323	0.0976
202.694	0.0825
203.064	0.0749
203.434	0.0847
203.804	0.0748
204.174	0.0853
204.544	0.1143
204.914	0.0935
205.284	0.0773
205.653	0.0985
206.023	0.1007
206.393	0.1001
206.762	0.0746
207.131	0.1087
207.501	0.0981
207.87	0.1355
208.239	0.11
208.608	0.118
208.977	0.111
209.346	0.1295
209.715	0.1098
210.083	0.1096
210.452	0.1108
210.82	0.0933
211.189	0.0924
211.557	0.1185
211.925	0.1025
212.294	0.1191
212.662	0.1054
213.03	0.1139
213.398	0.1319
213.766	0.1191
214.133	0.1063
214.501	0.1235
214.869	0.1245
215.236	0.1186
215.604	0.111
215.971	0.1324
216.338	0.1057
216.705	0.134
217.072	0.1444
217.439	0.1356
217.806	0.1398
218.173	0.1559
218.54	0.1558
218.907	0.1627
219.273	0.1735
219.64	0.1769
220.006	0.21
220.373	0.1937
220.739	0.2292
221.105	0.2548
221.471	0.2594
221.837	0.2749
222.203	0.3095
222.569	0.3349
222.935	0.3275
223.3	0.3605
223.666	0.4037
224.031	0.3882
224.397	0.4294
224.762	0.4458
225.127	0.4887
225.493	0.524
225.858	0.5357
226.223	0.5681
226.588	0.5933
226.952	0.6022
227.317	0.6458
227.682	0.6456
228.046	0.641
228.411	0.6952
228.775	0.6972
229.14	0.7025
229.504	0.7142
229.868	0.7308
230.232	0.7406
230.596	0.7496
230.96	0.7649
231.324	0.7617
231.688	0.7684
232.052	0.7986
232.415	0.8013
232.779	0.797
233.142	0.8009
233.505	0.8064
233.869	0.8115
234.232	0.7981
234.595	0.7897
234.958	0.7944
235.321	0.7837
235.684	0.7809
236.047	0.7904
236.409	0.7809
236.772	0.7766
237.134	0.7883
237.497	0.7746
237.859	0.7748
238.222	0.7713
238.584	0.7648
238.946	0.7516
239.308	0.7543
239.67	0.7508
240.032	0.7461
240.393	0.7373
240.755	0.734
241.117	0.7302
241.478	0.7237
241.84	0.7174
242.201	0.7122
242.562	0.7095
242.924	0.7001
243.285	0.6917
243.646	0.6988
244.007	0.6837
244.368	0.6937
244.728	0.6851
245.089	0.6792
245.45	0.6762
245.81	0.6706
246.171	0.665
246.531	0.6641
246.891	0.6586
247.252	0.658
247.612	0.6592
247.972	0.6518
248.332	0.6531
248.692	0.651
249.051	0.6509
249.411	0.6407
249.771	0.6361
250.13	0.635
250.49	0.6369
250.849	0.6348
251.208	0.6259
251.568	0.6294
251.927	0.6267
252.286	0.6283
252.645	0.6273
253.004	0.6254
253.363	0.6141
253.721	0.6235
254.08	0.6218
254.439	0.6167
254.797	0.6137
255.155	0.6173
255.514	0.6126
255.872	0.617
256.23	0.6098
256.588	0.6126
256.946	0.5993
257.304	0.6046
257.662	0.603
258.02	0.6032
258.377	0.5978
258.735	0.6004
259.093	0.598
259.45	0.5982
259.807	0.5965
260.165	0.592
260.522	0.5955
260.879	0.5866
261.236	0.5916
261.593	0.5867
261.95	0.5826
262.306	0.5866
262.663	0.5815
263.02	0.5806
263.376	0.5791
263.733	0.5801
264.089	0.5753
264.445	0.5712
264.802	0.5713
265.158	0.5717
265.514	0.5654
265.87	0.5608
266.226	0.5669
266.581	0.5652
266.937	0.5612
267.293	0.558
267.648	0.5571
268.004	0.5535
268.359	0.5526
268.714	0.553
269.07	0.5461
269.425	0.5438
269.78	0.5413
270.135	0.541
270.49	0.5368
270.844	0.5365
271.199	0.534
271.554	0.534
271.908	0.5263
272.263	0.5278
272.617	0.5225
272.972	0.5216
273.326	0.5179
273.68	0.5135
274.034	0.5116
274.388	0.5081
274.742	0.5089
275.096	0.5062
275.45	0.5019
275.803	0.5013
276.157	0.5008
276.51	0.4949
276.864	0.4911
277.217	0.4867
277.571	0.4867
277.924	0.48
278.277	0.4767
278.63	0.4729
278.983	0.471
279.336	0.4669
279.688	0.4622
280.041	0.4563
280.394	0.4549
280.746	0.4511
281.099	0.447
281.451	0.4438
281.803	0.44
282.156	0.4352
282.508	0.4306
282.86	0.429
283.212	0.4243
283.564	0.4211
283.916	0.4156
284.267	0.4142
284.619	0.4073
284.971	0.406
285.322	0.4008
285.673	0.3977
286.025	0.3922
286.376	0.3894
286.727	0.3844
287.078	0.3819
287.429	0.3783
287.78	0.3748
288.131	0.3699
288.482	0.3633
288.833	0.362
289.183	0.3574
289.534	0.354
289.884	0.3515
290.235	0.3447
290.585	0.3414
290.935	0.3367
291.285	0.3315
291.635	0.3284
291.985	0.3254
292.335	0.3204
292.685	0.3177
293.035	0.3133
293.384	0.3091
293.734	0.3052
294.083	0.301
294.433	0.2979
294.782	0.2936
295.131	0.2902
295.48	0.2856
295.829	0.2819
296.179	0.2785
296.527	0.275
296.876	0.2696
297.225	0.2676
297.574	0.2642
297.922	0.2607
298.271	0.2562
298.619	0.2516
298.968	0.2494
299.316	0.2452
299.664	0.2436
300.012	0.2401
300.36	0.2354
300.708	0.2325
301.056	0.232
301.404	0.2262
301.752	0.2237
302.099	0.2209
302.447	0.2186
302.794	0.2156
303.142	0.2123
303.489	0.2106
303.836	0.2078
304.183	0.2055
304.531	0.2028
304.878	0.2011
305.224	0.1984
305.571	0.1977
305.918	0.1941
306.265	0.1925
306.611	0.191
306.958	0.1902
307.304	0.1873
307.651	0.1865
307.997	0.184
308.343	0.1839
308.689	0.1831
309.035	0.1799
309.381	0.1789
309.727	0.1781
310.073	0.1769
310.419	0.1753
310.764	0.1757
311.11	0.175
311.455	0.1747
311.801	0.1734
312.146	0.1724
312.491	0.1721
312.837	0.1713
313.182	0.1717
313.527	0.1717
313.872	0.1714
314.216	0.1698
314.561	0.1696
314.906	0.1699
315.251	0.1703
315.595	0.1702
315.94	0.1702
316.284	0.1702
316.628	0.1702
316.972	0.1709
317.317	0.1706
317.661	0.1713
318.005	0.172
318.348	0.1722
318.692	0.1726
319.036	0.1727
319.38	0.1735
319.723	0.174
320.067	0.1749
320.41	0.1745
320.754	0.176
321.097	0.1774
321.44	0.1779
321.783	0.1789
322.126	0.1794
322.469	0.181
322.812	0.1828
323.155	0.184
323.498	0.1839
323.84	0.1845
324.183	0.186
324.525	0.1871
324.868	0.1875
325.21	0.189
325.552	0.1906
325.894	0.1914
326.236	0.1929
326.578	0.1935
326.92	0.1951
327.262	0.1967
327.604	0.1975
327.946	0.199
328.287	0.2007
328.629	0.2018
328.97	0.2035
329.312	0.2046
329.653	0.2054
329.994	0.2074
330.335	0.2082
330.676	0.2109
331.017	0.2116
331.358	0.2139
331.699	0.2143
332.04	0.216
332.38	0.2173
332.721	0.2184
333.061	0.2208
333.402	0.2215
333.742	0.2228
334.083	0.2238
334.423	0.2248
334.763	0.2275
335.103	0.228
335.443	0.229
335.783	0.2305
336.123	0.2306
336.462	0.2326
336.802	0.2332
337.141	0.2342
337.481	0.2359
337.82	0.2374
338.16	0.2375
338.499	0.2389
338.838	0.2401
339.177	0.2416
339.516	0.2421
339.855	0.2432
340.194	0.2444
340.533	0.2452
340.872	0.246
341.21	0.2474
341.549	0.2484
341.887	0.2489
342.226	0.2498
342.564	0.25
342.902	0.2507
343.24	0.2509
343.578	0.2515
343.916	0.2515
344.254	0.2516
344.592	0.2526
344.93	0.2527
345.268	0.2513
345.605	0.2533
345.943	0.2524
346.28	0.2535
346.618	0.2535
346.955	0.2536
347.292	0.2532
347.629	0.2531
347.966	0.2536
348.303	0.2539
348.64	0.2539
348.977	0.2542
349.314	0.2535
349.65	0.2538
349.987	0.2535
350.324	0.2537
350.66	0.253
350.996	0.253
351.333	0.2511
351.669	0.2521
352.005	0.2503
352.341	0.2499
352.677	0.2501
353.013	0.2476
353.349	0.247
353.685	0.2464
354.02	0.2446
354.356	0.2441
354.691	0.2428
355.027	0.2425
355.362	0.2401
355.697	0.2398
356.033	0.239
356.368	0.2381
356.703	0.237
357.038	0.2365
357.373	0.2351
357.707	0.2344
358.042	0.2334
358.377	0.2329
358.711	0.2315
359.046	0.2313
359.38	0.2291
359.715	0.2292
360.049	0.2268
360.383	0.2253
360.717	0.2241
361.051	0.2236
361.385	0.2218
361.719	0.22
362.053	0.2185
362.387	0.2161
362.72	0.2146
363.054	0.2125
363.387	0.2112
363.721	0.2096
364.054	0.2076
364.387	0.2065
364.721	0.2039
365.054	0.2025
365.387	0.2005
365.72	0.1989
366.053	0.1971
366.385	0.1966
366.718	0.1945
367.051	0.1933
367.383	0.1915
367.716	0.1907
368.048	0.1888
368.381	0.1877
368.713	0.1861
369.045	0.1845
369.377	0.1829
369.709	0.182
370.041	0.1795
370.373	0.1785
370.705	0.1768
371.037	0.1756
371.368	0.174
371.7	0.1723
372.031	0.1709
372.363	0.1688
372.694	0.1666
373.025	0.165
373.356	0.1628
373.688	0.16
374.019	0.1583
374.35	0.1574
374.68	0.1553
375.011	0.1537
375.342	0.1507
375.673	0.1488
376.003	0.1482
376.334	0.1459
376.664	0.1445
376.995	0.1427
377.325	0.1405
377.655	0.1394
377.985	0.1381
378.315	0.1356
378.645	0.1351
378.975	0.1334
379.305	0.1322
379.635	0.1308
379.964	0.1294
380.294	0.1284
380.623	0.1275
380.953	0.1254
381.282	0.1241
381.611	0.1227
381.941	0.122
382.27	0.1208
382.599	0.1193
382.928	0.1179
383.257	0.1157
383.585	0.1143
383.914	0.1132
384.243	0.1113
384.571	0.1091
384.9	0.1078
385.228	0.1059
385.557	0.1043
385.885	0.1025
386.213	0.1011
386.541	0.0992
386.869	0.0983
387.197	0.0966
387.525	0.0953
387.853	0.0938
388.181	0.0922
388.508	0.0907
388.836	0.0898
389.164	0.0886
389.491	0.0878
389.818	0.0858
390.146	0.085
390.473	0.0838
390.8	0.0827
391.127	0.0811
391.454	0.0809
391.781	0.0791
392.108	0.0783
392.435	0.0778
392.761	0.0777
393.088	0.0754
393.415	0.0745
393.741	0.0742
394.067	0.0732
394.394	0.0724
394.72	0.0719
395.046	0.0705
395.372	0.0692
395.698	0.0677
396.024	0.0677
396.35	0.0666
396.676	0.0659
397.001	0.0651
397.327	0.065
397.653	0.0637
397.978	0.0629
398.303	0.0622
398.629	0.0613
398.954	0.0594
399.279	0.0595
399.604	0.0587
399.929	0.0578
400.254	0.0569
400.579	0.0562
400.904	0.0566
401.229	0.0552
401.553	0.0545
401.878	0.0549
402.202	0.0535
402.527	0.0528
402.851	0.0519
403.175	0.0517
403.5	0.0514
403.824	0.0511
404.148	0.0512
404.472	0.0505
404.796	0.0504
405.119	0.0495
405.443	0.0497
405.767	0.0495
406.09	0.0489
406.414	0.0491
406.737	0.0488
407.061	0.0479
407.384	0.0486
407.707	0.0477
408.03	0.0471
408.353	0.0471
408.676	0.0471
408.999	0.0464
409.322	0.0475
409.645	0.047
409.968	0.0473
410.29	0.0466
410.613	0.0458
410.935	0.0464
411.258	0.0455
411.58	0.0458
411.902	0.0458
412.224	0.0453
412.546	0.0458
412.868	0.0453
413.19	0.0451
413.512	0.0457
413.834	0.0458
414.156	0.0459
414.477	0.0456
414.799	0.046
415.121	0.0448
415.442	0.0447
415.763	0.0459
416.085	0.046
416.406	0.0458
416.727	0.0451
417.048	0.0452
417.369	0.0445
417.69	0.0455
418.011	0.0451
418.331	0.0456
418.652	0.0453
418.973	0.0446
419.293	0.0449
419.614	0.0452
419.934	0.0449
420.254	0.0456
420.574	0.0456
420.895	0.0455
421.215	0.0453
421.535	0.0447
421.855	0.0455
422.174	0.0452
422.494	0.0451
422.814	0.0455
423.134	0.0459
423.453	0.0454
423.773	0.0452
424.092	0.0458
424.411	0.046
424.731	0.0461
425.05	0.045
425.369	0.0453
425.688	0.0453
426.007	0.0454
426.326	0.0448
426.644	0.0452
426.963	0.0457
427.282	0.0456
427.6	0.0451
427.919	0.0452
428.237	0.0458
428.556	0.0456
428.874	0.0454
429.192	0.046
429.51	0.0461
429.828	0.0454
430.146	0.0452
430.464	0.0459
430.782	0.0455
431.1	0.0452
431.418	0.0463
431.735	0.0462
432.053	0.0464
432.37	0.046
432.688	0.0461
433.005	0.0453
433.322	0.0455
433.639	0.0457
433.957	0.0455
434.274	0.0456
434.591	0.0454
434.907	0.0458
435.224	0.0459
435.541	0.0457
435.858	0.046
436.174	0.0463
436.491	0.0465
436.807	0.0459
437.124	0.0457
437.44	0.0459
437.756	0.045
438.072	0.0453
438.388	0.0456
438.704	0.0453
439.02	0.0455
439.336	0.0454
439.652	0.0452
439.968	0.0446
440.283	0.0452
440.599	0.0461
440.914	0.0458
441.23	0.0458
441.545	0.046
441.86	0.045
442.175	0.0454
442.491	0.0457
442.806	0.0452
443.121	0.045
443.435	0.0447
443.75	0.0449
444.065	0.0454
444.38	0.0439
444.694	0.0447
445.009	0.0457
445.323	0.0449
445.638	0.0442
445.952	0.0446
446.266	0.0438
446.58	0.0438
446.894	0.0444
447.208	0.044
447.522	0.0442
447.836	0.0433
448.15	0.0445
448.464	0.0437
448.777	0.0438
449.091	0.0434
449.404	0.0438
449.718	0.0432
450.031	0.0431
450.345	0.043
450.658	0.0436
450.971	0.0441
451.284	0.0433
451.597	0.0417
451.91	0.0424
452.223	0.0428
452.535	0.0423
452.848	0.0419
453.161	0.0425
453.473	0.0414
453.786	0.0418
454.098	0.0417
454.411	0.0416
454.723	0.0421
455.035	0.0412
455.347	0.0411
455.659	0.041
455.971	0.0408
456.283	0.0412
456.595	0.0404
456.907	0.0405
457.218	0.0402
457.53	0.04
457.841	0.04
458.153	0.0401
458.464	0.0394
458.776	0.0389
459.087	0.0396
459.398	0.0386
459.709	0.039
460.02	0.0391
460.331	0.0389
460.642	0.0383
460.953	0.0384
461.263	0.0379
461.574	0.0384
461.885	0.0383
462.195	0.038
462.506	0.0371
462.816	0.0375
463.126	0.0371
463.437	0.0372
463.747	0.0363
464.057	0.0376
464.367	0.0368
464.677	0.0363
464.987	0.036
465.296	0.0364
465.606	0.0361
465.916	0.0361
466.225	0.0358
466.535	0.0353
466.844	0.0353
467.154	0.0346
467.463	0.034
467.772	0.0344
468.081	0.0336
468.39	0.0337
468.699	0.0342
469.008	0.0331
469.317	0.0331
469.626	0.0335
469.935	0.0324
470.243	0.0336
470.552	0.0333
470.86	0.0323
471.169	0.0334
471.477	0.0315
471.785	0.0316
472.093	0.0321
472.402	0.031
472.71	0.0313
473.018	0.0304
473.326	0.0305
473.633	0.0299
473.941	0.0299
474.249	0.0301
474.556	0.0306
474.864	0.0299
475.171	0.0299
475.479	0.0294
475.786	0.0302
476.094	0.0291
476.401	0.0291
476.708	0.0286
477.015	0.0287
477.322	0.028
477.629	0.0279
477.936	0.0275
478.242	0.0276
478.549	0.0276
478.856	0.0279
479.162	0.0263
479.469	0.0269
479.775	0.026
480.081	0.0274
480.388	0.0262
480.694	0.0266
481	0.0256
481.306	0.0257
481.612	0.0261
481.918	0.0249
482.224	0.0239
482.53	0.0256
482.835	0.0245
483.141	0.0251
483.446	0.0247
483.752	0.0236
484.057	0.024
484.363	0.0236
484.668	0.0236
484.973	0.0233
485.278	0.0237
485.583	0.0229
485.888	0.0223
486.193	0.0222
486.498	0.0228
486.803	0.0224
487.107	0.0218
487.412	0.021
487.717	0.0207
488.021	0.0217
488.325	0.021
488.63	0.0213
488.934	0.0213
489.238	0.0198
489.542	0.0202
489.846	0.0203
490.15	0.0204
490.454	0.019
490.758	0.0194
491.062	0.018
491.366	0.0196
491.669	0.0191
491.973	0.0197
492.276	0.0191
492.58	0.0194
492.883	0.0186
493.186	0.0185
493.489	0.0175
493.792	0.019
494.096	0.0175
494.399	0.0181
494.701	0.017
495.004	0.0174
495.307	0.0166
495.61	0.0158
495.912	0.0168
496.215	0.0165
496.517	0.0159
496.82	0.0162
497.122	0.0163
497.424	0.0159
497.727	0.0166
498.029	0.0154
498.331	0.0149
498.633	0.0151
498.935	0.0148
499.237	0.014
499.538	0.0148
499.84	0.0153
500.142	0.0146
500.443	0.014
500.745	0.0147
501.046	0.0139
501.348	0.0146
501.649	0.0132
501.95	0.0139
502.251	0.0142
502.552	0.0131
502.853	0.0126
503.154	0.013
503.455	0.0118
503.756	0.0127
504.057	0.0114
504.357	0.012
504.658	0.0124
504.958	0.012
505.259	0.0126
505.559	0.0123
505.859	0.0124
506.16	0.0119
506.46	0.0117
506.76	0.0106
507.06	0.0118
507.36	0.0119
507.66	0.011
507.96	0.0103
508.259	0.0116
508.559	0.0115
508.859	0.0108
509.158	0.0109
509.457	0.0101
509.757	0.0104
510.056	0.0107
510.355	0.0094
510.655	0.0091
510.954	0.0093
511.253	0.01
511.552	0.0103
511.851	0.0093
512.149	0.0096
512.448	0.009
512.747	0.0087
513.045	0.0091
513.344	0.0078
513.642	0.0087
513.941	0.0101
514.239	0.0077
514.537	0.0083
514.836	0.0097
515.134	0.0087
515.432	0.0096
515.73	0.0097
516.028	0.0102
516.326	0.0087
516.623	0.0079
516.921	0.0079
517.219	0.0091
517.516	0.0092
517.814	0.0089
518.111	0.0081
518.409	0.0081
518.706	0.007
519.003	0.0082
519.3	0.0075
519.597	0.0072
519.894	0.0077
520.191	0.0072
520.488	0.0085
520.785	0.0075
521.082	0.0074
521.378	0.0071
521.675	0.0071
521.971	0.0083
522.268	0.0069
522.564	0.008
522.861	0.0071
523.157	0.0072
523.453	0.0071
523.749	0.0062
524.045	0.0075
524.341	0.0073
524.637	0.0066
524.933	0.0066
525.229	0.0062
525.524	0.0073
525.82	0.0067
526.115	0.0071
526.411	0.0062
526.706	0.0058
527.002	0.0062
527.297	0.0059
527.592	0.0054
527.887	0.0063
528.182	0.0073
528.477	0.007
528.772	0.0067
529.067	0.0067
529.362	0.005
529.657	0.0066
529.951	0.0054
530.246	0.0052
530.54	0.006
530.835	0.006
531.129	0.0064
531.423	0.0061
531.718	0.0053
532.012	0.0056
532.306	0.0049
532.6	0.0062
532.894	0.0041
533.188	0.0054
533.482	0.0052
533.775	0.0056
534.069	0.0054
534.363	0.0055
534.656	0.005
534.95	0.0054
535.243	0.0059
535.536	0.0037
535.83	0.0055
536.123	0.0055
536.416	0.0052
536.709	0.006
537.002	0.006
537.295	0.0051
537.588	0.0052
537.881	0.0056
538.173	0.0057
538.466	0.0051
538.759	0.0059
539.051	0.0062
539.344	0.0043
539.636	0.0054
539.928	0.0046
540.22	0.006
540.513	0.0041
540.805	0.004
541.097	0.0043
541.389	0.0056
541.681	0.0056
541.972	0.0056
542.264	0.0059
542.556	0.0058
542.847	0.005
543.139	0.0057
543.431	0.0055
543.722	0.0048
544.013	0.0058
544.305	0.0045
544.596	0.0054
544.887	0.0052
545.178	0.0045
545.469	0.0038
545.76	0.0048
546.051	0.0042
546.342	0.0046
546.632	0.0039
546.923	0.0051
547.214	0.004
547.504	0.005
547.795	0.0054
548.085	0.005
548.375	0.0048
548.666	0.0053
548.956	0.0053
549.246	0.0043
549.536	0.0045
549.826	0.0065
550.116	0.005
550.406	0.0073
550.695	0.005
550.985	0.0047
551.275	0.005
551.564	0.0046
551.854	0.0055
552.143	0.0048
552.433	0.0039
552.722	0.0058
553.011	0.0056
553.3	0.0059
553.589	0.0045
553.879	0.005
554.167	0.0041
554.456	0.0044
554.745	0.0045
555.034	0.0052
555.323	0.0042
555.611	0.0036
555.9	0.0047
556.188	0.005
556.477	0.004
556.765	0.0053
557.053	0.005
557.342	0.0052
557.63	0.0037
557.918	0.0045
558.206	0.0053
558.494	0.0054
558.782	0.0062
559.069	0.0062
559.357	0.0062
559.645	0.006
559.932	0.0055
560.22	0.0045
560.507	0.0063
560.795	0.0063
561.082	0.007
561.37	0.0058
561.657	0.0065
561.944	0.006
562.231	0.0043
562.518	0.0051
562.805	0.0056
563.092	0.0052
563.379	0.006
563.665	0.0051
563.952	0.0053
564.239	0.0054
564.525	0.005
564.811	0.0054
565.098	0.007
565.384	0.0057
565.67	0.0061
565.957	0.0062
566.243	0.0064
566.529	0.0052
566.815	0.0056
567.101	0.006
567.387	0.0067
567.672	0.0059
567.958	0.0053
568.244	0.0054
568.529	0.0053
568.815	0.0054
569.1	0.0049
569.386	0.0053
569.671	0.0046
569.956	0.0051
570.242	0.0057
570.527	0.0065
570.812	0.005
571.097	0.0058
571.382	0.0049
571.666	0.0051
571.951	0.0051
572.236	0.0049
572.521	0.0056
572.805	0.0054
573.09	0.0039
573.374	0.0043
573.659	0.0048
573.943	0.0049
574.227	0.0057
574.511	0.0046
574.795	0.0055
575.079	0.0063
575.363	0.006
575.647	0.006
575.931	0.0056
576.215	0.0054
576.499	0.0057
576.782	0.0056
577.066	0.0061
577.349	0.0059
577.633	0.0058
577.916	0.0051
578.2	0.0051
578.483	0.0051
578.766	0.0047
579.049	0.0055
579.332	0.0041
579.615	0.0055
579.898	0.0048
580.181	0.0047
580.464	0.0044
580.746	0.0049
581.029	0.0055
581.312	0.0036
581.594	0.004
581.877	0.0046
582.159	0.0046
582.441	0.0046
582.724	0.0049
583.006	0.0043
583.288	0.0054
583.57	0.005
583.852	0.0049
584.134	0.0047
584.416	0.0041
584.697	0.0056
584.979	0.005
585.261	0.0046
585.542	0.0045
585.824	0.0046
586.105	0.0036
586.387	0.0051
586.668	0.005
586.949	0.0047
587.231	0.0051
587.512	0.0054
587.793	0.005
588.074	0.0048
588.355	0.0049
588.636	0.0049
588.916	0.0047
589.197	0.0049
589.478	0.0049
589.758	0.0054
590.039	0.0051
590.319	0.0053
590.6	0.0043
590.88	0.0046
591.16	0.0053
591.441	0.0052
591.721	0.0059
592.001	0.0057
592.281	0.0056
592.561	0.0045
592.841	0.0041
593.12	0.0041
593.4	0.0042
593.68	0.0049
593.959	0.0054
594.239	0.0044
594.518	0.0044
594.798	0.0042
595.077	0.0049
595.356	0.0047
595.636	0.0045
595.915	0.0052
596.194	0.0056
596.473	0.0059
596.752	0.0046
597.031	0.0051
597.31	0.0059
597.588	0.0056
597.867	0.0048
598.146	0.0052
598.424	0.0057
598.703	0.0048
598.981	0.0052
599.259	0.0047
599.538	0.0053
599.816	0.0059
600.094	0.0051
600.372	0.0045
600.65	0.0047
600.928	0.0048
601.206	0.0042
601.484	0.0055
601.762	0.0056
602.04	0.0054
602.317	0.0054
602.595	0.0039
602.872	0.0062
603.15	0.0048
603.427	0.0051
603.704	0.0053
603.982	0.0041
604.259	0.0056
604.536	0.005
604.813	0.0055
605.09	0.0055
605.367	0.0055
605.644	0.0045
605.921	0.0052
606.197	0.005
606.474	0.0041
606.751	0.0047
607.027	0.0042
607.304	0.0041
607.58	0.0042
607.856	0.0042
608.133	0.0045
608.409	0.0049
608.685	0.0047
608.961	0.0052
609.237	0.0048
609.513	0.0044
609.789	0.004
610.065	0.0039
610.341	0.0042
610.616	0.0039
610.892	0.0039
611.167	0.0037
611.443	0.0033
611.718	0.0032
611.994	0.0026
612.269	0.0039
612.544	0.0039
612.819	0.0031
613.095	0.0041
613.37	0.003
613.645	0.0037
613.919	0.0029
614.194	0.0022
614.469	0.0034
614.744	0.0016
615.019	0.0023
615.293	0.003
615.568	0.0034
615.842	0.0031
616.116	0.0026
616.391	0.0032
616.665	0.0033
616.939	0.0027
617.213	0.0025
617.488	0.0035
617.762	0.0046
618.035	0.0046
618.309	0.004
618.583	0.0052
618.857	0.0048
619.131	0.004
619.404	0.0035
619.678	0.0046
619.951	0.0037
620.225	0.0034
620.498	0.004
620.771	0.0033
621.045	0.0035
621.318	0.0036
621.591	0.0026
621.864	0.0021
622.137	0.0026
622.41	0.0033
622.683	0.0034
622.956	0.0037
623.228	0.0039
623.501	0.004
623.774	0.0027
624.046	0.0038
624.319	0.003
624.591	0.0023
624.863	0.0039
625.136	0.0044
625.408	0.0037
625.68	0.0043
625.952	0.004
626.224	0.0048
626.496	0.0036
626.768	0.0044
627.04	0.0041
627.311	0.0039
627.583	0.0029
627.855	0.0022
628.126	0.0025
628.398	0.0023
628.669	0.0038
628.941	0.0026
629.212	0.0032
629.483	0.0035
629.755	0.0036
630.026	0.0049
630.297	0.0046
630.568	0.0056
630.839	0.0051
631.11	0.0047
631.38	0.0043
631.651	0.005
631.922	0.0037
632.192	0.0031
632.463	0.0032
632.733	0.0032
633.004	0.0028
633.274	0.0036
633.545	0.0038
633.815	0.0036
634.085	0.0044
634.355	0.0035
634.625	0.0034
634.895	0.002
635.165	0.0021
635.435	0.0021
635.705	0.0022
635.974	0.0027
636.244	0.0024
636.514	0.003
636.783	0.0036
637.053	0.0035
637.322	0.0016
637.591	0.0024
637.861	0.0024
638.13	0.0019
638.399	0.0028
638.668	0.0027
638.937	0.0026
639.206	0.0033
639.475	0.0031
639.744	0.0013
640.013	-0.0002
640.281	0.0001
640.55	0.0009
640.819	0.0012
641.087	0.0019
641.356	0.0026
641.624	0.0029
641.892	0.0017
642.161	0.002
642.429	0.0026
642.697	0.0023
642.965	0.0028
643.233	0.0028
643.501	0.0008
643.769	0.0019
644.037	0.0011
644.305	0.0007
644.572	0.0001
644.84	0.0001
645.108	-0.0009
645.375	-0.001
645.643	-0.0012
645.91	-0.0001
646.177	0.0001
646.445	0.0007
646.712	0.0003
646.979	0.0011
647.246	0.0006
647.513	0.0006
647.78	0.0011
648.047	0.0009
648.314	0.0006
648.58	0.0016
648.847	0.0021
649.114	0.002
649.38	0.0016
649.647	0.0014
649.913	0.0026
650.18	0.0025
650.446	0.0009
650.712	0.0005
650.978	-0.0007
651.245	-0.0018
651.511	-0.0009
651.777	-0.0014
652.043	-0.0002
652.309	-0.0002
652.574	0.0006
652.84	0.0003
653.106	0.0002
653.371	0.001
653.637	0.0005
653.903	0.0015
654.168	0.0015
654.433	0.0013
654.699	0.001
654.964	0.0006
655.229	-0
655.494	-0.0002
655.759	-0.0007
656.024	0.0012
656.289	-0
656.554	-0.0002
656.819	-0.0007
657.084	0.0001
657.349	-0.0001
657.613	0.0008
657.878	0.0015
658.142	0.0009
658.407	0.0018
658.671	0.0012
658.936	0.0018
659.2	0.003
659.464	0.0013
659.728	0.0023
659.992	0.0027
660.256	0.002
660.52	0.001
660.784	0.0001
661.048	-0.0003
661.312	-0.0009
661.575	-0.0016
661.839	-0.0015
662.103	-0.0012
662.366	-0.0002
662.63	-0.0008
662.893	0.0007
663.156	0.0003
663.42	0.0017
663.683	0.002
663.946	0.0016
664.209	0.0015
664.472	0.0026
664.735	0.0006
664.998	0.0019
665.261	0.0012
665.524	0.0009
665.786	0.0016
666.049	0.0008
666.312	0.0009
666.574	-0.0001
666.837	-0.0006
667.099	0.0002
667.361	0.0004
667.624	0.0012
667.886	0.0007
668.148	0.0007
668.41	0.0012
668.672	0.002
668.934	0.0016
669.196	0.0019
669.458	0.0001
669.72	0.0003
669.982	-0.0006
670.243	0.0005
670.505	-0.0006
670.766	-0.0005
671.028	-0.0003
671.289	0.0003
671.551	0.0011
671.812	0.001
672.073	0.0015
672.334	0.0017
672.596	0.002
672.857	0.0019
673.118	0
673.379	0.0015
673.639	0.0018
673.9	0.0021
674.161	0.0005
674.422	0.0003
674.682	-0.0008
674.943	-0.0011
675.203	-0.001
675.464	-0.0015
675.724	-0.002
675.985	-0.0011
676.245	0.0002
676.505	0.0011
676.765	0.0006
677.025	0.0015
677.285	0.0024
677.545	0.0028
677.805	-0.0001
678.065	0.0006
678.325	-0.0002
678.585	-0.0001
678.844	-0.0011
679.104	-0.0011
679.363	-0.0004
679.623	0.0001
679.882	-0.0008
680.142	0.0009
680.401	0.0006
680.66	0.0009
680.919	0.0006
681.178	0.0012
681.437	0.0015
681.696	-0.0003
681.955	0.0002
682.214	0.0007
682.473	-0.0001
682.732	-0.0002
682.99	-0.0005
683.249	-0.0002
683.508	0.0002
683.766	0.0017
684.024	0.0017
684.283	0.0024
684.541	0.0016
684.799	0.0017
685.058	0.0004
685.316	0.0015
685.574	0.0005
685.832	0.0011
686.09	0.0005
686.348	0.0002
686.606	0.0006
686.863	0.0018
687.121	0.0009
687.379	0.0004
687.636	0
687.894	0.0002
688.151	-0.0008
688.409	-0.0011
688.666	-0.0017
688.923	-0.0017
689.181	-0.0024
689.438	-0.0019
689.695	-0.0014
689.952	-0.0012
690.209	0.0005
690.466	0.0005
690.723	-0.0007
690.979	0.0005
691.236	-0.0012
691.493	-0.0006
691.75	0.0001
692.006	0.0013
692.263	0.0023
692.519	0.0021
692.775	0.0015
693.032	0.0008
693.288	0.0004
693.544	0.0001
693.8	0.0003
694.056	-0.0002
694.313	0.0006
694.568	0.0014
694.824	0.0009
695.08	0.0009
695.336	-0.0008
695.592	-0.0003
695.847	-0.0006
696.103	0.0006
696.359	0.0007
696.614	-0.0003
696.869	-0.0008
697.125	-0.0015
697.38	-0.0006
697.635	-0.0012
697.891	-0.0007
698.146	0.0004
698.401	-0.0004
698.656	-0.0004
698.911	-0.0007
699.166	-0.0012
699.42	-0.0005
699.675	-0.0011
699.93	-0.0006
700.185	-0.0003
700.439	-0.0002
700.694	0.0017
700.948	0.0015
701.203	0.0019
701.457	0.0034
701.711	0.0031
701.965	0.0035
702.22	0.0033
702.474	0.0037
702.728	0.0032
702.982	0.003
703.236	0.003
703.49	0.0036
703.743	0.0032
703.997	0.0032
704.251	0.0037
704.504	0.0027
704.758	0.0017
705.012	0.0005
705.265	-0.0002
705.518	-0.0001
705.772	-0.0003
706.025	0.0002
706.278	0.0002
706.531	-0
706.785	-0.0003
707.038	-0.0012
707.291	-0.001
707.543	-0.0015
707.796	-0.0018
708.049	-0.002
708.302	-0.0021
708.555	-0.0033
708.807	-0.0018
709.06	-0.001
709.312	-0.0018
709.565	-0.002
709.817	-0.0016
710.069	-0.0019
710.322	-0.0026
710.574	-0.0023
710.826	-0.0023
711.078	-0.0028
711.33	-0.0025
711.582	-0.0022
711.834	-0.0015
712.086	-0.0013
712.338	-0.0024
712.59	-0.0019
712.841	-0.0034
713.093	-0.002
713.344	-0.0013
713.596	-0.0019
713.847	-0.0011
714.099	-0.0008
714.35	-0.0004
714.601	-0.0012
714.853	-0.0011
715.104	-0.0015
715.355	-0.0011
715.606	-0.0008
715.857	0.0002
716.108	0.0003
716.359	-0.001
716.609	-0.0016
716.86	-0.0028
717.111	-0.0035
717.361	-0.0028
717.612	-0.0019
717.863	-0.002
718.113	-0.0017
718.363	-0.002
718.614	-0.0022
718.864	-0.0036
719.114	-0.0022
719.364	-0.0013
719.614	-0.0016
719.865	-0.0016
720.114	-0.0013
720.364	-0.0031
720.614	-0.0029
720.864	-0.0026
721.114	-0.0013
721.364	-0.0008
721.613	-0.0002
721.863	-0.0006
722.112	0.0006
722.362	0.0005
722.611	0.001
722.86	0.0019
723.11	0.0011
723.359	0.0015
723.608	0.0023
723.857	0.0026
724.106	0.0037
724.355	0.0018
724.604	0.002
724.853	0.0019
725.102	0.0015
725.351	0.001
725.599	0.0012
725.848	0.0017
726.097	0.0015
726.345	0.0015
726.594	0.0018
726.842	0.0017
727.09	0.0028
727.339	0.0021
727.587	0.0008
727.835	0.0013
728.083	0.0002
728.331	-0.0001
728.579	-0.0004
728.827	-0.0004
729.075	-0.0005
729.323	-0.0011
729.571	-0.0002
729.818	-0.0009
730.066	-0.0002
730.314	-0.0001
730.561	0.001
730.809	0.0003
731.056	0.0003
731.303	0.0011
731.551	0.0011
731.798	0.0012
732.045	0.0004
732.292	0.001
732.539	0.0003
732.786	-0.0007
733.033	-0.0003
733.28	-0.0013
733.527	-0.0014
733.774	-0.0022
734.021	-0.0018
734.267	-0.0014
734.514	-0.0015
734.76	-0.0023
735.007	-0.0021
735.253	-0.0012
735.5	-0.0007
735.746	-0.0016
735.992	-0.0003
736.238	0.0003
736.485	0.0001
736.731	0.001
736.977	0.0005
737.223	0.0007
737.469	0.0005
737.715	-0.0007
737.96	-0.0003
738.206	0.0005
738.452	-0.0004
738.697	-0.0001
738.943	0.0002
739.189	0.0009
739.434	-0.0005
739.679	0.0006
739.925	-0.0001
740.17	0.0012
740.415	-0.0001
740.66	0.0003
740.906	0
741.151	0
741.396	0.0007
741.641	0.0014
741.886	-0.0004
742.13	-0.0005
742.375	0.0001
742.62	-0.0001
742.865	-0.0003
743.109	-0.0001
743.354	0.0002
743.598	-0.0004
743.843	0.0006
744.087	-0.0004
744.331	0.0002
744.576	0.0016
744.82	0.0016
745.064	0.002
745.308	0.002
745.552	0.0018
745.796	0.0011
746.04	0
746.284	-0.0009
746.528	-0.002
746.771	-0.0015
747.015	-0.0017
747.259	-0.0025
747.502	-0.0036
747.746	-0.0044
747.989	-0.0029
748.233	-0.0034
748.476	-0.003
748.719	-0.0023
748.963	-0.0034
749.206	-0.0033
749.449	-0.0038
749.692	-0.0018
749.935	-0.0007
750.178	-0.0013
750.421	-0.001
750.664	-0.0011
750.906	-0.0007
751.149	-0
751.392	0.0003
751.635	0.0005
751.877	-0.0005
752.12	-0.0009
752.362	-0.0023
752.604	-0.003
752.847	-0.0039
753.089	-0.0026
753.331	-0.0036
753.573	-0.0027
753.816	-0.003
754.058	-0.0034
754.3	-0.0029
754.542	-0.0026
754.783	-0.0023
755.025	-0.0007
755.267	-0.0013
755.509	-0.0008
755.75	-0.0018
755.992	-0.0014
756.234	-0.0009
756.475	-0.0003
756.716	-0.0009
756.958	-0.0013
757.199	-0.0011
757.44	-0.0005
757.682	-0.0021
757.923	-0.001
758.164	-0.0002
758.405	-0.0003
758.646	0.0001
758.887	0.0009
759.128	0.0006
759.369	0.0005
759.609	0.0003
759.85	-0.0002
760.091	0.0006
760.331	-0.0004
760.572	-0.0009
760.812	-0.0014
761.053	-0.0016
761.293	-0.0018
761.533	-0.0025
761.774	-0.0016
762.014	-0.003
762.254	-0.0029
762.494	-0.0033
762.734	-0.002
762.974	-0.0011
763.214	-0.001
763.454	-0.0003
763.694	-0.001
763.933	-0.0006
764.173	-0.0022
764.413	-0.0018
764.652	-0.0024
764.892	-0.0025
765.131	-0.0029
765.371	-0.0028
765.61	-0.0029
765.849	-0.0039
766.089	-0.003
766.328	-0.0031
766.567	-0.0021
766.806	-0.0008
767.045	0.0002
767.284	0.0007
767.523	0.0004
767.762	0.0004
768.001	-0.0004
768.239	-0.0009
768.478	-0.0007
768.717	0.0001
768.955	-0.0008
769.194	-0.0006
769.432	-0.0008
769.671	-0.0007
769.909	-0.0002
770.148	-0.0009
770.386	-0.0017
770.624	-0.0005
770.862	-0.0004
771.1	-0.0017
771.338	-0.0006
771.576	-0.0005
771.814	-0.0001
772.052	-0.0002
772.29	-0.0001
772.528	-0.0005
772.765	-0.0006
773.003	-0.0004
773.24	-0.0004
773.478	0.0003
773.716	0.0009
773.953	0.0018
774.19	0.0018
774.428	0.0019
774.665	0.0016
774.902	0.0016
775.139	0.0007
775.376	0.0014
775.613	0.0018
775.85	0.0018
776.087	0.0023
776.324	0.0016
776.561	0.0022
776.798	0.0023
777.034	0.0025
777.271	0.0018
777.508	0.0022
777.744	0.0007
777.981	0.0004
778.217	0.0022
778.454	0.0019
778.69	0.0026
778.926	0.0029
779.162	0.0029
779.399	0.0037
779.635	0.0038
779.871	0.0034
780.107	0.0032
780.343	0.0021
780.579	0.0012
780.814	0.0012
781.05	-0
781.286	0.0003
781.522	-0.0001
781.757	0.0011
781.993	0.0009
782.228	0.001
782.464	0.0008
782.699	0.001
782.934	-0.0013
783.17	-0.0018
783.405	-0.0044
783.64	-0.0043
783.875	-0.004
784.11	-0.0043
784.345	-0.0035
784.58	-0.0033
784.815	-0.0032
785.05	-0.003
785.285	-0.0037
785.52	-0.0031
785.754	-0.0029
785.989	-0.0021
786.223	-0.0012
786.458	-0.0003
786.692	-0.0007
786.927	0.0001
787.161	-0.0003
787.396	-0.0012
787.63	-0.0012
787.864	-0.0024
788.098	-0.0029
788.332	-0.0031
788.566	-0.0025
788.8	-0.003
789.034	-0.003
789.268	-0.0032
789.502	-0.0031
789.736	-0.0032
789.969	-0.0034
790.203	-0.004
790.437	-0.0027
790.67	-0.0034
790.904	-0.0044
791.137	-0.0036
791.37	-0.0039
791.604	-0.0053
791.837	-0.0041
792.07	-0.004
792.303	-0.0047
792.537	-0.0046
792.77	-0.0048
793.003	-0.0058
793.236	-0.006
793.469	-0.0048
793.701	-0.0031
793.934	-0.0034
794.167	-0.003
794.4	-0.0032
794.632	-0.0029
794.865	-0.0026
795.097	-0.0044
795.33	-0.0036
795.562	-0.0035
795.795	-0.0034
796.027	-0.0043
796.259	-0.0046
796.491	-0.0034
796.724	-0.0025
796.956	-0.0027
797.188	-0.0021
797.42	-0.0018
797.652	-0.0012
797.883	-0.0012
798.115	0.0001
798.347	-0.0007
798.579	-0.0011
798.81	-0.0017
799.042	-0.0039
799.274	-0.0031
799.505	-0.0033
799.737	-0.0032
799.968	-0.0039
800.199	-0.0031
800.431	-0.0031
800.662	-0.0033
800.893	-0.0037
801.124	-0.0029
801.355	-0.0026
801.586	-0.0028
801.817	-0.0019
802.048	-0.0012
802.279	0.0003
802.51	0.0005
802.741	0.0004
802.971	-0.0011
803.202	-0.0019
803.433	-0.0014
803.663	-0.0015
803.894	-0.0006
804.124	0.0001
804.354	0.0006
804.585	-0.0002
804.815	0.001
805.045	-0.0012
805.275	0.0011
805.506	-0.0867
805.736	0.1817
805.966	0.9596
806.196	0.1035
