Data from 03 0.5 mM K2Cr2O7 0.3 mM BQDS 1 M H2SO4 5 min_Absorbance_0090.txt Node
Date: Tue Dec 14 01:09:45 EST 2021
User: kwabilab-user
Spectrometer: HDX00518
Trigger mode: 0
Integration Time (sec): 5.000000E-2
Scans to average: 50
Nonlinearity correction enabled: false
Boxcar width: 0
Storing dark spectrum: false
XAxis mode: Wavelengths
Number of Pixels in Spectrum: 2068
>>>>>Begin Spectral Data<<<<<
195.27	0.0532
195.642	0.2387
196.014	0.0351
196.386	0.1835
196.758	-0.0037
197.129	0.0035
197.501	-0.0075
197.872	0.0133
198.244	0.0307
198.615	0.0474
198.986	0.0385
199.357	0.0574
199.728	0.0413
200.099	0.0598
200.47	0.0503
200.841	0.0439
201.212	0.0451
201.582	0.0564
201.953	0.0574
202.323	0.0598
202.694	0.0549
203.064	0.0399
203.434	0.0494
203.804	0.0379
204.174	0.0535
204.544	0.0427
204.914	0.0459
205.284	0.0544
205.653	0.0425
206.023	0.0512
206.393	0.0254
206.762	0.0488
207.131	0.0534
207.501	0.0358
207.87	0.0681
208.239	0.0683
208.608	0.0572
208.977	0.0255
209.346	0.0425
209.715	0.0636
210.083	0.0438
210.452	0.0288
210.82	0.0569
211.189	0.0288
211.557	0.0732
211.925	0.0343
212.294	0.0519
212.662	0.05
213.03	0.0667
213.398	0.0826
213.766	0.0631
214.133	0.0584
214.501	0.075
214.869	0.0457
215.236	0.0677
215.604	0.0581
215.971	0.0643
216.338	0.0913
216.705	0.0728
217.072	0.0987
217.439	0.0629
217.806	0.0884
218.173	0.0869
218.54	0.0653
218.907	0.104
219.273	0.1208
219.64	0.1058
220.006	0.1153
220.373	0.1119
220.739	0.1299
221.105	0.1376
221.471	0.1483
221.837	0.1748
222.203	0.1927
222.569	0.2205
222.935	0.2439
223.3	0.2488
223.666	0.2707
224.031	0.2969
224.397	0.2968
224.762	0.3427
225.127	0.3547
225.493	0.383
225.858	0.3827
226.223	0.4365
226.588	0.4432
226.952	0.4704
227.317	0.4858
227.682	0.532
228.046	0.5214
228.411	0.5371
228.775	0.5572
229.14	0.5619
229.504	0.586
229.868	0.6189
230.232	0.605
230.596	0.6346
230.96	0.6284
231.324	0.6577
231.688	0.6463
232.052	0.6653
232.415	0.6682
232.779	0.6723
233.142	0.6832
233.505	0.6874
233.869	0.7058
234.232	0.6969
234.595	0.6841
234.958	0.6943
235.321	0.698
235.684	0.7007
236.047	0.6882
236.409	0.6849
236.772	0.6991
237.134	0.7032
237.497	0.6793
237.859	0.7054
238.222	0.7107
238.584	0.6835
238.946	0.6879
239.308	0.6847
239.67	0.6828
240.032	0.6865
240.393	0.6842
240.755	0.6842
241.117	0.6759
241.478	0.6778
241.84	0.6705
242.201	0.6736
242.562	0.6642
242.924	0.6593
243.285	0.6613
243.646	0.6581
244.007	0.6673
244.368	0.6598
244.728	0.6686
245.089	0.658
245.45	0.6627
245.81	0.6563
246.171	0.6548
246.531	0.6578
246.891	0.6448
247.252	0.6478
247.612	0.6515
247.972	0.6423
248.332	0.6574
248.692	0.6493
249.051	0.649
249.411	0.6476
249.771	0.6387
250.13	0.6404
250.49	0.6456
250.849	0.646
251.208	0.6405
251.568	0.6387
251.927	0.6388
252.286	0.6488
252.645	0.647
253.004	0.6469
253.363	0.642
253.721	0.6511
254.08	0.6452
254.439	0.6364
254.797	0.6278
255.155	0.6322
255.514	0.6323
255.872	0.6414
256.23	0.6302
256.588	0.6428
256.946	0.6434
257.304	0.6378
257.662	0.6345
258.02	0.6354
258.377	0.6339
258.735	0.6279
259.093	0.6255
259.45	0.6253
259.807	0.6268
260.165	0.625
260.522	0.6262
260.879	0.6208
261.236	0.6189
261.593	0.6164
261.95	0.6188
262.306	0.6151
262.663	0.6073
263.02	0.6048
263.376	0.6035
263.733	0.6031
264.089	0.6074
264.445	0.6031
264.802	0.6028
265.158	0.5997
265.514	0.5962
265.87	0.5908
266.226	0.5909
266.581	0.5909
266.937	0.5854
267.293	0.5815
267.648	0.5753
268.004	0.5771
268.359	0.5754
268.714	0.5686
269.07	0.5658
269.425	0.5616
269.78	0.5652
270.135	0.5612
270.49	0.5559
270.844	0.5526
271.199	0.5516
271.554	0.5501
271.908	0.5436
272.263	0.5444
272.617	0.5341
272.972	0.5332
273.326	0.5295
273.68	0.5277
274.034	0.5213
274.388	0.5162
274.742	0.516
275.096	0.5133
275.45	0.509
275.803	0.5047
276.157	0.4993
276.51	0.4975
276.864	0.4954
277.217	0.4885
277.571	0.4872
277.924	0.4816
278.277	0.4769
278.63	0.4718
278.983	0.4679
279.336	0.466
279.688	0.4603
280.041	0.4546
280.394	0.4509
280.746	0.4475
281.099	0.4401
281.451	0.4346
281.803	0.4278
282.156	0.4266
282.508	0.4226
282.86	0.4172
283.212	0.411
283.564	0.4084
283.916	0.4067
284.267	0.401
284.619	0.3952
284.971	0.3928
285.322	0.3888
285.673	0.3815
286.025	0.3785
286.376	0.3751
286.727	0.3687
287.078	0.3666
287.429	0.3623
287.78	0.3585
288.131	0.3544
288.482	0.3501
288.833	0.3428
289.183	0.3377
289.534	0.334
289.884	0.3312
290.235	0.3274
290.585	0.3224
290.935	0.3192
291.285	0.3126
291.635	0.3097
291.985	0.3046
292.335	0.3005
292.685	0.2978
293.035	0.2939
293.384	0.2894
293.734	0.2851
294.083	0.2821
294.433	0.277
294.782	0.2744
295.131	0.2689
295.48	0.2635
295.829	0.2621
296.179	0.2572
296.527	0.2531
296.876	0.2504
297.225	0.2469
297.574	0.2418
297.922	0.2404
298.271	0.2363
298.619	0.2312
298.968	0.2281
299.316	0.2256
299.664	0.2221
300.012	0.2198
300.36	0.2159
300.708	0.214
301.056	0.21
301.404	0.2076
301.752	0.2044
302.099	0.2015
302.447	0.1978
302.794	0.1966
303.142	0.1936
303.489	0.1905
303.836	0.1889
304.183	0.1865
304.531	0.1835
304.878	0.1831
305.224	0.182
305.571	0.1792
305.918	0.1761
306.265	0.1755
306.611	0.1732
306.958	0.1721
307.304	0.1701
307.651	0.1696
307.997	0.1673
308.343	0.1666
308.689	0.1652
309.035	0.1641
309.381	0.1634
309.727	0.1632
310.073	0.1614
310.419	0.1622
310.764	0.1605
311.11	0.1596
311.455	0.1596
311.801	0.1583
312.146	0.1578
312.491	0.1586
312.837	0.1574
313.182	0.1576
313.527	0.1573
313.872	0.1573
314.216	0.1576
314.561	0.1574
314.906	0.1576
315.251	0.1577
315.595	0.1584
315.94	0.1584
316.284	0.1583
316.628	0.1595
316.972	0.1603
317.317	0.1605
317.661	0.1615
318.005	0.1618
318.348	0.1623
318.692	0.1646
319.036	0.1645
319.38	0.1647
319.723	0.1657
320.067	0.1666
320.41	0.1679
320.754	0.1698
321.097	0.17
321.44	0.1717
321.783	0.1723
322.126	0.1749
322.469	0.1746
322.812	0.1756
323.155	0.1776
323.498	0.179
323.84	0.1808
324.183	0.1828
324.525	0.1845
324.868	0.1861
325.21	0.1864
325.552	0.189
325.894	0.191
326.236	0.1915
326.578	0.1928
326.92	0.195
327.262	0.1969
327.604	0.1984
327.946	0.1999
328.287	0.2014
328.629	0.2039
328.97	0.2054
329.312	0.2062
329.653	0.2086
329.994	0.2102
330.335	0.2123
330.676	0.2142
331.017	0.2159
331.358	0.2183
331.699	0.2204
332.04	0.2209
332.38	0.2228
332.721	0.2245
333.061	0.2274
333.402	0.2289
333.742	0.2305
334.083	0.2325
334.423	0.2333
334.763	0.2353
335.103	0.2365
335.443	0.2388
335.783	0.2393
336.123	0.2411
336.462	0.2426
336.802	0.2447
337.141	0.2465
337.481	0.2474
337.82	0.2476
338.16	0.2498
338.499	0.2516
338.838	0.253
339.177	0.2545
339.516	0.2561
339.855	0.2576
340.194	0.2583
340.533	0.2596
340.872	0.261
341.21	0.2627
341.549	0.2629
341.887	0.2643
342.226	0.2654
342.564	0.2661
342.902	0.2671
343.24	0.2669
343.578	0.2681
343.916	0.2688
344.254	0.269
344.592	0.2696
344.93	0.2706
345.268	0.2705
345.605	0.2708
345.943	0.2712
346.28	0.2711
346.618	0.2712
346.955	0.2719
347.292	0.2715
347.629	0.2721
347.966	0.2717
348.303	0.2725
348.64	0.2735
348.977	0.2724
349.314	0.2733
349.65	0.2727
349.987	0.273
350.324	0.2744
350.66	0.2723
350.996	0.272
351.333	0.2723
351.669	0.2723
352.005	0.2715
352.341	0.2699
352.677	0.2692
353.013	0.2684
353.349	0.2672
353.685	0.267
354.02	0.2643
354.356	0.2627
354.691	0.262
355.027	0.2612
355.362	0.2612
355.697	0.2605
356.033	0.2595
356.368	0.2576
356.703	0.2565
357.038	0.2562
357.373	0.2541
357.707	0.2538
358.042	0.2526
358.377	0.2521
358.711	0.2515
359.046	0.2496
359.38	0.248
359.715	0.2475
360.049	0.246
360.383	0.2446
360.717	0.2438
361.051	0.2423
361.385	0.2405
361.719	0.2383
362.053	0.2369
362.387	0.2347
362.72	0.2332
363.054	0.2306
363.387	0.229
363.721	0.2279
364.054	0.2246
364.387	0.2228
364.721	0.2221
365.054	0.2196
365.387	0.2175
365.72	0.2163
366.053	0.214
366.385	0.2117
366.718	0.2099
367.051	0.209
367.383	0.2078
367.716	0.206
368.048	0.2055
368.381	0.2027
368.713	0.2018
369.045	0.2005
369.377	0.198
369.709	0.197
370.041	0.1966
370.373	0.1941
370.705	0.1922
371.037	0.1903
371.368	0.1881
371.7	0.1877
372.031	0.1846
372.363	0.1834
372.694	0.1809
373.025	0.1784
373.356	0.1764
373.688	0.1743
374.019	0.1723
374.35	0.1699
374.68	0.1676
375.011	0.1661
375.342	0.1633
375.673	0.1617
376.003	0.1587
376.334	0.158
376.664	0.1549
376.995	0.1549
377.325	0.1505
377.655	0.15
377.985	0.148
378.315	0.147
378.645	0.146
378.975	0.1436
379.305	0.1429
379.635	0.1414
379.964	0.1406
380.294	0.138
380.623	0.137
380.953	0.1359
381.282	0.1339
381.611	0.1323
381.941	0.1304
382.27	0.1295
382.599	0.1282
382.928	0.1259
383.257	0.1246
383.585	0.123
383.914	0.1226
384.243	0.1194
384.571	0.118
384.9	0.115
385.228	0.1139
385.557	0.1124
385.885	0.1098
386.213	0.1084
386.541	0.1073
386.869	0.1051
387.197	0.1032
387.525	0.1017
387.853	0.0993
388.181	0.0984
388.508	0.097
388.836	0.094
389.164	0.0933
389.491	0.0923
389.818	0.0912
390.146	0.0901
390.473	0.0884
390.8	0.0872
391.127	0.0853
391.454	0.0842
391.781	0.0831
392.108	0.0827
392.435	0.0809
392.761	0.0792
393.088	0.0791
393.415	0.078
393.741	0.0775
394.067	0.0764
394.394	0.0754
394.72	0.0743
395.046	0.0734
395.372	0.0726
395.698	0.0717
396.024	0.0707
396.35	0.0697
396.676	0.0682
397.001	0.0673
397.327	0.0663
397.653	0.0653
397.978	0.0638
398.303	0.0633
398.629	0.0618
398.954	0.0604
399.279	0.0597
399.604	0.0596
399.929	0.0592
400.254	0.0581
400.579	0.0573
400.904	0.0569
401.229	0.0557
401.553	0.0553
401.878	0.0551
402.202	0.0534
402.527	0.0533
402.851	0.0529
403.175	0.052
403.5	0.0516
403.824	0.0517
404.148	0.0514
404.472	0.0497
404.796	0.0497
405.119	0.0493
405.443	0.0488
405.767	0.0483
406.09	0.0488
406.414	0.0484
406.737	0.0475
407.061	0.0475
407.384	0.0477
407.707	0.0466
408.03	0.046
408.353	0.0472
408.676	0.0462
408.999	0.0463
409.322	0.046
409.645	0.0455
409.968	0.0454
410.29	0.0451
410.613	0.0457
410.935	0.0456
411.258	0.0448
411.58	0.0452
411.902	0.0448
412.224	0.0443
412.546	0.0441
412.868	0.0443
413.19	0.0438
413.512	0.0444
413.834	0.0433
414.156	0.0432
414.477	0.0438
414.799	0.0435
415.121	0.0439
415.442	0.0436
415.763	0.0435
416.085	0.0436
416.406	0.0443
416.727	0.0437
417.048	0.0433
417.369	0.0432
417.69	0.0431
418.011	0.0431
418.331	0.0431
418.652	0.0438
418.973	0.0436
419.293	0.0438
419.614	0.0439
419.934	0.044
420.254	0.0437
420.574	0.044
420.895	0.0436
421.215	0.0434
421.535	0.0431
421.855	0.0431
422.174	0.0434
422.494	0.043
422.814	0.0433
423.134	0.0436
423.453	0.0438
423.773	0.0435
424.092	0.0432
424.411	0.0428
424.731	0.0437
425.05	0.043
425.369	0.0437
425.688	0.0436
426.007	0.0431
426.326	0.0438
426.644	0.0435
426.963	0.044
427.282	0.0434
427.6	0.0433
427.919	0.0431
428.237	0.0441
428.556	0.0438
428.874	0.0439
429.192	0.0441
429.51	0.0443
429.828	0.0434
430.146	0.0443
430.464	0.0426
430.782	0.0436
431.1	0.0441
431.418	0.0435
431.735	0.0438
432.053	0.0441
432.37	0.0438
432.688	0.0442
433.005	0.0437
433.322	0.0441
433.639	0.044
433.957	0.0447
434.274	0.0437
434.591	0.044
434.907	0.0437
435.224	0.0436
435.541	0.0441
435.858	0.0447
436.174	0.0443
436.491	0.044
436.807	0.0424
437.124	0.0432
437.44	0.0433
437.756	0.0435
438.072	0.0435
438.388	0.044
438.704	0.0437
439.02	0.0435
439.336	0.0433
439.652	0.0427
439.968	0.0423
440.283	0.043
440.599	0.0425
440.914	0.0438
441.23	0.0437
441.545	0.0423
441.86	0.0429
442.175	0.0428
442.491	0.0433
442.806	0.0426
443.121	0.0422
443.435	0.0428
443.75	0.0427
444.065	0.0425
444.38	0.0423
444.694	0.0429
445.009	0.043
445.323	0.0424
445.638	0.0411
445.952	0.0417
446.266	0.0427
446.58	0.0421
446.894	0.042
447.208	0.0423
447.522	0.041
447.836	0.0417
448.15	0.0408
448.464	0.0413
448.777	0.0419
449.091	0.0407
449.404	0.0407
449.718	0.0401
450.031	0.0408
450.345	0.04
450.658	0.0407
450.971	0.041
451.284	0.0404
451.597	0.0397
451.91	0.0397
452.223	0.0397
452.535	0.0392
452.848	0.0401
453.161	0.0392
453.473	0.0397
453.786	0.039
454.098	0.0387
454.411	0.0397
454.723	0.0386
455.035	0.0384
455.347	0.0376
455.659	0.0378
455.971	0.0381
456.283	0.0378
456.595	0.0381
456.907	0.0383
457.218	0.0379
457.53	0.0365
457.841	0.0373
458.153	0.0372
458.464	0.0369
458.776	0.037
459.087	0.0366
459.398	0.0372
459.709	0.0364
460.02	0.036
460.331	0.035
460.642	0.0363
460.953	0.0351
461.263	0.0349
461.574	0.0344
461.885	0.0347
462.195	0.0339
462.506	0.0342
462.816	0.0344
463.126	0.0343
463.437	0.0341
463.747	0.0336
464.057	0.0332
464.367	0.0326
464.677	0.033
464.987	0.0321
465.296	0.0329
465.606	0.0317
465.916	0.0326
466.225	0.0322
466.535	0.032
466.844	0.0323
467.154	0.0321
467.463	0.0306
467.772	0.0311
468.081	0.0307
468.39	0.0304
468.699	0.0299
469.008	0.0291
469.317	0.0299
469.626	0.0291
469.935	0.0288
470.243	0.0287
470.552	0.0289
470.86	0.0288
471.169	0.0283
471.477	0.0286
471.785	0.0281
472.093	0.0282
472.402	0.0271
472.71	0.0277
473.018	0.0271
473.326	0.0261
473.633	0.0267
473.941	0.0267
474.249	0.0257
474.556	0.0268
474.864	0.026
475.171	0.0257
475.479	0.0256
475.786	0.0252
476.094	0.0241
476.401	0.0248
476.708	0.0244
477.015	0.0246
477.322	0.0236
477.629	0.0235
477.936	0.0241
478.242	0.023
478.549	0.0229
478.856	0.0233
479.162	0.0223
479.469	0.0232
479.775	0.0231
480.081	0.0219
480.388	0.0218
480.694	0.0227
481	0.0217
481.306	0.0213
481.612	0.0216
481.918	0.0205
482.224	0.0207
482.53	0.0201
482.835	0.021
483.141	0.0203
483.446	0.0201
483.752	0.0193
484.057	0.0191
484.363	0.0195
484.668	0.0198
484.973	0.0182
485.278	0.0188
485.583	0.0181
485.888	0.0185
486.193	0.0172
486.498	0.017
486.803	0.0175
487.107	0.0175
487.412	0.0168
487.717	0.017
488.021	0.0166
488.325	0.0174
488.63	0.0163
488.934	0.0166
489.238	0.0165
489.542	0.015
489.846	0.0153
490.15	0.0156
490.454	0.0146
490.758	0.0153
491.062	0.0147
491.366	0.0152
491.669	0.0138
491.973	0.0151
492.276	0.0145
492.58	0.0133
492.883	0.0136
493.186	0.0142
493.489	0.0131
493.792	0.0122
494.096	0.0125
494.399	0.0125
494.701	0.0126
495.004	0.0114
495.307	0.0123
495.61	0.0116
495.912	0.0128
496.215	0.0114
496.517	0.0106
496.82	0.011
497.122	0.0097
497.424	0.0115
497.727	0.0106
498.029	0.0102
498.331	0.0112
498.633	0.0104
498.935	0.0103
499.237	0.0097
499.538	0.0093
499.84	0.0093
500.142	0.0091
500.443	0.0091
500.745	0.0089
501.046	0.008
501.348	0.008
501.649	0.0081
501.95	0.0075
502.251	0.008
502.552	0.0077
502.853	0.0069
503.154	0.0063
503.455	0.0076
503.756	0.0071
504.057	0.007
504.357	0.0063
504.658	0.0078
504.958	0.0069
505.259	0.0071
505.559	0.0058
505.859	0.0058
506.16	0.0058
506.46	0.0066
506.76	0.0065
507.06	0.0063
507.36	0.006
507.66	0.0055
507.96	0.0066
508.259	0.0061
508.559	0.0063
508.859	0.0053
509.158	0.0053
509.457	0.0051
509.757	0.0051
510.056	0.0054
510.355	0.0057
510.655	0.0042
510.954	0.0056
511.253	0.0046
511.552	0.0048
511.851	0.0048
512.149	0.0036
512.448	0.0047
512.747	0.0047
513.045	0.0047
513.344	0.0031
513.642	0.0026
513.941	0.0038
514.239	0.0033
514.537	0.0023
514.836	0.0032
515.134	0.0027
515.432	0.0042
515.73	0.0028
516.028	0.0022
516.326	0.0031
516.623	0.0026
516.921	0.0011
517.219	0.0024
517.516	0.0029
517.814	0.0019
518.111	0.0027
518.409	0.0009
518.706	0.001
519.003	0.0021
519.3	0.0026
519.597	0.0017
519.894	0.0024
520.191	0.0016
520.488	0.002
520.785	0.0017
521.082	0.0015
521.378	0.0007
521.675	0.0011
521.971	0.0005
522.268	0.0014
522.564	0.0013
522.861	0.0017
523.157	0.0021
523.453	0.002
523.749	0.002
524.045	0.0008
524.341	0.002
524.637	0.001
524.933	0.0008
525.229	0.0014
525.524	-0.0004
525.82	0.0005
526.115	0.0001
526.411	0.0001
526.706	0.0013
527.002	0.0012
527.297	-0.0009
527.592	0.0018
527.887	0.002
528.182	0.0009
528.477	0.0014
528.772	0.0011
529.067	0.0008
529.362	0.0002
529.657	0.0009
529.951	0.0002
530.246	0.0002
530.54	0.0008
530.835	0.0004
531.129	0.0003
531.423	0.0005
531.718	0.0002
532.012	-0.0011
532.306	0
532.6	-0.0007
532.894	0
533.188	0.0004
533.482	-0.0004
533.775	-0.0005
534.069	-0.0008
534.363	-0.0013
534.656	-0.0015
534.95	0.0005
535.243	-0.0009
535.536	-0.0002
535.83	-0.0024
536.123	0
536.416	-0.0014
536.709	-0.0007
537.002	-0.0013
537.295	-0.001
537.588	-0.0015
537.881	-0.0016
538.173	-0.0012
538.466	-0.001
538.759	0.0002
539.051	0.0003
539.344	-0.0012
539.636	0.0001
539.928	-0.0001
540.22	-0.0003
540.513	-0.0002
540.805	0
541.097	-0.0015
541.389	-0.0003
541.681	-0.0006
541.972	0.0008
542.264	0.0017
542.556	0
542.847	0.0008
543.139	0
543.431	-0.0002
543.722	0.0006
544.013	0.0012
544.305	0
544.596	-0.0009
544.887	-0.0008
545.178	0.0008
545.469	-0.0016
545.76	-0.0007
546.051	0.0003
546.342	-0.0011
546.632	-0.0011
546.923	-0.001
547.214	-0.0002
547.504	-0.0021
547.795	-0.0012
548.085	-0.0018
548.375	-0.0013
548.666	-0.001
548.956	-0.0003
549.246	-0.0004
549.536	-0.0008
549.826	-0.0005
550.116	-0.0017
550.406	-0.0009
550.695	-0.0031
550.985	-0.0007
551.275	-0.0018
551.564	-0.0004
551.854	0.0002
552.143	-0.0018
552.433	-0.0021
552.722	-0.0029
553.011	-0.0005
553.3	-0.0006
553.589	-0.0009
553.879	-0.0009
554.167	-0.0014
554.456	0.0007
554.745	-0.0011
555.034	-0.0017
555.323	0.0004
555.611	0.0002
555.9	-0.0006
556.188	-0.0016
556.477	-0.0005
556.765	-0.0009
557.053	-0.0021
557.342	-0.0008
557.63	-0.0011
557.918	0.0002
558.206	0.0007
558.494	0.0005
558.782	-0.0004
559.069	0.0005
559.357	0.0001
559.645	-0.001
559.932	-0.0003
560.22	-0.0008
560.507	-0.0017
560.795	-0.001
561.082	-0.0016
561.37	-0.0006
561.657	-0.0012
561.944	-0.0007
562.231	-0.0013
562.518	-0.0005
562.805	-0.0006
563.092	-0.0003
563.379	-0
563.665	-0.0001
563.952	-0.0001
564.239	-0.0003
564.525	-0.0001
564.811	0.0015
565.098	0.0006
565.384	-0.0008
565.67	-0.0003
565.957	0.0008
566.243	0.001
566.529	-0.0003
566.815	-0
567.101	0.0015
567.387	0
567.672	0.0003
567.958	0.0002
568.244	0.0001
568.529	0.0002
568.815	0.0001
569.1	-0.0005
569.386	-0.0009
569.671	-0.0002
569.956	0.0002
570.242	0
570.527	-0.0009
570.812	0.0006
571.097	0.0002
571.382	0.0002
571.666	0.001
571.951	-0.0003
572.236	-0.0004
572.521	-0.0001
572.805	-0.0001
573.09	-0.0004
573.374	-0.001
573.659	-0.0008
573.943	-0.0009
574.227	-0.0009
574.511	-0.0014
574.795	-0.0006
575.079	0
575.363	-0.0005
575.647	-0.0006
575.931	-0.0002
576.215	-0.0013
576.499	-0.0011
576.782	-0.0012
577.066	-0.0008
577.349	-0.0002
577.633	-0.001
577.916	-0.0011
578.2	-0.0005
578.483	-0.0007
578.766	-0.0002
579.049	-0.0002
579.332	0.0005
579.615	0.0003
579.898	-0.0007
580.181	0.0004
580.464	0.0002
580.746	0.0004
581.029	-0.0008
581.312	-0.0007
581.594	-0.0017
581.877	-0.0011
582.159	-0.0014
582.441	-0.0006
582.724	-0.0013
583.006	0.0002
583.288	0.0005
583.57	0.0003
583.852	0.0003
584.134	0.0009
584.416	0.0004
584.697	0
584.979	-0.0012
585.261	-0.0014
585.542	-0.002
585.824	-0.0011
586.105	-0.0015
586.387	-0.001
586.668	-0.0013
586.949	-0.0008
587.231	-0.0004
587.512	-0.0004
587.793	-0.0003
588.074	-0.0007
588.355	-0.0004
588.636	-0.0008
588.916	-0.0011
589.197	-0
589.478	-0.0004
589.758	-0.0001
590.039	-0.0003
590.319	-0.0001
590.6	0.0003
590.88	0.001
591.16	0.0009
591.441	0.0007
591.721	0.0006
592.001	-0.0005
592.281	-0.0002
592.561	-0.0006
592.841	-0.0006
593.12	-0.0018
593.4	-0.0015
593.68	-0.0019
593.959	-0.0014
594.239	-0.0008
594.518	-0.0005
594.798	0.0001
595.077	-0.0015
595.356	-0.0004
595.636	-0.0005
595.915	-0.0002
596.194	-0.0004
596.473	0.0003
596.752	0.0002
597.031	0.0007
597.31	0.0001
597.588	-0.0009
597.867	-0.0009
598.146	-0.0014
598.424	-0.0009
598.703	0
598.981	-0.0017
599.259	-0.0014
599.538	-0.0008
599.816	0.0002
600.094	-0.0005
600.372	-0.0022
600.65	-0.0016
600.928	-0.001
601.206	-0.0005
601.484	-0.0007
601.762	0.0004
602.04	0.0001
602.317	-0.0002
602.595	-0.0003
602.872	0.0001
603.15	0.0009
603.427	-0.0011
603.704	-0.001
603.982	-0.0005
604.259	-0.001
604.536	-0.0005
604.813	-0.0002
605.09	-0.0004
605.367	-0.0009
605.644	-0.0017
605.921	-0.0006
606.197	-0.0012
606.474	-0.0007
606.751	-0.0005
607.027	-0.0009
607.304	-0.0008
607.58	-0.0011
607.856	-0.0012
608.133	-0.0009
608.409	-0.0007
608.685	-0.0004
608.961	-0.0015
609.237	-0.0006
609.513	-0.0011
609.789	-0.0007
610.065	-0.0005
610.341	-0.0007
610.616	0
610.892	0.0005
611.167	0.0007
611.443	0.0003
611.718	0.0003
611.994	-0.0002
612.269	-0.0003
612.544	-0.0004
612.819	-0.0005
613.095	-0.0014
613.37	0.0005
613.645	-0.0004
613.919	-0.0006
614.194	0.0002
614.469	0.0006
614.744	0.0001
615.019	-0.0012
615.293	-0.0006
615.568	-0.0004
615.842	-0.0009
616.116	0.0007
616.391	0.0004
616.665	0.001
616.939	0
617.213	0.0004
617.488	0.0009
617.762	-0.0001
618.035	-0.0003
618.309	-0.0008
618.583	0
618.857	0.0007
619.131	0.001
619.404	0.0014
619.678	0.0008
619.951	-0.0004
620.225	-0.0008
620.498	-0.0004
620.771	0
621.045	-0.0008
621.318	-0.001
621.591	-0.0019
621.864	-0.002
622.137	-0.0018
622.41	-0.002
622.683	-0.0011
622.956	-0.001
623.228	-0.0006
623.501	-0.0002
623.774	0
624.046	0
624.319	-0.001
624.591	-0.0012
624.863	-0.001
625.136	0.0001
625.408	0.0001
625.68	0.0001
625.952	0.0005
626.224	0.0002
626.496	-0.0006
626.768	0.0001
627.04	-0.0005
627.311	-0.0006
627.583	-0.0004
627.855	0.001
628.126	0.0008
628.398	0.0009
628.669	0.0022
628.941	0.0021
629.212	0.0019
629.483	0.0011
629.755	0.0001
630.026	0.0004
630.297	0.0015
630.568	0.0009
630.839	0.0013
631.11	0.0009
631.38	0.0011
631.651	0.0012
631.922	0.0013
632.192	0
632.463	-0.0007
632.733	-0.001
633.004	-0.0002
633.274	0.0004
633.545	0.0012
633.815	0.0006
634.085	-0.0007
634.355	-0.0016
634.625	-0.0015
634.895	-0.0001
635.165	-0.0014
635.435	-0.002
635.705	-0.0014
635.974	-0.0019
636.244	-0.001
636.514	-0.0003
636.783	-0.0012
637.053	-0.0004
637.322	0.0001
637.591	0.0009
637.861	-0.0015
638.13	-0.0015
638.399	-0.0017
638.668	-0.002
638.937	-0.002
639.206	-0.0036
639.475	-0.0022
639.744	-0.0024
640.013	-0.0018
640.281	-0.0012
640.55	-0.0012
640.819	-0.0012
641.087	-0.0023
641.356	-0.0012
641.624	-0.0003
641.892	0.0009
642.161	0.0002
642.429	-0.0013
642.697	-0.0012
642.965	0.0002
643.233	-0.0013
643.501	-0.0013
643.769	-0.0006
644.037	-0
644.305	-0.0011
644.572	-0.0006
644.84	-0.0003
645.108	-0.0017
645.375	-0.0027
645.643	-0.0015
645.91	0.0004
646.177	0.001
646.445	0.0013
646.712	0.0026
646.979	0.0034
647.246	0.0042
647.513	0.0036
647.78	0.0019
648.047	0.0008
648.314	-0.0015
648.58	-0.0015
648.847	-0.0011
649.114	0.0016
649.38	0.0012
649.647	-0.0005
649.913	0.0002
650.18	0.0007
650.446	0.0002
650.712	-0.0008
650.978	-0.0007
651.245	-0.0011
651.511	-0.0004
651.777	-0.0002
652.043	-0.0006
652.309	0.0002
652.574	0.0031
652.84	0.0022
653.106	0.0021
653.371	0.0021
653.637	0.0021
653.903	0.0014
654.168	0.0018
654.433	0.0037
654.699	0.0021
654.964	0.0034
655.229	0.0013
655.494	0.0003
655.759	-0.0028
656.024	0
656.289	-0
656.554	-0.0006
656.819	-0.0003
657.084	0.0005
657.349	0.0011
657.613	0.0004
657.878	-0
658.142	-0.0004
658.407	-0
658.671	0.0005
658.936	0.0009
659.2	0.001
659.464	0.0022
659.728	0.0015
659.992	0.0014
660.256	0.0003
660.52	0.0011
660.784	0.0001
661.048	0.0009
661.312	0.0013
661.575	0.001
661.839	0.0022
662.103	0.0003
662.366	0.0013
662.63	-0.0003
662.893	-0.0002
663.156	-0.0002
663.42	-0.0005
663.683	-0.0022
663.946	-0.0023
664.209	-0.002
664.472	-0.0017
664.735	-0.0013
664.998	0.0001
665.261	-0.0002
665.524	-0.0008
665.786	-0.0009
666.049	-0.0004
666.312	0.0009
666.574	-0.0004
666.837	-0.0003
667.099	0.0002
667.361	-0.0006
667.624	-0.0015
667.886	-0.0014
668.148	-0.0021
668.41	-0.001
668.672	-0.0016
668.934	0.001
669.196	0.0007
669.458	0.0023
669.72	0.0014
669.982	0.0012
670.243	0.0012
670.505	0.0006
670.766	0.0009
671.028	-0.0002
671.289	-0.0014
671.551	-0.0003
671.812	-0.0018
672.073	-0.0007
672.334	-0.0009
672.596	-0.0011
672.857	-0.0011
673.118	-0.0013
673.379	-0.0025
673.639	-0.002
673.9	-0.0027
674.161	-0.0023
674.422	-0.0032
674.682	-0.0021
674.943	-0.0021
675.203	-0.0018
675.464	-0.0024
675.724	-0.0041
675.985	-0.0037
676.245	-0.0035
676.505	-0.0026
676.765	-0.0028
677.025	-0.0023
677.285	-0.0022
677.545	-0.0015
677.805	-0.0006
678.065	-0.0009
678.325	-0.0005
678.585	-0.0013
678.844	-0.003
679.104	-0.0023
679.363	-0.0038
679.623	-0.0035
679.882	-0.0024
680.142	-0.0019
680.401	-0.0012
680.66	-0.0007
680.919	0.0005
681.178	-0.0002
681.437	-0
681.696	-0.0005
681.955	-0.0007
682.214	0.0006
682.473	-0.0011
682.732	-0.0008
682.99	-0.0014
683.249	-0.001
683.508	-0.0013
683.766	-0.0016
684.024	-0.002
684.283	-0.0003
684.541	-0.0006
684.799	-0.0005
685.058	-0.0001
685.316	-0.0011
685.574	-0.0015
685.832	-0.0012
686.09	-0.0013
686.348	-0.003
686.606	-0.0022
686.863	-0.0021
687.121	-0.0016
687.379	-0.0012
687.636	-0.0019
687.894	-0.0006
688.151	-0.0006
688.409	-0.0002
688.666	-0.0015
688.923	-0.0031
689.181	-0.0027
689.438	-0.003
689.695	-0.0031
689.952	-0.0044
690.209	-0.003
690.466	-0.0038
690.723	-0.0026
690.979	-0.0025
691.236	-0.0028
691.493	-0.0014
691.75	-0.0011
692.006	-0.0017
692.263	-0.002
692.519	-0.0017
692.775	-0.0008
693.032	-0.0018
693.288	-0.0009
693.544	-0.0005
693.8	-0.0008
694.056	-0.0013
694.313	-0.0011
694.568	-0.0006
694.824	-0.001
695.08	-0.0018
695.336	-0.0028
695.592	-0.003
695.847	-0.0018
696.103	-0.0018
696.359	-0.0015
696.614	-0.0027
696.869	-0.003
697.125	-0.0037
697.38	-0.0027
697.635	-0.0022
697.891	-0.001
698.146	-0.0008
698.401	-0.0008
698.656	-0.002
698.911	-0.0014
699.166	-0.0007
699.42	-0.0005
699.675	-0
699.93	0.0002
700.185	-0.0009
700.439	-0.0009
700.694	-0.0004
700.948	-0.0009
701.203	-0.0012
701.457	-0.0014
701.711	-0.002
701.965	-0.0015
702.22	-0.0018
702.474	-0.0013
702.728	-0.0016
702.982	-0.0016
703.236	-0.0008
703.49	-0.0007
703.743	-0.0015
703.997	-0.0014
704.251	-0.0019
704.504	-0.0017
704.758	-0.002
705.012	-0.0016
705.265	-0.0006
705.518	-0.0002
705.772	-0.0001
706.025	-0.0006
706.278	-0.0014
706.531	-0.0023
706.785	-0.0021
707.038	-0.003
707.291	-0.003
707.543	-0.0026
707.796	-0.0019
708.049	-0.0027
708.302	-0.0031
708.555	-0.003
708.807	-0.0015
709.06	-0.0022
709.312	-0.0013
709.565	-0.0015
709.817	-0.0024
710.069	-0.0024
710.322	-0.0028
710.574	-0.004
710.826	-0.004
711.078	-0.0035
711.33	-0.003
711.582	-0.0042
711.834	-0.0035
712.086	-0.0041
712.338	-0.0047
712.59	-0.0038
712.841	-0.0054
713.093	-0.0051
713.344	-0.0057
713.596	-0.0048
713.847	-0.0031
714.099	-0.0033
714.35	-0.004
714.601	-0.0033
714.853	-0.0031
715.104	-0.0032
715.355	-0.0036
715.606	-0.0031
715.857	-0.0025
716.108	-0.0033
716.359	-0.0027
716.609	-0.0032
716.86	-0.0025
717.111	-0.0018
717.361	-0.0017
717.612	0.0008
717.863	0.0005
718.113	0.0012
718.363	-0.0002
718.614	0.0007
718.864	0.0012
719.114	0.0006
719.364	0.0008
719.614	0.0003
719.865	0.0011
720.114	0.0014
720.364	0.0016
720.614	0.0026
720.864	0.0015
721.114	0.002
721.364	0.0018
721.613	0.0011
721.863	0.0007
722.112	0.0006
722.362	-0.0006
722.611	-0.001
722.86	-0.0024
723.11	-0.0011
723.359	-0.002
723.608	-0.0019
723.857	-0.0019
724.106	-0.0016
724.355	-0.0011
724.604	-0.0014
724.853	-0.0012
725.102	-0.0026
725.351	-0.0023
725.599	-0.0034
725.848	-0.0028
726.097	-0.0025
726.345	-0.0034
726.594	-0.0039
726.842	-0.0037
727.09	-0.0046
727.339	-0.0054
727.587	-0.0057
727.835	-0.0056
728.083	-0.0047
728.331	-0.0047
728.579	-0.0042
728.827	-0.003
729.075	-0.0031
729.323	-0.0033
729.571	-0.0034
729.818	-0.0027
730.066	-0.0021
730.314	-0.0026
730.561	-0.0011
730.809	-0.0006
731.056	-0.0013
731.303	-0.0005
731.551	-0.0013
731.798	-0.0016
732.045	-0.0013
732.292	0.0002
732.539	0.0006
732.786	0.0009
733.033	0.0002
733.28	0.0007
733.527	0.0002
733.774	-0.0006
734.021	-0.002
734.267	-0.0027
734.514	-0.0036
734.76	-0.0036
735.007	-0.0031
735.253	-0.0035
735.5	-0.0033
735.746	-0.0037
735.992	-0.0031
736.238	-0.0029
736.485	-0.0026
736.731	-0.0016
736.977	-0.0024
737.223	-0.0024
737.469	-0.0017
737.715	-0.0018
737.96	-0.0021
738.206	-0.0027
738.452	-0.0017
738.697	-0.0014
738.943	-0.0011
739.189	-0.0014
739.434	-0.002
739.679	-0.0029
739.925	-0.0023
740.17	-0.0041
740.415	-0.0047
740.66	-0.0054
740.906	-0.0047
741.151	-0.0047
741.396	-0.0048
741.641	-0.005
741.886	-0.0051
742.13	-0.0037
742.375	-0.0032
742.62	-0.0038
742.865	-0.0034
743.109	-0.0016
743.354	-0.0011
743.598	-0.0005
743.843	0.0001
744.087	0.0016
744.331	0.002
744.576	0.0024
744.82	0.0034
745.064	0.0033
745.308	0.0032
745.552	0.0036
745.796	0.0013
746.04	0.0013
746.284	0.0009
746.528	0.0015
746.771	0.0031
747.015	0.0027
747.259	0.0016
747.502	0.0008
747.746	0.0001
747.989	0.0011
748.233	0.0004
748.476	0.0017
748.719	0.0022
748.963	0.004
749.206	0.0029
749.449	0.0017
749.692	0.002
749.935	0.0021
750.178	0.0005
750.421	-0.0003
750.664	0.0007
750.906	0.0014
751.149	0.0016
751.392	0.0009
751.635	-0.0005
751.877	-0.0001
752.12	-0.0001
752.362	-0.0003
752.604	-0.0005
752.847	0.0005
753.089	0.0015
753.331	0.0015
753.573	0.0008
753.816	-0.0005
754.058	-0.001
754.3	-0.0026
754.542	-0.0016
754.783	-0.0025
755.025	-0.002
755.267	-0.0004
755.509	-0.0012
755.75	-0.0019
755.992	-0.001
756.234	-0.0017
756.475	-0.0021
756.716	-0.0026
756.958	-0.0028
757.199	-0.0018
757.44	-0.0017
757.682	-0.0023
757.923	-0.001
758.164	-0.0001
758.405	-0.0001
758.646	0.0006
758.887	0.0007
759.128	0.0016
759.369	0.0005
759.609	0.001
759.85	0.0013
760.091	0.0016
760.331	0.0009
760.572	-0.0006
760.812	-0.0011
761.053	-0.001
761.293	-0.0004
761.533	-0.0005
761.774	0.0006
762.014	0.0005
762.254	-0.0009
762.494	-0.0018
762.734	-0.0014
762.974	-0.0026
763.214	-0.0027
763.454	-0.0025
763.694	-0.0028
763.933	-0.0034
764.173	-0.0043
764.413	-0.006
764.652	-0.0052
764.892	-0.0052
765.131	-0.0046
765.371	-0.0036
765.61	-0.0039
765.849	-0.0033
766.089	-0.0021
766.328	-0.0024
766.567	-0.0029
766.806	-0.0027
767.045	-0.0014
767.284	-0.0031
767.523	-0.0028
767.762	-0.0034
768.001	-0.003
768.239	-0.0031
768.478	-0.0021
768.717	-0.0016
768.955	-0.0021
769.194	-0.0015
769.432	0.0003
769.671	0.0005
769.909	0.0006
770.148	0.001
770.386	0
770.624	0.0016
770.862	0.0016
771.1	0.0023
771.338	0.0014
771.576	0.001
771.814	0.0014
772.052	0.0018
772.29	0.0024
772.528	0.0035
772.765	0.0041
773.003	0.0046
773.24	0.0038
773.478	0.0023
773.716	0.0031
773.953	0.0022
774.19	0.0023
774.428	0.0034
774.665	0.0034
774.902	0.0038
775.139	0.0035
775.376	0.0022
775.613	0.0026
775.85	0.002
776.087	0.0011
776.324	0.0017
776.561	0.0012
776.798	0.0008
777.034	0.0008
777.271	0.0016
777.508	0.0016
777.744	0.0023
777.981	0.0037
778.217	0.0032
778.454	0.0016
778.69	0.0007
778.926	-0.0003
779.162	-0.0002
779.399	-0.0004
779.635	-0
779.871	-0.0001
780.107	0.0001
780.343	-0.0007
780.579	-0.0004
780.814	-0.0007
781.05	-0.0005
781.286	-0.0018
781.522	-0.001
781.757	-0.0008
781.993	-0.0008
782.228	-0.0006
782.464	-0.0003
782.699	-0.0012
782.934	-0.0022
783.17	-0.0014
783.405	-0.0012
783.64	-0.0015
783.875	-0.0022
784.11	-0.0029
784.345	-0.0021
784.58	-0.0005
784.815	-0.0006
785.05	-0.0015
785.285	-0.0024
785.52	-0.0033
785.754	-0.0036
785.989	-0.0038
786.223	-0.0056
786.458	-0.0055
786.692	-0.0041
786.927	-0.0037
787.161	-0.0025
787.396	-0.0032
787.63	-0.0043
787.864	-0.0043
788.098	-0.0048
788.332	-0.0046
788.566	-0.0033
788.8	-0.0034
789.034	-0.0025
789.268	-0.0024
789.502	-0.0015
789.736	-0.0026
789.969	-0.0025
790.203	-0.0032
790.437	-0.0046
790.67	-0.0051
790.904	-0.006
791.137	-0.0064
791.37	-0.0062
791.604	-0.0075
791.837	-0.0072
792.07	-0.006
792.303	-0.006
792.537	-0.0048
792.77	-0.0051
793.003	-0.0055
793.236	-0.0049
793.469	-0.0049
793.701	-0.0035
793.934	-0.0028
794.167	-0.0021
794.4	-0.0021
794.632	-0.0015
794.865	-0.001
795.097	-0.0013
795.33	-0.0025
795.562	-0.0012
795.795	-0.0005
796.027	-0.0003
796.259	0.0007
796.491	0.0006
796.724	-0.0002
796.956	0.001
797.188	0.0004
797.42	0.0003
797.652	0.0001
797.883	0.0008
798.115	0.0015
798.347	0.0013
798.579	0.0035
798.81	0.0036
799.042	0.0034
799.274	0.0021
799.505	0.0015
799.737	0.0016
799.968	0.0007
800.199	-0.0002
800.431	-0.0011
800.662	-0.0013
800.893	-0.001
801.124	-0.002
801.355	-0.002
801.586	-0.0015
801.817	-0.0019
802.048	-0.0033
802.279	-0.004
802.51	-0.0021
802.741	-0.0014
802.971	0.0002
803.202	0.0005
803.433	0.0009
803.663	-0.0007
803.894	-0.0005
804.124	-0.0015
804.354	-0.0007
804.585	-0.001
804.815	-0.0002
805.045	-0.0007
805.275	-0.0004
805.506	-0.0677
805.736	0.1732
805.966	0.2695
806.196	0.0743
