Data from 03 0.5 mM K2Cr2O7 0.3 mM BQDS 1 M H2SO4 5 min_Absorbance_0123.txt Node
Date: Tue Dec 14 03:54:45 EST 2021
User: kwabilab-user
Spectrometer: HDX00518
Trigger mode: 0
Integration Time (sec): 5.000000E-2
Scans to average: 50
Nonlinearity correction enabled: false
Boxcar width: 0
Storing dark spectrum: false
XAxis mode: Wavelengths
Number of Pixels in Spectrum: 2068
>>>>>Begin Spectral Data<<<<<
195.27	-0.2368
195.642	-0.2223
196.014	-0.1823
196.386	-0.1803
196.758	-0.1005
197.129	-0.0691
197.501	-0.0559
197.872	-0.0378
198.244	-0.0201
198.615	-0.003
198.986	-0.017
199.357	0.0096
199.728	-0.0028
200.099	-0.004
200.47	-0.0337
200.841	-0.01
201.212	-0
201.582	0.0002
201.953	-0.0061
202.323	-0.0051
202.694	-0.01
203.064	-0.0085
203.434	-0.0136
203.804	-0.0199
204.174	-0.0061
204.544	-0.0202
204.914	-0.0225
205.284	0.004
205.653	-0.0289
206.023	-0.0099
206.393	-0.0363
206.762	0.007
207.131	-0.0073
207.501	-0.0301
207.87	-0.0068
208.239	-0.0045
208.608	-0.0416
208.977	-0.0277
209.346	-0.0321
209.715	-0.0439
210.083	-0.0486
210.452	-0.0197
210.82	-0.0144
211.189	-0.0387
211.557	0.0052
211.925	-0.0437
212.294	-0.0333
212.662	-0.0251
213.03	-0.0313
213.398	-0.0037
213.766	0.0077
214.133	-0.0271
214.501	0.0022
214.869	-0.0123
215.236	-0.0015
215.604	-0.0156
215.971	-0.0083
216.338	0.0131
216.705	0.0091
217.072	-0.0002
217.439	-0.0095
217.806	-0.0128
218.173	0.0072
218.54	-0.0049
218.907	0.0093
219.273	0.0189
219.64	0.0213
220.006	0.0352
220.373	0.0395
220.739	0.057
221.105	0.0797
221.471	0.0754
221.837	0.0962
222.203	0.1169
222.569	0.1353
222.935	0.1532
223.3	0.1451
223.666	0.2091
224.031	0.2278
224.397	0.2321
224.762	0.2601
225.127	0.264
225.493	0.299
225.858	0.3135
226.223	0.3521
226.588	0.3676
226.952	0.3913
227.317	0.408
227.682	0.4104
228.046	0.4422
228.411	0.4695
228.775	0.4772
229.14	0.4883
229.504	0.5016
229.868	0.52
230.232	0.5361
230.596	0.54
230.96	0.5616
231.324	0.574
231.688	0.5694
232.052	0.596
232.415	0.6032
232.779	0.6054
233.142	0.6125
233.505	0.613
233.869	0.6181
234.232	0.6204
234.595	0.6233
234.958	0.6329
235.321	0.6362
235.684	0.6295
236.047	0.6351
236.409	0.6258
236.772	0.6366
237.134	0.6362
237.497	0.633
237.859	0.6387
238.222	0.64
238.584	0.6437
238.946	0.6365
239.308	0.6283
239.67	0.6376
240.032	0.6307
240.393	0.636
240.755	0.622
241.117	0.6263
241.478	0.6358
241.84	0.6176
242.201	0.6245
242.562	0.6111
242.924	0.6112
243.285	0.6028
243.646	0.615
244.007	0.6138
244.368	0.6127
244.728	0.6122
245.089	0.6116
245.45	0.6105
245.81	0.6098
246.171	0.6066
246.531	0.6065
246.891	0.606
247.252	0.6053
247.612	0.603
247.972	0.6001
248.332	0.5995
248.692	0.5996
249.051	0.6062
249.411	0.6066
249.771	0.5933
250.13	0.5974
250.49	0.6011
250.849	0.5987
251.208	0.5978
251.568	0.5983
251.927	0.5954
252.286	0.5996
252.645	0.5947
253.004	0.6063
253.363	0.5965
253.721	0.603
254.08	0.5961
254.439	0.5981
254.797	0.598
255.155	0.5951
255.514	0.597
255.872	0.5956
256.23	0.5892
256.588	0.5911
256.946	0.5899
257.304	0.5905
257.662	0.5942
258.02	0.5944
258.377	0.5889
258.735	0.5894
259.093	0.584
259.45	0.5816
259.807	0.5818
260.165	0.5799
260.522	0.5804
260.879	0.5726
261.236	0.5823
261.593	0.5758
261.95	0.5707
262.306	0.575
262.663	0.5653
263.02	0.5674
263.376	0.5631
263.733	0.561
264.089	0.5624
264.445	0.5593
264.802	0.5554
265.158	0.5561
265.514	0.5552
265.87	0.5527
266.226	0.5502
266.581	0.5443
266.937	0.5396
267.293	0.5416
267.648	0.5383
268.004	0.5343
268.359	0.5282
268.714	0.5281
269.07	0.5282
269.425	0.5246
269.78	0.5172
270.135	0.5156
270.49	0.5121
270.844	0.5156
271.199	0.5072
271.554	0.5102
271.908	0.5004
272.263	0.5053
272.617	0.497
272.972	0.4924
273.326	0.4912
273.68	0.4835
274.034	0.4809
274.388	0.4811
274.742	0.48
275.096	0.4777
275.45	0.4743
275.803	0.4665
276.157	0.4629
276.51	0.4599
276.864	0.4572
277.217	0.4576
277.571	0.4547
277.924	0.4455
278.277	0.4429
278.63	0.4359
278.983	0.4361
279.336	0.4312
279.688	0.4239
280.041	0.4209
280.394	0.4193
280.746	0.4148
281.099	0.4134
281.451	0.4032
281.803	0.4003
282.156	0.3968
282.508	0.3949
282.86	0.3928
283.212	0.3836
283.564	0.3815
283.916	0.3821
284.267	0.3741
284.619	0.368
284.971	0.3658
285.322	0.3651
285.673	0.3564
286.025	0.3549
286.376	0.3485
286.727	0.346
287.078	0.3415
287.429	0.3396
287.78	0.3322
288.131	0.3299
288.482	0.3252
288.833	0.32
289.183	0.3158
289.534	0.3133
289.884	0.3097
290.235	0.3062
290.585	0.3015
290.935	0.2983
291.285	0.2919
291.635	0.2907
291.985	0.285
292.335	0.2817
292.685	0.2788
293.035	0.2762
293.384	0.2703
293.734	0.2673
294.083	0.2627
294.433	0.2578
294.782	0.2561
295.131	0.2509
295.48	0.2463
295.829	0.2438
296.179	0.2418
296.527	0.2382
296.876	0.2352
297.225	0.2307
297.574	0.226
297.922	0.2239
298.271	0.2199
298.619	0.2177
298.968	0.2135
299.316	0.2107
299.664	0.2074
300.012	0.2057
300.36	0.2023
300.708	0.1998
301.056	0.1957
301.404	0.1924
301.752	0.1913
302.099	0.1883
302.447	0.1867
302.794	0.1841
303.142	0.1818
303.489	0.1783
303.836	0.1768
304.183	0.1748
304.531	0.173
304.878	0.1718
305.224	0.17
305.571	0.1669
305.918	0.1655
306.265	0.1643
306.611	0.1624
306.958	0.162
307.304	0.1591
307.651	0.1593
307.997	0.1572
308.343	0.1572
308.689	0.1556
309.035	0.1542
309.381	0.1536
309.727	0.1532
310.073	0.1523
310.419	0.1516
310.764	0.1509
311.11	0.1503
311.455	0.1504
311.801	0.1491
312.146	0.1492
312.491	0.1492
312.837	0.148
313.182	0.1482
313.527	0.1488
313.872	0.1482
314.216	0.1478
314.561	0.1482
314.906	0.1488
315.251	0.1485
315.595	0.15
315.94	0.1499
316.284	0.1506
316.628	0.1508
316.972	0.1516
317.317	0.1524
317.661	0.1522
318.005	0.1527
318.348	0.1548
318.692	0.155
319.036	0.1549
319.38	0.1563
319.723	0.1569
320.067	0.1587
320.41	0.1589
320.754	0.1608
321.097	0.1617
321.44	0.1624
321.783	0.1645
322.126	0.1662
322.469	0.1661
322.812	0.1679
323.155	0.1694
323.498	0.1708
323.84	0.1725
324.183	0.1741
324.525	0.1753
324.868	0.1766
325.21	0.1781
325.552	0.1805
325.894	0.1811
326.236	0.1827
326.578	0.1841
326.92	0.1863
327.262	0.1874
327.604	0.1896
327.946	0.1914
328.287	0.1928
328.629	0.1948
328.97	0.1959
329.312	0.1984
329.653	0.1993
329.994	0.201
330.335	0.203
330.676	0.2052
331.017	0.2066
331.358	0.2083
331.699	0.2095
332.04	0.2119
332.38	0.2135
332.721	0.2145
333.061	0.2178
333.402	0.2193
333.742	0.2213
334.083	0.2217
334.423	0.2236
334.763	0.2249
335.103	0.2264
335.443	0.2285
335.783	0.2298
336.123	0.2309
336.462	0.2325
336.802	0.2346
337.141	0.2351
337.481	0.2363
337.82	0.2383
338.16	0.2392
338.499	0.2418
338.838	0.2425
339.177	0.2444
339.516	0.2457
339.855	0.2467
340.194	0.248
340.533	0.2494
340.872	0.2507
341.21	0.2521
341.549	0.2529
341.887	0.253
342.226	0.2544
342.564	0.2551
342.902	0.2561
343.24	0.257
343.578	0.2577
343.916	0.2576
344.254	0.2589
344.592	0.2588
344.93	0.2593
345.268	0.2593
345.605	0.2599
345.943	0.26
346.28	0.2608
346.618	0.2608
346.955	0.2605
347.292	0.2615
347.629	0.2621
347.966	0.2622
348.303	0.2623
348.64	0.262
348.977	0.2628
349.314	0.2625
349.65	0.2626
349.987	0.2627
350.324	0.2632
350.66	0.2633
350.996	0.2618
351.333	0.2616
351.669	0.2613
352.005	0.2611
352.341	0.2598
352.677	0.2588
353.013	0.2583
353.349	0.2574
353.685	0.2553
354.02	0.2542
354.356	0.2535
354.691	0.2525
355.027	0.2513
355.362	0.2504
355.697	0.2497
356.033	0.2492
356.368	0.2477
356.703	0.2465
357.038	0.246
357.373	0.2443
357.707	0.2443
358.042	0.2435
358.377	0.2422
358.711	0.2412
359.046	0.2394
359.38	0.2391
359.715	0.2383
360.049	0.237
360.383	0.2352
360.717	0.2341
361.051	0.2334
361.385	0.2311
361.719	0.2286
362.053	0.2279
362.387	0.2256
362.72	0.2241
363.054	0.2218
363.387	0.2202
363.721	0.2191
364.054	0.2166
364.387	0.2151
364.721	0.2133
365.054	0.2111
365.387	0.2092
365.72	0.2079
366.053	0.2058
366.385	0.2047
366.718	0.2029
367.051	0.2018
367.383	0.1998
367.716	0.1978
368.048	0.1975
368.381	0.1953
368.713	0.1943
369.045	0.1932
369.377	0.1907
369.709	0.1899
370.041	0.1889
370.373	0.1874
370.705	0.1848
371.037	0.1834
371.368	0.1813
371.7	0.1809
372.031	0.1789
372.363	0.1764
372.694	0.1737
373.025	0.1711
373.356	0.1703
373.688	0.1683
374.019	0.1654
374.35	0.1644
374.68	0.1621
375.011	0.1598
375.342	0.1565
375.673	0.1555
376.003	0.1538
376.334	0.1513
376.664	0.1492
376.995	0.1482
377.325	0.1457
377.655	0.1441
377.985	0.1423
378.315	0.1416
378.645	0.1402
378.975	0.1381
379.305	0.1373
379.635	0.1366
379.964	0.1353
380.294	0.1335
380.623	0.1317
380.953	0.1307
381.282	0.1288
381.611	0.1275
381.941	0.1257
382.27	0.1244
382.599	0.1224
382.928	0.1211
383.257	0.1196
383.585	0.118
383.914	0.1171
384.243	0.1144
384.571	0.1129
384.9	0.1106
385.228	0.1097
385.557	0.1076
385.885	0.1063
386.213	0.1042
386.541	0.1031
386.869	0.1009
387.197	0.099
387.525	0.0979
387.853	0.0961
388.181	0.0949
388.508	0.0927
388.836	0.0914
389.164	0.089
389.491	0.0891
389.818	0.0878
390.146	0.0865
390.473	0.0856
390.8	0.084
391.127	0.0822
391.454	0.0811
391.781	0.0801
392.108	0.0796
392.435	0.0774
392.761	0.0764
393.088	0.0758
393.415	0.0752
393.741	0.0746
394.067	0.0733
394.394	0.073
394.72	0.0712
395.046	0.0704
395.372	0.0698
395.698	0.0688
396.024	0.0678
396.35	0.0669
396.676	0.0652
397.001	0.0645
397.327	0.0637
397.653	0.0623
397.978	0.0615
398.303	0.061
398.629	0.0589
398.954	0.0584
399.279	0.0576
399.604	0.0578
399.929	0.0574
400.254	0.0562
400.579	0.0554
400.904	0.0542
401.229	0.0543
401.553	0.053
401.878	0.0525
402.202	0.0518
402.527	0.0517
402.851	0.0511
403.175	0.0495
403.5	0.05
403.824	0.0498
404.148	0.0492
404.472	0.0479
404.796	0.048
405.119	0.0478
405.443	0.0466
405.767	0.0464
406.09	0.0468
406.414	0.0459
406.737	0.045
407.061	0.0453
407.384	0.0458
407.707	0.0457
408.03	0.0449
408.353	0.045
408.676	0.0447
408.999	0.0442
409.322	0.0447
409.645	0.0438
409.968	0.0441
410.29	0.0434
410.613	0.044
410.935	0.0438
411.258	0.0432
411.58	0.0431
411.902	0.0431
412.224	0.0426
412.546	0.0429
412.868	0.0425
413.19	0.0425
413.512	0.0428
413.834	0.0416
414.156	0.0423
414.477	0.043
414.799	0.0422
415.121	0.0424
415.442	0.042
415.763	0.0419
416.085	0.0418
416.406	0.0423
416.727	0.0426
417.048	0.0419
417.369	0.0419
417.69	0.0415
418.011	0.0415
418.331	0.042
418.652	0.0428
418.973	0.0422
419.293	0.0412
419.614	0.0419
419.934	0.0425
420.254	0.0422
420.574	0.0417
420.895	0.0421
421.215	0.0423
421.535	0.0415
421.855	0.0412
422.174	0.0412
422.494	0.041
422.814	0.0417
423.134	0.0421
423.453	0.0424
423.773	0.0423
424.092	0.0416
424.411	0.0415
424.731	0.042
425.05	0.041
425.369	0.0419
425.688	0.0421
426.007	0.0416
426.326	0.0423
426.644	0.0423
426.963	0.0425
427.282	0.0415
427.6	0.042
427.919	0.0414
428.237	0.0422
428.556	0.0418
428.874	0.0425
429.192	0.0431
429.51	0.0424
429.828	0.0422
430.146	0.0424
430.464	0.0416
430.782	0.0422
431.1	0.0427
431.418	0.0421
431.735	0.0419
432.053	0.043
432.37	0.0425
432.688	0.0426
433.005	0.0424
433.322	0.0428
433.639	0.0427
433.957	0.043
434.274	0.0432
434.591	0.0422
434.907	0.0424
435.224	0.042
435.541	0.0424
435.858	0.0436
436.174	0.0434
436.491	0.0426
436.807	0.0411
437.124	0.0418
437.44	0.0425
437.756	0.0417
438.072	0.0426
438.388	0.0424
438.704	0.0421
439.02	0.0416
439.336	0.0416
439.652	0.0418
439.968	0.0416
440.283	0.0405
440.599	0.0414
440.914	0.042
441.23	0.0421
441.545	0.0416
441.86	0.041
442.175	0.0414
442.491	0.0418
442.806	0.0415
443.121	0.041
443.435	0.0408
443.75	0.0409
444.065	0.0409
444.38	0.0408
444.694	0.041
445.009	0.0413
445.323	0.041
445.638	0.0404
445.952	0.0407
446.266	0.0409
446.58	0.0406
446.894	0.0406
447.208	0.0407
447.522	0.0402
447.836	0.04
448.15	0.0393
448.464	0.0398
448.777	0.0396
449.091	0.0389
449.404	0.0394
449.718	0.0389
450.031	0.0389
450.345	0.0393
450.658	0.0396
450.971	0.0393
451.284	0.0397
451.597	0.0386
451.91	0.0388
452.223	0.0386
452.535	0.0374
452.848	0.0382
453.161	0.0369
453.473	0.0379
453.786	0.0374
454.098	0.0378
454.411	0.0381
454.723	0.0367
455.035	0.0368
455.347	0.0362
455.659	0.0362
455.971	0.0372
456.283	0.0366
456.595	0.0365
456.907	0.0365
457.218	0.0367
457.53	0.0355
457.841	0.0358
458.153	0.0359
458.464	0.0358
458.776	0.0356
459.087	0.0348
459.398	0.035
459.709	0.0354
460.02	0.035
460.331	0.0339
460.642	0.0345
460.953	0.0339
461.263	0.0336
461.574	0.0336
461.885	0.0334
462.195	0.0333
462.506	0.033
462.816	0.0327
463.126	0.0334
463.437	0.0329
463.747	0.0321
464.057	0.0319
464.367	0.032
464.677	0.0316
464.987	0.0314
465.296	0.0321
465.606	0.0302
465.916	0.031
466.225	0.0307
466.535	0.0305
466.844	0.0307
467.154	0.0301
467.463	0.0299
467.772	0.0299
468.081	0.0291
468.39	0.0292
468.699	0.0286
469.008	0.0284
469.317	0.0288
469.626	0.028
469.935	0.0274
470.243	0.0277
470.552	0.0279
470.86	0.0272
471.169	0.0273
471.477	0.0278
471.785	0.0279
472.093	0.0267
472.402	0.0263
472.71	0.0264
473.018	0.0263
473.326	0.025
473.633	0.0259
473.941	0.0257
474.249	0.0256
474.556	0.0267
474.864	0.0256
475.171	0.0243
475.479	0.0242
475.786	0.0244
476.094	0.0243
476.401	0.0234
476.708	0.0239
477.015	0.0236
477.322	0.0233
477.629	0.023
477.936	0.0229
478.242	0.0219
478.549	0.0224
478.856	0.0227
479.162	0.022
479.469	0.0219
479.775	0.0224
480.081	0.0206
480.388	0.0207
480.694	0.0208
481	0.0205
481.306	0.0207
481.612	0.0206
481.918	0.0204
482.224	0.0205
482.53	0.02
482.835	0.02
483.141	0.0195
483.446	0.0198
483.752	0.0189
484.057	0.018
484.363	0.0179
484.668	0.0189
484.973	0.0169
485.278	0.0173
485.583	0.0173
485.888	0.0171
486.193	0.0162
486.498	0.0169
486.803	0.0165
487.107	0.0158
487.412	0.0161
487.717	0.0165
488.021	0.0162
488.325	0.017
488.63	0.0154
488.934	0.0166
489.238	0.0159
489.542	0.0145
489.846	0.0152
490.15	0.0149
490.454	0.015
490.758	0.0139
491.062	0.0139
491.366	0.0133
491.669	0.0139
491.973	0.0149
492.276	0.0135
492.58	0.0143
492.883	0.0123
493.186	0.013
493.489	0.0132
493.792	0.0115
494.096	0.0121
494.399	0.0121
494.701	0.0121
495.004	0.0114
495.307	0.0119
495.61	0.0114
495.912	0.011
496.215	0.0099
496.517	0.01
496.82	0.0107
497.122	0.0095
497.424	0.0101
497.727	0.0096
498.029	0.0093
498.331	0.0104
498.633	0.0101
498.935	0.0096
499.237	0.0088
499.538	0.009
499.84	0.0094
500.142	0.0085
500.443	0.0083
500.745	0.0079
501.046	0.0076
501.348	0.0082
501.649	0.0071
501.95	0.0075
502.251	0.0084
502.552	0.0069
502.853	0.0063
503.154	0.007
503.455	0.0076
503.756	0.0071
504.057	0.0072
504.357	0.0065
504.658	0.0068
504.958	0.0069
505.259	0.0063
505.559	0.0058
505.859	0.006
506.16	0.0062
506.46	0.0057
506.76	0.0061
507.06	0.0055
507.36	0.0059
507.66	0.0057
507.96	0.0058
508.259	0.0049
508.559	0.0067
508.859	0.0059
509.158	0.0053
509.457	0.0043
509.757	0.0029
510.056	0.0047
510.355	0.0049
510.655	0.004
510.954	0.0045
511.253	0.0042
511.552	0.0044
511.851	0.0043
512.149	0.0029
512.448	0.0039
512.747	0.0037
513.045	0.0031
513.344	0.0028
513.642	0.0029
513.941	0.003
514.239	0.0025
514.537	0.0023
514.836	0.0035
515.134	0.0016
515.432	0.0036
515.73	0.0026
516.028	0.0018
516.326	0.0031
516.623	0.0029
516.921	0.0011
517.219	0.0017
517.516	0.0026
517.814	0.0017
518.111	0.0019
518.409	0.0008
518.706	0.0011
519.003	0.0021
519.3	0.0016
519.597	-0.0001
519.894	0.0017
520.191	0.0008
520.488	0.0015
520.785	0.0006
521.082	0.0011
521.378	0.0008
521.675	0.0009
521.971	0
522.268	0.0014
522.564	-0.0001
522.861	0.0015
523.157	0.0012
523.453	0.0014
523.749	0.0017
524.045	0.0007
524.341	0.0008
524.637	0.0007
524.933	-0.0006
525.229	0.0008
525.524	-0.0006
525.82	-0.0008
526.115	-0.0005
526.411	0.0005
526.706	0.0006
527.002	0.001
527.297	-0.0007
527.592	0.0002
527.887	0.0009
528.182	0.0006
528.477	0.0009
528.772	0.0002
529.067	0.0008
529.362	0
529.657	0.0006
529.951	0.0005
530.246	-0.0003
530.54	0.0002
530.835	0.0001
531.129	-0.0007
531.423	-0.0007
531.718	-0.0005
532.012	-0.0006
532.306	-0.0008
532.6	-0.0012
532.894	-0.0002
533.188	-0.0002
533.482	-0
533.775	-0.0001
534.069	-0.0002
534.363	-0.001
534.656	-0.0015
534.95	0.0005
535.243	-0.0002
535.536	-0.0007
535.83	-0.002
536.123	-0.0001
536.416	-0.0004
536.709	-0.0007
537.002	-0.0011
537.295	-0.0011
537.588	-0.0016
537.881	-0.0015
538.173	-0.0012
538.466	-0.0013
538.759	-0.0009
539.051	-0.0007
539.344	-0.0006
539.636	-0.0005
539.928	-0.0005
540.22	-0.0004
540.513	-0.0004
540.805	0.0001
541.097	-0.0018
541.389	-0.0014
541.681	0.0003
541.972	0.0001
542.264	0.0018
542.556	-0.0003
542.847	0.0003
543.139	0.0002
543.431	0.0002
543.722	0.0003
544.013	0.0005
544.305	-0.0001
544.596	-0.0004
544.887	0.0004
545.178	-0.0003
545.469	-0.0012
545.76	-0.0003
546.051	0.0009
546.342	-0.0006
546.632	-0.001
546.923	-0.0008
547.214	-0.0006
547.504	-0.0013
547.795	-0.001
548.085	-0.0008
548.375	-0.0015
548.666	-0.0016
548.956	-0.0005
549.246	-0.0001
549.536	-0.0005
549.826	-0.001
550.116	-0.0014
550.406	-0.0008
550.695	-0.0023
550.985	-0
551.275	-0.001
551.564	-0.0008
551.854	-0.0006
552.143	-0.0014
552.433	-0.0016
552.722	-0.0029
553.011	-0.0003
553.3	-0.0005
553.589	-0.0001
553.879	-0.0009
554.167	-0.0004
554.456	0.0005
554.745	-0.0001
555.034	-0.0007
555.323	0.0004
555.611	-0.0011
555.9	-0.0009
556.188	-0.0014
556.477	-0.001
556.765	-0.0016
557.053	-0.0021
557.342	-0.0014
557.63	-0.0007
557.918	-0.0007
558.206	-0.0002
558.494	-0.0008
558.782	-0.0004
559.069	-0.0004
559.357	0.0002
559.645	-0.0008
559.932	0.0001
560.22	-0.0007
560.507	-0.0011
560.795	-0.0021
561.082	-0.0028
561.37	0.0002
561.657	-0.0013
561.944	-0.001
562.231	-0.0001
562.518	-0.0002
562.805	-0.001
563.092	0.0001
563.379	0.0001
563.665	0.0005
563.952	0.0001
564.239	0.0012
564.525	-0.0007
564.811	0.001
565.098	-0
565.384	-0.0008
565.67	0.0002
565.957	0.0013
566.243	0.0014
566.529	0.0002
566.815	0.0002
567.101	0.0011
567.387	0.0005
567.672	0.0005
567.958	0.0002
568.244	-0.0003
568.529	0.0003
568.815	-0.0002
569.1	-0.0009
569.386	-0.0021
569.671	-0.0003
569.956	-0.001
570.242	-0
570.527	-0.0011
570.812	-0.0001
571.097	-0.0003
571.382	-0.001
571.666	0.0006
571.951	-0.0002
572.236	-0.0004
572.521	0.0003
572.805	-0.0004
573.09	-0.0007
573.374	-0.0012
573.659	-0
573.943	-0.0006
574.227	-0.0009
574.511	-0.0011
574.795	-0.0003
575.079	-0.0004
575.363	-0.0016
575.647	-0.0006
575.931	-0.0004
576.215	-0.001
576.499	-0.0019
576.782	-0.0017
577.066	-0.001
577.349	0
577.633	-0.0006
577.916	-0.0018
578.2	-0.0008
578.483	-0.0008
578.766	0.0006
579.049	0.0001
579.332	0.0007
579.615	-0.0001
579.898	-0.0001
580.181	0.0006
580.464	0.0008
580.746	0.0003
581.029	0.0004
581.312	-0.0003
581.594	-0.0014
581.877	-0.0009
582.159	-0.0005
582.441	-0.001
582.724	-0.0003
583.006	0.0014
583.288	0.0004
583.57	0.0011
583.852	0.0005
584.134	0.0004
584.416	0.0001
584.697	0.0002
584.979	-0.0009
585.261	-0.0016
585.542	-0.0013
585.824	-0.0008
586.105	-0.001
586.387	-0.0007
586.668	-0.0006
586.949	-0.0002
587.231	0.0002
587.512	-0.0003
587.793	0.0005
588.074	-0.0007
588.355	0.0007
588.636	-0.0004
588.916	0
589.197	0.0001
589.478	0.0003
589.758	0.0001
590.039	-0.0003
590.319	0.0002
590.6	0.0005
590.88	0.0009
591.16	0.0012
591.441	0.0011
591.721	0
592.001	-0.0011
592.281	0.0002
592.561	0.0004
592.841	-0.0009
593.12	-0.0023
593.4	-0.001
593.68	-0.0016
593.959	-0.0006
594.239	-0.0008
594.518	-0.0002
594.798	0.0013
595.077	-0.0007
595.356	-0.0008
595.636	-0.0004
595.915	-0.0002
596.194	0.0004
596.473	0.0001
596.752	0.0008
597.031	-0.0003
597.31	-0.0006
597.588	0.0001
597.867	-0.0009
598.146	-0.0006
598.424	0
598.703	-0.0001
598.981	-0.0019
599.259	-0.0013
599.538	-0.0004
599.816	-0.0002
600.094	-0.0012
600.372	-0.0021
600.65	-0.0011
600.928	-0.0004
601.206	-0.0003
601.484	-0.0004
601.762	-0.0001
602.04	-0.0005
602.317	-0.0008
602.595	-0.0018
602.872	-0.001
603.15	0.0002
603.427	-0.0017
603.704	-0.0012
603.982	-0.0007
604.259	-0.0008
604.536	-0.0003
604.813	-0.0006
605.09	-0.0001
605.367	-0.002
605.644	-0.0007
605.921	-0.001
606.197	-0.0012
606.474	0.0005
606.751	-0
607.027	-0.0008
607.304	-0.0007
607.58	-0.0006
607.856	-0.0013
608.133	-0.0016
608.409	-0.0005
608.685	-0.0013
608.961	-0.0004
609.237	-0.0007
609.513	-0.0008
609.789	-0.0003
610.065	-0.0016
610.341	-0.0016
610.616	-0.0002
610.892	0.0006
611.167	0.0002
611.443	0.0003
611.718	-0.0005
611.994	-0.0002
612.269	0.0005
612.544	-0.0003
612.819	-0.0017
613.095	-0.0005
613.37	-0.0003
613.645	-0.0007
613.919	0.0001
614.194	-0.0003
614.469	0
614.744	-0.0006
615.019	-0.0007
615.293	-0.0007
615.568	-0.0002
615.842	-0.0002
616.116	0.0006
616.391	0.0009
616.665	0.0001
616.939	-0
617.213	0.0013
617.488	0.0002
617.762	-0.0001
618.035	-0.0003
618.309	-0.0011
618.583	0.0002
618.857	0.0014
619.131	0.0007
619.404	0.0006
619.678	0.0007
619.951	-0.0008
620.225	-0.0009
620.498	-0.0005
620.771	-0.001
621.045	-0.0011
621.318	-0.0018
621.591	-0.002
621.864	-0.0018
622.137	-0.002
622.41	-0.0018
622.683	-0.0006
622.956	-0.0007
623.228	-0.001
623.501	0.0002
623.774	-0.0001
624.046	-0.0006
624.319	-0.0018
624.591	-0.0017
624.863	-0.0014
625.136	0.0006
625.408	0.0003
625.68	-0.0008
625.952	0.0001
626.224	0.0007
626.496	0.0009
626.768	0.0003
627.04	-0.0007
627.311	-0.0002
627.583	-0.0003
627.855	0.0014
628.126	0.0009
628.398	0.0014
628.669	0.002
628.941	0.0017
629.212	0.0013
629.483	0.0014
629.755	-0.0001
630.026	0.0004
630.297	0.0013
630.568	0.0003
630.839	0.0005
631.11	0.0004
631.38	0.0006
631.651	0.0006
631.922	0.0008
632.192	0.0004
632.463	-0.0003
632.733	-0.0011
633.004	0.0006
633.274	0.0006
633.545	0.0013
633.815	0.0012
634.085	-0.0018
634.355	-0.0019
634.625	-0.0016
634.895	-0
635.165	-0.0014
635.435	-0.0014
635.705	-0.0003
635.974	-0.0016
636.244	-0.0004
636.514	0.0007
636.783	-0.0009
637.053	-0.0006
637.322	0.0003
637.591	0.0004
637.861	-0.0009
638.13	-0.0005
638.399	-0
638.668	-0.0013
638.937	-0.0013
639.206	-0.0023
639.475	-0.0018
639.744	-0.0021
640.013	-0.0008
640.281	0
640.55	-0.0009
640.819	-0.0006
641.087	-0.0008
641.356	0.0004
641.624	0.0022
641.892	0.0029
642.161	0.0025
642.429	0.0016
642.697	0.0003
642.965	0.0006
643.233	-0.0015
643.501	-0.0018
643.769	-0.0003
644.037	0.0001
644.305	-0.0004
644.572	0.0009
644.84	-0.0003
645.108	-0.0016
645.375	-0.0013
645.643	0.0005
645.91	0.0023
646.177	0.0022
646.445	0.0034
646.712	0.0039
646.979	0.0045
647.246	0.0056
647.513	0.004
647.78	0.0032
648.047	0.0021
648.314	-0.0001
648.58	0.0004
648.847	0.001
649.114	0.0018
649.38	0.0014
649.647	0.0004
649.913	0.0009
650.18	0.0001
650.446	0.0017
650.712	0.0006
650.978	-0.0002
651.245	-0.0001
651.511	0.0005
651.777	0.0006
652.043	0.0006
652.309	0.0014
652.574	0.0022
652.84	0.0026
653.106	0.0013
653.371	0.003
653.637	0.0033
653.903	0.0031
654.168	0.0043
654.433	0.0045
654.699	0.0043
654.964	0.0043
655.229	0.003
655.494	0.0016
655.759	-0.0023
656.024	0.0001
656.289	-0
656.554	0.0031
656.819	0.0017
657.084	0.0014
657.349	0.0011
657.613	0.0012
657.878	-0.0008
658.142	-0.0005
658.407	-0.0004
658.671	0.0013
658.936	0.0021
659.2	0.0015
659.464	0.0013
659.728	0.001
659.992	0.0006
660.256	0.0015
660.52	0.0006
660.784	0.0003
661.048	0.0003
661.312	0.0007
661.575	0.0002
661.839	0.0006
662.103	-0.0009
662.366	0.0012
662.63	-0.0018
662.893	-0.0009
663.156	-0.0006
663.42	-0.0011
663.683	-0.0025
663.946	-0.0025
664.209	-0.003
664.472	-0.003
664.735	-0.0015
664.998	-0.0009
665.261	-0.001
665.524	-0.0017
665.786	-0.0008
666.049	-0.0006
666.312	-0.0009
666.574	-0.0017
666.837	-0.0001
667.099	0.0004
667.361	-0.0008
667.624	-0.0004
667.886	-0.0016
668.148	-0.0007
668.41	-0.0002
668.672	-0.0007
668.934	-0
669.196	-0.0004
669.458	0.0001
669.72	0.0012
669.982	0.0006
670.243	0.0009
670.505	0.0003
670.766	0.0022
671.028	0.0007
671.289	-0.0005
671.551	-0.0014
671.812	-0.0013
672.073	0.0004
672.334	0.0002
672.596	-0.001
672.857	-0.0015
673.118	-0.0005
673.379	-0.0017
673.639	-0.0013
673.9	-0.0018
674.161	-0.0011
674.422	-0.0019
674.682	-0.0009
674.943	0.0001
675.203	0.0001
675.464	-0.0006
675.724	-0.0021
675.985	-0.0015
676.245	-0.0023
676.505	-0.001
676.765	-0.0017
677.025	-0.0011
677.285	-0.0008
677.545	-0.0002
677.805	0.0005
678.065	0.0001
678.325	0.0003
678.585	-0.0006
678.844	-0.0021
679.104	-0.0015
679.363	-0.0025
679.623	-0.0023
679.882	-0.0017
680.142	-0.0017
680.401	-0.0016
680.66	-0.0003
680.919	0.0012
681.178	0.0009
681.437	0.0006
681.696	0
681.955	0.0013
682.214	0.0013
682.473	0.0009
682.732	-0.0001
682.99	-0.0001
683.249	0.0007
683.508	-0.0002
683.766	-0.0014
684.024	-0.0015
684.283	-0.0007
684.541	-0.0008
684.799	-0
685.058	0
685.316	-0.0008
685.574	-0.0014
685.832	-0.001
686.09	-0.0013
686.348	-0.0025
686.606	-0.0022
686.863	-0.002
687.121	-0.0009
687.379	-0.0004
687.636	-0.0013
687.894	0.0001
688.151	0.0005
688.409	0.0004
688.666	-0.0012
688.923	-0.0008
689.181	-0.0009
689.438	-0.0013
689.695	-0.001
689.952	-0.0028
690.209	-0.0023
690.466	-0.0026
690.723	-0.0012
690.979	-0.0013
691.236	-0.0014
691.493	-0.0003
691.75	-0.0001
692.006	-0.0006
692.263	0
692.519	-0.0014
692.775	-0.0006
693.032	-0.0011
693.288	-0.0008
693.544	-0.0003
693.8	-0.0002
694.056	-0.0004
694.313	-0.0002
694.568	-0.0007
694.824	-0.001
695.08	-0.0018
695.336	-0.0026
695.592	-0.0034
695.847	-0.0019
696.103	-0.0021
696.359	-0.0019
696.614	-0.0023
696.869	-0.0032
697.125	-0.0043
697.38	-0.0014
697.635	-0.0015
697.891	-0.0001
698.146	-0
698.401	-0.0011
698.656	-0.0017
698.911	-0.0002
699.166	-0.0005
699.42	-0.0001
699.675	-0.0005
699.93	-0.0001
700.185	-0.0013
700.439	-0.0012
700.694	-0.001
700.948	-0.0017
701.203	-0.0021
701.457	-0.0019
701.711	-0.0027
701.965	-0.0027
702.22	-0.0032
702.474	-0.0019
702.728	-0.0023
702.982	-0.0023
703.236	-0.0011
703.49	-0.0008
703.743	-0.0013
703.997	-0.0013
704.251	-0.0021
704.504	-0.0016
704.758	-0.002
705.012	-0.0015
705.265	-0.0004
705.518	0.0005
705.772	-0.0001
706.025	-0.0002
706.278	-0.0013
706.531	-0.0015
706.785	-0.0018
707.038	-0.0026
707.291	-0.0018
707.543	-0.0023
707.796	-0.0014
708.049	-0.0021
708.302	-0.0029
708.555	-0.003
708.807	-0.0019
709.06	-0.0027
709.312	-0.0024
709.565	-0.0024
709.817	-0.003
710.069	-0.0028
710.322	-0.0029
710.574	-0.0048
710.826	-0.004
711.078	-0.0034
711.33	-0.0038
711.582	-0.0042
711.834	-0.0042
712.086	-0.0041
712.338	-0.0046
712.59	-0.0038
712.841	-0.0055
713.093	-0.0045
713.344	-0.0045
713.596	-0.0045
713.847	-0.0026
714.099	-0.0021
714.35	-0.0024
714.601	-0.0029
714.853	-0.0027
715.104	-0.0026
715.355	-0.0021
715.606	-0.0018
715.857	-0.0004
716.108	-0.0009
716.359	-0.0005
716.609	-0.0021
716.86	-0.0021
717.111	-0.001
717.361	-0.0009
717.612	0.0007
717.863	0.0011
718.113	0.0022
718.363	0.0007
718.614	0.0024
718.864	0.0025
719.114	0.0013
719.364	0.0011
719.614	0.0014
719.865	0.0017
720.114	0.002
720.364	0.0019
720.614	0.0026
720.864	0.0016
721.114	0.0014
721.364	0.0014
721.613	0.0014
721.863	0.001
722.112	0.0002
722.362	-0.0001
722.611	-0.0002
722.86	-0.0002
723.11	-0.0004
723.359	-0.0011
723.608	-0.001
723.857	-0.0006
724.106	-0.0005
724.355	0.0006
724.604	0.0003
724.853	0.0004
725.102	-0.0019
725.351	-0.0016
725.599	-0.0025
725.848	-0.0016
726.097	-0.001
726.345	-0.0012
726.594	-0.0022
726.842	-0.0015
727.09	-0.0025
727.339	-0.0041
727.587	-0.0051
727.835	-0.0042
728.083	-0.0034
728.331	-0.0038
728.579	-0.0022
728.827	-0.0017
729.075	-0.0011
729.323	-0.001
729.571	-0.0016
729.818	-0.0007
730.066	-0.0006
730.314	-0.0012
730.561	0.0011
730.809	0.0001
731.056	-0.0002
731.303	0.0012
731.551	0.0003
731.798	0.0005
732.045	-0.0007
732.292	0.0015
732.539	0.0004
732.786	0.0017
733.033	0.0004
733.28	0.0013
733.527	0.0018
733.774	-0.0005
734.021	-0.0021
734.267	-0.0018
734.514	-0.0029
734.76	-0.0028
735.007	-0.0028
735.253	-0.0035
735.5	-0.0032
735.746	-0.0036
735.992	-0.0025
736.238	-0.002
736.485	-0.001
736.731	-0.0008
736.977	-0.0021
737.223	-0.0015
737.469	-0.0014
737.715	-0.0012
737.96	-0.002
738.206	-0.0032
738.452	-0.0026
738.697	-0.0035
738.943	-0.0034
739.189	-0.0038
739.434	-0.0025
739.679	-0.0028
739.925	-0.0029
740.17	-0.0036
740.415	-0.0038
740.66	-0.0046
740.906	-0.004
741.151	-0.0036
741.396	-0.0044
741.641	-0.0042
741.886	-0.0047
742.13	-0.003
742.375	-0.0018
742.62	-0.0033
742.865	-0.0034
743.109	-0.0006
743.354	-0.0003
743.598	0.0003
743.843	0.0002
744.087	0.0007
744.331	0.0018
744.576	0.0019
744.82	0.0032
745.064	0.0029
745.308	0.0031
745.552	0.003
745.796	0.0015
746.04	0.0012
746.284	0.0004
746.528	0.0016
746.771	0.0026
747.015	0.003
747.259	0.0012
747.502	0.0009
747.746	0.0006
747.989	0.0008
748.233	-0.0001
748.476	0.0014
748.719	0.0016
748.963	0.0039
749.206	0.0027
749.449	0.0011
749.692	0.001
749.935	0.0021
750.178	0.0002
750.421	0.0002
750.664	0.0005
750.906	0.0011
751.149	0.0017
751.392	0.0004
751.635	-0.0005
751.877	0.0003
752.12	-0.0012
752.362	-0.001
752.604	-0.0012
752.847	0.0012
753.089	0.0013
753.331	0.0015
753.573	0.001
753.816	0
754.058	-0.0004
754.3	-0.0015
754.542	-0.0012
754.783	-0.0024
755.025	-0.0019
755.267	-0.0008
755.509	-0.0015
755.75	-0.0019
755.992	-0.0005
756.234	-0.002
756.475	-0.0021
756.716	-0.0025
756.958	-0.0022
757.199	-0.0023
757.44	-0.0027
757.682	-0.0029
757.923	-0.0012
758.164	-0.0007
758.405	-0.0008
758.646	-0.0001
758.887	0.0004
759.128	0
759.369	-0.0013
759.609	-0.0001
759.85	0.0002
760.091	0.0016
760.331	-0.0001
760.572	-0.0008
760.812	-0.0008
761.053	-0.0015
761.293	-0.0014
761.533	-0.0022
761.774	0.0007
762.014	-0.0001
762.254	-0.0011
762.494	-0.0019
762.734	-0.0019
762.974	-0.0029
763.214	-0.0021
763.454	-0.0016
763.694	-0.0021
763.933	-0.0024
764.173	-0.0047
764.413	-0.0049
764.652	-0.0046
764.892	-0.0048
765.131	-0.0044
765.371	-0.0035
765.61	-0.0033
765.849	-0.003
766.089	-0.0026
766.328	-0.0017
766.567	-0.0015
766.806	-0.0012
767.045	-0.0003
767.284	-0.0012
767.523	-0.0012
767.762	-0.0023
768.001	-0.0014
768.239	-0.0014
768.478	-0.0007
768.717	-0.0002
768.955	-0.0006
769.194	-0.0006
769.432	0.0006
769.671	0.0014
769.909	0.0013
770.148	0.0001
770.386	0.001
770.624	0.0014
770.862	0.0021
771.1	0.0025
771.338	0.0013
771.576	0.0008
771.814	0.002
772.052	0.0017
772.29	0.0029
772.528	0.0023
772.765	0.0038
773.003	0.0036
773.24	0.0033
773.478	0.0019
773.716	0.0027
773.953	0.0023
774.19	0.0029
774.428	0.0036
774.665	0.0038
774.902	0.0037
775.139	0.0038
775.376	0.0028
775.613	0.0027
775.85	0.0014
776.087	0.0012
776.324	0.0005
776.561	-0.0001
776.798	0.0003
777.034	-0.0003
777.271	0.0013
777.508	0.0017
777.744	0.0015
777.981	0.0027
778.217	0.0025
778.454	0.0016
778.69	0.0007
778.926	-0.0005
779.162	-0.0005
779.399	0
779.635	-0.0005
779.871	-0.0003
780.107	-0.0009
780.343	-0.0022
780.579	-0.0012
780.814	-0.0012
781.05	-0.0005
781.286	-0.0016
781.522	0.0002
781.757	-0.0004
781.993	0.0011
782.228	-0.0004
782.464	0.0009
782.699	-0.0005
782.934	-0.0013
783.17	-0.0013
783.405	-0.0013
783.64	-0.0023
783.875	-0.0032
784.11	-0.0024
784.345	-0.0014
784.58	-0.0009
784.815	-0.0009
785.05	-0.0015
785.285	-0.0034
785.52	-0.0028
785.754	-0.0039
785.989	-0.0044
786.223	-0.0055
786.458	-0.0048
786.692	-0.0039
786.927	-0.0038
787.161	-0.0024
787.396	-0.0026
787.63	-0.0033
787.864	-0.0042
788.098	-0.0042
788.332	-0.0039
788.566	-0.0026
788.8	-0.0025
789.034	-0.0017
789.268	-0.0022
789.502	-0.0012
789.736	-0.002
789.969	-0.0015
790.203	-0.0016
790.437	-0.003
790.67	-0.0036
790.904	-0.0042
791.137	-0.0041
791.37	-0.0046
791.604	-0.0057
791.837	-0.0069
792.07	-0.0051
792.303	-0.006
792.537	-0.0058
792.77	-0.0062
793.003	-0.0065
793.236	-0.0058
793.469	-0.0058
793.701	-0.0047
793.934	-0.004
794.167	-0.0036
794.4	-0.0036
794.632	-0.0019
794.865	-0.0011
795.097	-0.0017
795.33	-0.0037
795.562	-0.0029
795.795	-0.0021
796.027	-0.0017
796.259	-0.0023
796.491	-0.0019
796.724	-0.0028
796.956	-0.0015
797.188	-0.001
797.42	-0.0018
797.652	-0.0012
797.883	-0.001
798.115	0.0004
798.347	0.0009
798.579	0.0028
798.81	0.0029
799.042	0.0034
799.274	0.0017
799.505	0.002
799.737	0.0014
799.968	0.0002
800.199	0.0003
800.431	0.0003
800.662	0.0002
800.893	0.0002
801.124	0.0003
801.355	-0.0002
801.586	0.0005
801.817	-0.0011
802.048	-0.0029
802.279	-0.002
802.51	-0.0015
802.741	-0.0012
802.971	0.0004
803.202	0
803.433	0.0006
803.663	-0.0001
803.894	0.0002
804.124	-0.0002
804.354	0.0004
804.585	-0.0002
804.815	0.0007
805.045	0.0007
805.275	0.0012
805.506	0.0355
805.736	-0.1478
805.966	-0.2018
806.196	-0.2059
