Data from 03 0.5 mM K2Cr2O7 0.3 mM BQDS 1 M H2SO4 5 min_Absorbance_0100.txt Node
Date: Tue Dec 14 01:59:46 EST 2021
User: kwabilab-user
Spectrometer: HDX00518
Trigger mode: 0
Integration Time (sec): 5.000000E-2
Scans to average: 50
Nonlinearity correction enabled: false
Boxcar width: 0
Storing dark spectrum: false
XAxis mode: Wavelengths
Number of Pixels in Spectrum: 2068
>>>>>Begin Spectral Data<<<<<
195.27	-0.0599
195.642	0.1823
196.014	0.1054
196.386	0.2311
196.758	-0.0455
197.129	-0.0321
197.501	-0.019
197.872	-0.007
198.244	0.012
198.615	0.0332
198.986	0.018
199.357	0.0276
199.728	0.0227
200.099	0.015
200.47	-0.0006
200.841	0.016
201.212	0.0336
201.582	0.022
201.953	0.0298
202.323	0.0417
202.694	0.0124
203.064	0.0206
203.434	0.0286
203.804	-0.0113
204.174	0.0279
204.544	0.0145
204.914	0.0076
205.284	0.0263
205.653	0.0126
206.023	0.017
206.393	-0.0126
206.762	0.0203
207.131	0.0159
207.501	-0.0064
207.87	0.0218
208.239	0.0299
208.608	0.0208
208.977	-0.003
209.346	-0.0182
209.715	-0.0013
210.083	0.0078
210.452	-0.0039
210.82	0.0136
211.189	-0.0126
211.557	0.0287
211.925	-0.0058
212.294	-0.0072
212.662	0.0157
213.03	0.001
213.398	0.0318
213.766	0.0347
214.133	0.0108
214.501	0.0244
214.869	0.028
215.236	0.01
215.604	0.0058
215.971	0.0192
216.338	0.0456
216.705	0.0383
217.072	0.0374
217.439	0.0384
217.806	0.0233
218.173	0.0407
218.54	0.0336
218.907	0.0494
219.273	0.0589
219.64	0.0567
220.006	0.0817
220.373	0.0746
220.739	0.0817
221.105	0.1029
221.471	0.1148
221.837	0.1246
222.203	0.1484
222.569	0.162
222.935	0.1828
223.3	0.2001
223.666	0.2305
224.031	0.2484
224.397	0.2529
224.762	0.2739
225.127	0.3096
225.493	0.328
225.858	0.3609
226.223	0.3652
226.588	0.4084
226.952	0.4119
227.317	0.4488
227.682	0.4517
228.046	0.4709
228.411	0.4812
228.775	0.496
229.14	0.5306
229.504	0.5213
229.868	0.5546
230.232	0.5583
230.596	0.5764
230.96	0.5873
231.324	0.5954
231.688	0.6129
232.052	0.6157
232.415	0.6187
232.779	0.6301
233.142	0.6286
233.505	0.6391
233.869	0.6609
234.232	0.6507
234.595	0.6472
234.958	0.6618
235.321	0.6663
235.684	0.6472
236.047	0.676
236.409	0.652
236.772	0.658
237.134	0.6561
237.497	0.6584
237.859	0.6688
238.222	0.6551
238.584	0.655
238.946	0.6577
239.308	0.6592
239.67	0.6585
240.032	0.6543
240.393	0.6507
240.755	0.6544
241.117	0.65
241.478	0.6531
241.84	0.6464
242.201	0.6349
242.562	0.6376
242.924	0.6336
243.285	0.6394
243.646	0.6531
244.007	0.6344
244.368	0.6338
244.728	0.6317
245.089	0.6349
245.45	0.6323
245.81	0.6345
246.171	0.6287
246.531	0.6327
246.891	0.6291
247.252	0.6212
247.612	0.6201
247.972	0.6233
248.332	0.6303
248.692	0.6205
249.051	0.6293
249.411	0.6233
249.771	0.6224
250.13	0.6227
250.49	0.6188
250.849	0.6235
251.208	0.6244
251.568	0.6262
251.927	0.6193
252.286	0.6219
252.645	0.6242
253.004	0.6251
253.363	0.6162
253.721	0.6292
254.08	0.6198
254.439	0.6175
254.797	0.6152
255.155	0.6142
255.514	0.6173
255.872	0.6167
256.23	0.6113
256.588	0.6144
256.946	0.616
257.304	0.6142
257.662	0.6157
258.02	0.6153
258.377	0.6126
258.735	0.6082
259.093	0.6088
259.45	0.6037
259.807	0.6043
260.165	0.6053
260.522	0.6027
260.879	0.605
261.236	0.6011
261.593	0.5987
261.95	0.5908
262.306	0.5905
262.663	0.5883
263.02	0.5868
263.376	0.5875
263.733	0.584
264.089	0.5827
264.445	0.578
264.802	0.5785
265.158	0.5773
265.514	0.5723
265.87	0.5704
266.226	0.5633
266.581	0.5695
266.937	0.5606
267.293	0.5626
267.648	0.5534
268.004	0.5532
268.359	0.5499
268.714	0.5493
269.07	0.5477
269.425	0.5463
269.78	0.538
270.135	0.5426
270.49	0.5404
270.844	0.5297
271.199	0.5283
271.554	0.5308
271.908	0.5265
272.263	0.5269
272.617	0.5195
272.972	0.5172
273.326	0.5084
273.68	0.51
274.034	0.5064
274.388	0.5056
274.742	0.5002
275.096	0.4938
275.45	0.4952
275.803	0.4927
276.157	0.4839
276.51	0.4822
276.864	0.475
277.217	0.4757
277.571	0.4731
277.924	0.4642
278.277	0.46
278.63	0.4589
278.983	0.4549
279.336	0.4483
279.688	0.4439
280.041	0.4418
280.394	0.4387
280.746	0.4339
281.099	0.4283
281.451	0.4245
281.803	0.419
282.156	0.4163
282.508	0.4094
282.86	0.4066
283.212	0.3996
283.564	0.3975
283.916	0.3933
284.267	0.3887
284.619	0.3869
284.971	0.3826
285.322	0.3775
285.673	0.3722
286.025	0.3673
286.376	0.3663
286.727	0.3624
287.078	0.3574
287.429	0.3546
287.78	0.3494
288.131	0.3442
288.482	0.3393
288.833	0.3322
289.183	0.3312
289.534	0.3261
289.884	0.322
290.235	0.3185
290.585	0.3124
290.935	0.3108
291.285	0.3042
291.635	0.3029
291.985	0.2988
292.335	0.2942
292.685	0.2909
293.035	0.2876
293.384	0.2816
293.734	0.2791
294.083	0.2749
294.433	0.27
294.782	0.2665
295.131	0.2621
295.48	0.2588
295.829	0.2552
296.179	0.2526
296.527	0.2478
296.876	0.2439
297.225	0.2408
297.574	0.2369
297.922	0.2348
298.271	0.2294
298.619	0.2271
298.968	0.2223
299.316	0.2194
299.664	0.2179
300.012	0.2139
300.36	0.211
300.708	0.2087
301.056	0.205
301.404	0.2022
301.752	0.2
302.099	0.1969
302.447	0.1949
302.794	0.1918
303.142	0.1888
303.489	0.1865
303.836	0.1859
304.183	0.183
304.531	0.1806
304.878	0.1792
305.224	0.1771
305.571	0.1754
305.918	0.1732
306.265	0.1724
306.611	0.1697
306.958	0.1692
307.304	0.1668
307.651	0.166
307.997	0.1647
308.343	0.1636
308.689	0.1622
309.035	0.161
309.381	0.1598
309.727	0.1597
310.073	0.1582
310.419	0.1583
310.764	0.1562
311.11	0.157
311.455	0.1568
311.801	0.1568
312.146	0.1557
312.491	0.1552
312.837	0.1544
313.182	0.155
313.527	0.1544
313.872	0.1546
314.216	0.1541
314.561	0.1545
314.906	0.1543
315.251	0.1542
315.595	0.1557
315.94	0.1558
316.284	0.1557
316.628	0.1566
316.972	0.1578
317.317	0.1581
317.661	0.1583
318.005	0.1592
318.348	0.1593
318.692	0.161
319.036	0.1617
319.38	0.1614
319.723	0.163
320.067	0.1642
320.41	0.1652
320.754	0.1666
321.097	0.1676
321.44	0.1683
321.783	0.1697
322.126	0.1715
322.469	0.1715
322.812	0.1739
323.155	0.1756
323.498	0.177
323.84	0.1779
324.183	0.1797
324.525	0.1815
324.868	0.1833
325.21	0.184
325.552	0.1859
325.894	0.1871
326.236	0.1892
326.578	0.1902
326.92	0.192
327.262	0.1936
327.604	0.1956
327.946	0.1968
328.287	0.1986
328.629	0.2009
328.97	0.2018
329.312	0.2038
329.653	0.2056
329.994	0.2072
330.335	0.2084
330.676	0.2119
331.017	0.2129
331.358	0.2148
331.699	0.2172
332.04	0.2187
332.38	0.2201
332.721	0.2215
333.061	0.2244
333.402	0.2254
333.742	0.2271
334.083	0.2292
334.423	0.2303
334.763	0.232
335.103	0.2331
335.443	0.2349
335.783	0.2364
336.123	0.2375
336.462	0.2395
336.802	0.2415
337.141	0.2428
337.481	0.2436
337.82	0.2454
338.16	0.2458
338.499	0.2478
338.838	0.2492
339.177	0.2517
339.516	0.2532
339.855	0.2546
340.194	0.2554
340.533	0.2568
340.872	0.2584
341.21	0.2589
341.549	0.2593
341.887	0.2605
342.226	0.2621
342.564	0.2623
342.902	0.264
343.24	0.2634
343.578	0.2643
343.916	0.2649
344.254	0.2656
344.592	0.2663
344.93	0.2662
345.268	0.2662
345.605	0.2667
345.943	0.2666
346.28	0.2678
346.618	0.2676
346.955	0.268
347.292	0.2686
347.629	0.269
347.966	0.2698
348.303	0.2695
348.64	0.27
348.977	0.2689
349.314	0.2694
349.65	0.2699
349.987	0.2699
350.324	0.2704
350.66	0.2693
350.996	0.2689
351.333	0.2685
351.669	0.2687
352.005	0.2673
352.341	0.2662
352.677	0.2661
353.013	0.2647
353.349	0.2633
353.685	0.2625
354.02	0.2613
354.356	0.2598
354.691	0.2591
355.027	0.2582
355.362	0.2582
355.697	0.2563
356.033	0.2554
356.368	0.2548
356.703	0.2535
357.038	0.2529
357.373	0.2515
357.707	0.2503
358.042	0.2491
358.377	0.2496
358.711	0.2482
359.046	0.2453
359.38	0.2452
359.715	0.2439
360.049	0.2431
360.383	0.2417
360.717	0.2407
361.051	0.2391
361.385	0.2378
361.719	0.2354
362.053	0.2338
362.387	0.2318
362.72	0.2295
363.054	0.2281
363.387	0.2268
363.721	0.2238
364.054	0.2222
364.387	0.2208
364.721	0.219
365.054	0.2167
365.387	0.2146
365.72	0.2119
366.053	0.211
366.385	0.2092
366.718	0.2076
367.051	0.2069
367.383	0.2052
367.716	0.2033
368.048	0.2022
368.381	0.1996
368.713	0.1989
369.045	0.1984
369.377	0.1963
369.709	0.1955
370.041	0.1936
370.373	0.1913
370.705	0.1901
371.037	0.1883
371.368	0.1861
371.7	0.1855
372.031	0.1823
372.363	0.1812
372.694	0.1787
373.025	0.1764
373.356	0.1745
373.688	0.1728
374.019	0.1704
374.35	0.1677
374.68	0.1661
375.011	0.1637
375.342	0.1609
375.673	0.1593
376.003	0.1577
376.334	0.1559
376.664	0.1538
376.995	0.1525
377.325	0.1493
377.655	0.1483
377.985	0.1463
378.315	0.1454
378.645	0.1441
378.975	0.1425
379.305	0.1405
379.635	0.14
379.964	0.1383
380.294	0.1365
380.623	0.1358
380.953	0.1337
381.282	0.1321
381.611	0.131
381.941	0.1291
382.27	0.128
382.599	0.1261
382.928	0.1244
383.257	0.1237
383.585	0.1208
383.914	0.1206
384.243	0.118
384.571	0.1167
384.9	0.1138
385.228	0.1126
385.557	0.1111
385.885	0.1086
386.213	0.1076
386.541	0.1058
386.869	0.1035
387.197	0.1022
387.525	0.1004
387.853	0.098
388.181	0.0973
388.508	0.096
388.836	0.0937
389.164	0.0922
389.491	0.0914
389.818	0.0903
390.146	0.0885
390.473	0.0877
390.8	0.0858
391.127	0.0841
391.454	0.0831
391.781	0.082
392.108	0.0809
392.435	0.0798
392.761	0.0786
393.088	0.0778
393.415	0.0773
393.741	0.0769
394.067	0.0756
394.394	0.0744
394.72	0.0732
395.046	0.073
395.372	0.0719
395.698	0.0715
396.024	0.07
396.35	0.069
396.676	0.0675
397.001	0.0672
397.327	0.0658
397.653	0.0646
397.978	0.0634
398.303	0.0627
398.629	0.0612
398.954	0.0601
399.279	0.0596
399.604	0.059
399.929	0.058
400.254	0.0577
400.579	0.0574
400.904	0.0565
401.229	0.0553
401.553	0.0545
401.878	0.0539
402.202	0.054
402.527	0.0528
402.851	0.053
403.175	0.0513
403.5	0.0511
403.824	0.051
404.148	0.0507
404.472	0.0496
404.796	0.0498
405.119	0.049
405.443	0.0492
405.767	0.047
406.09	0.0476
406.414	0.0477
406.737	0.0471
407.061	0.047
407.384	0.047
407.707	0.0466
408.03	0.0458
408.353	0.0469
408.676	0.0453
408.999	0.0454
409.322	0.0456
409.645	0.045
409.968	0.0451
410.29	0.0451
410.613	0.0451
410.935	0.0447
411.258	0.0443
411.58	0.0441
411.902	0.0447
412.224	0.0442
412.546	0.0436
412.868	0.044
413.19	0.0445
413.512	0.0442
413.834	0.0431
414.156	0.0439
414.477	0.0434
414.799	0.0437
415.121	0.0435
415.442	0.0438
415.763	0.0435
416.085	0.0431
416.406	0.0435
416.727	0.0434
417.048	0.0434
417.369	0.0429
417.69	0.0428
418.011	0.0426
418.331	0.0428
418.652	0.0434
418.973	0.0436
419.293	0.0434
419.614	0.0441
419.934	0.0435
420.254	0.0437
420.574	0.0437
420.895	0.0434
421.215	0.0434
421.535	0.043
421.855	0.0423
422.174	0.0433
422.494	0.0427
422.814	0.0424
423.134	0.0431
423.453	0.0428
423.773	0.0431
424.092	0.0431
424.411	0.0427
424.731	0.0438
425.05	0.0424
425.369	0.043
425.688	0.0435
426.007	0.0431
426.326	0.0436
426.644	0.0431
426.963	0.0436
427.282	0.0429
427.6	0.0433
427.919	0.0429
428.237	0.0426
428.556	0.0436
428.874	0.0433
429.192	0.0443
429.51	0.0442
429.828	0.0434
430.146	0.0432
430.464	0.043
430.782	0.0433
431.1	0.0437
431.418	0.0436
431.735	0.0433
432.053	0.0441
432.37	0.0435
432.688	0.0437
433.005	0.0436
433.322	0.0433
433.639	0.0434
433.957	0.044
434.274	0.0437
434.591	0.044
434.907	0.0435
435.224	0.0441
435.541	0.0434
435.858	0.0443
436.174	0.0446
436.491	0.0433
436.807	0.0426
437.124	0.0433
437.44	0.0435
437.756	0.043
438.072	0.0435
438.388	0.0433
438.704	0.0429
439.02	0.0432
439.336	0.043
439.652	0.0423
439.968	0.0423
440.283	0.0423
440.599	0.0424
440.914	0.0429
441.23	0.0431
441.545	0.043
441.86	0.0428
442.175	0.0424
442.491	0.043
442.806	0.0421
443.121	0.0426
443.435	0.0418
443.75	0.0422
444.065	0.0422
444.38	0.0425
444.694	0.0423
445.009	0.0415
445.323	0.0424
445.638	0.0412
445.952	0.0421
446.266	0.0422
446.58	0.0414
446.894	0.0419
447.208	0.0416
447.522	0.0412
447.836	0.0412
448.15	0.0403
448.464	0.0412
448.777	0.0412
449.091	0.0409
449.404	0.0404
449.718	0.0404
450.031	0.0405
450.345	0.0397
450.658	0.0402
450.971	0.0404
451.284	0.0403
451.597	0.0398
451.91	0.0394
452.223	0.0399
452.535	0.0393
452.848	0.0401
453.161	0.0393
453.473	0.0396
453.786	0.0389
454.098	0.0384
454.411	0.0391
454.723	0.0378
455.035	0.038
455.347	0.0371
455.659	0.0374
455.971	0.0376
456.283	0.0373
456.595	0.0377
456.907	0.0376
457.218	0.0373
457.53	0.0355
457.841	0.0373
458.153	0.0371
458.464	0.0372
458.776	0.0363
459.087	0.0367
459.398	0.0364
459.709	0.036
460.02	0.0358
460.331	0.0351
460.642	0.0361
460.953	0.0346
461.263	0.034
461.574	0.0345
461.885	0.0338
462.195	0.0345
462.506	0.0342
462.816	0.0334
463.126	0.0343
463.437	0.0336
463.747	0.0332
464.057	0.0333
464.367	0.0332
464.677	0.0323
464.987	0.0319
465.296	0.0322
465.606	0.0314
465.916	0.0313
466.225	0.0314
466.535	0.0314
466.844	0.0317
467.154	0.0311
467.463	0.0307
467.772	0.0312
468.081	0.0302
468.39	0.0301
468.699	0.0303
469.008	0.0299
469.317	0.0287
469.626	0.0282
469.935	0.0284
470.243	0.0282
470.552	0.028
470.86	0.0286
471.169	0.0283
471.477	0.0285
471.785	0.0281
472.093	0.0275
472.402	0.0268
472.71	0.0277
473.018	0.0264
473.326	0.0266
473.633	0.0274
473.941	0.0265
474.249	0.0259
474.556	0.0272
474.864	0.027
475.171	0.0256
475.479	0.0257
475.786	0.0254
476.094	0.0244
476.401	0.0244
476.708	0.0247
477.015	0.0246
477.322	0.0241
477.629	0.0237
477.936	0.0246
478.242	0.0226
478.549	0.0236
478.856	0.0236
479.162	0.0222
479.469	0.0224
479.775	0.0229
480.081	0.0224
480.388	0.0221
480.694	0.0219
481	0.0215
481.306	0.0212
481.612	0.021
481.918	0.021
482.224	0.0207
482.53	0.021
482.835	0.021
483.141	0.0199
483.446	0.0198
483.752	0.0196
484.057	0.0195
484.363	0.0194
484.668	0.0191
484.973	0.0179
485.278	0.0179
485.583	0.0185
485.888	0.0178
486.193	0.017
486.498	0.0172
486.803	0.0174
487.107	0.0172
487.412	0.0172
487.717	0.0168
488.021	0.0171
488.325	0.0173
488.63	0.0166
488.934	0.0168
489.238	0.0163
489.542	0.015
489.846	0.0157
490.15	0.0157
490.454	0.0156
490.758	0.0148
491.062	0.0149
491.366	0.0141
491.669	0.0147
491.973	0.0148
492.276	0.0143
492.58	0.0139
492.883	0.0133
493.186	0.0134
493.489	0.0135
493.792	0.0115
494.096	0.0123
494.399	0.0131
494.701	0.0128
495.004	0.0113
495.307	0.0117
495.61	0.0117
495.912	0.0118
496.215	0.011
496.517	0.011
496.82	0.0122
497.122	0.0104
497.424	0.0114
497.727	0.0107
498.029	0.0097
498.331	0.0109
498.633	0.01
498.935	0.0106
499.237	0.01
499.538	0.0096
499.84	0.0087
500.142	0.0093
500.443	0.0084
500.745	0.009
501.046	0.008
501.348	0.0084
501.649	0.0075
501.95	0.0078
502.251	0.008
502.552	0.0082
502.853	0.0077
503.154	0.0074
503.455	0.0071
503.756	0.0072
504.057	0.0082
504.357	0.0068
504.658	0.0074
504.958	0.0078
505.259	0.0067
505.559	0.0057
505.859	0.0066
506.16	0.0061
506.46	0.006
506.76	0.0066
507.06	0.0056
507.36	0.0057
507.66	0.0056
507.96	0.006
508.259	0.0054
508.559	0.0066
508.859	0.0048
509.158	0.0048
509.457	0.0042
509.757	0.0051
510.056	0.0048
510.355	0.0044
510.655	0.0048
510.954	0.0046
511.253	0.0043
511.552	0.0042
511.851	0.0049
512.149	0.0035
512.448	0.0043
512.747	0.0035
513.045	0.0034
513.344	0.0036
513.642	0.0036
513.941	0.0023
514.239	0.0041
514.537	0.0025
514.836	0.0036
515.134	0.0025
515.432	0.0039
515.73	0.0032
516.028	0.0026
516.326	0.003
516.623	0.0023
516.921	0.0014
517.219	0.002
517.516	0.0023
517.814	0.0023
518.111	0.0024
518.409	0.0015
518.706	0.0014
519.003	0.0026
519.3	0.0016
519.597	0.0012
519.894	0.0015
520.191	0.001
520.488	0.0011
520.785	0.0005
521.082	0.0015
521.378	0.0011
521.675	0.0011
521.971	0.0009
522.268	0.0023
522.564	0.0011
522.861	0.0012
523.157	0.0012
523.453	0.0015
523.749	0.0006
524.045	0.0012
524.341	0.0017
524.637	0.0001
524.933	0.0004
525.229	0.001
525.524	0
525.82	0
526.115	0.0009
526.411	0.0004
526.706	0.0006
527.002	0.0008
527.297	-0.0003
527.592	-0.0009
527.887	0.0023
528.182	0.001
528.477	0.0009
528.772	0.0003
529.067	0.0004
529.362	0.0002
529.657	0.0016
529.951	0.0007
530.246	0.0002
530.54	-0.0003
530.835	0.0001
531.129	-0.0001
531.423	-0.0002
531.718	0.0004
532.012	-0.0009
532.306	-0.0002
532.6	-0.0011
532.894	-0.0003
533.188	0.0008
533.482	-0.0001
533.775	0.0006
534.069	-0.0007
534.363	-0.0017
534.656	-0.0019
534.95	0.0002
535.243	-0.0013
535.536	0.0003
535.83	-0.0015
536.123	0.0004
536.416	-0.0007
536.709	-0.0001
537.002	-0.0011
537.295	-0.0006
537.588	-0.0012
537.881	-0.0012
538.173	-0.0019
538.466	-0.0009
538.759	-0.0002
539.051	0
539.344	-0.0002
539.636	-0.0008
539.928	-0.0001
540.22	0.0001
540.513	-0.0002
540.805	0.0004
541.097	-0.0019
541.389	-0.0005
541.681	0.0003
541.972	0.0008
542.264	-0.0009
542.556	-0.0001
542.847	0.0011
543.139	0.0012
543.431	-0.0006
543.722	0.0001
544.013	0.0014
544.305	0.0001
544.596	-0.0008
544.887	-0
545.178	0.0007
545.469	-0.0008
545.76	-0.0014
546.051	0.0004
546.342	-0.0005
546.632	-0.0009
546.923	-0.0008
547.214	-0.001
547.504	-0.0003
547.795	-0.0006
548.085	-0.0021
548.375	-0.0002
548.666	-0.0014
548.956	-0.0006
549.246	-0.0003
549.536	-0.0011
549.826	-0.0005
550.116	-0.0008
550.406	-0.0014
550.695	-0.0016
550.985	0.0003
551.275	-0.0008
551.564	-0.0012
551.854	-0.0005
552.143	-0.0012
552.433	-0.0015
552.722	-0.0014
553.011	-0.0004
553.3	-0.0004
553.589	-0.0003
553.879	-0.0002
554.167	0.0004
554.456	0.0004
554.745	0.0003
555.034	-0.001
555.323	0.0003
555.611	-0.0007
555.9	-0.0005
556.188	-0.0023
556.477	-0.0002
556.765	-0.0024
557.053	-0.0015
557.342	-0.0001
557.63	-0.0011
557.918	-0.0006
558.206	-0.0004
558.494	0.0001
558.782	-0.0001
559.069	0.0009
559.357	-0.0001
559.645	-0.0002
559.932	0.0002
560.22	-0.0002
560.507	-0.0013
560.795	-0.0019
561.082	-0.0024
561.37	-0.0001
561.657	-0.0009
561.944	-0.0008
562.231	-0.0003
562.518	-0.0002
562.805	-0.0004
563.092	0.0004
563.379	0.0003
563.665	0.001
563.952	0.0002
564.239	0.0008
564.525	0.001
564.811	0.0016
565.098	-0.0001
565.384	-0.0012
565.67	-0.0003
565.957	0.0014
566.243	0.0014
566.529	-0.0004
566.815	0.0003
567.101	0.0014
567.387	0.0007
567.672	-0.0003
567.958	0.0007
568.244	0.0007
568.529	0.0003
568.815	-0.0005
569.1	-0.001
569.386	-0.0002
569.671	-0.0005
569.956	-0.0006
570.242	-0.0003
570.527	-0.0006
570.812	0.0012
571.097	0.0001
571.382	-0.0007
571.666	0.0005
571.951	-0.0005
572.236	-0.0001
572.521	0.0004
572.805	0.0001
573.09	-0.0002
573.374	-0.0009
573.659	-0.0006
573.943	0
574.227	-0.0002
574.511	-0.0006
574.795	0.0003
575.079	0.0001
575.363	-0.0004
575.647	-0.0004
575.931	0.0004
576.215	-0.0008
576.499	-0.0014
576.782	-0.0009
577.066	-0
577.349	0.0004
577.633	-0.0007
577.916	-0.0012
578.2	-0.0002
578.483	-0.0004
578.766	0.0008
579.049	0.0001
579.332	0.0009
579.615	-0.0001
579.898	0
580.181	0.0011
580.464	0.0013
580.746	0.0001
581.029	-0.0005
581.312	-0.0003
581.594	-0.0016
581.877	-0.0013
582.159	-0.0006
582.441	-0.0007
582.724	-0.0002
583.006	0.0012
583.288	0.0004
583.57	0.0009
583.852	0.0004
584.134	0
584.416	0.0003
584.697	-0.0001
584.979	-0.001
585.261	-0.0017
585.542	-0.0005
585.824	-0.0008
586.105	-0.0011
586.387	-0.0006
586.668	0.0001
586.949	-0
587.231	0.0004
587.512	-0.0001
587.793	0.0002
588.074	-0.0007
588.355	0.0006
588.636	-0
588.916	-0.0007
589.197	0.001
589.478	0
589.758	0.0003
590.039	0.0003
590.319	0.0001
590.6	0.0012
590.88	0.001
591.16	0.0007
591.441	0.0015
591.721	0.0006
592.001	0
592.281	-0.0007
592.561	-0.0001
592.841	-0.0017
593.12	-0.0019
593.4	-0.0008
593.68	-0.0019
593.959	-0.0009
594.239	-0.0005
594.518	-0.0003
594.798	0.0005
595.077	-0.001
595.356	-0.0006
595.636	-0.0002
595.915	-0.0003
596.194	0.0007
596.473	0.0004
596.752	0.0006
597.031	-0
597.31	0.0008
597.588	-0.0003
597.867	0
598.146	-0.0005
598.424	-0.0001
598.703	0.0002
598.981	-0.002
599.259	-0.0013
599.538	-0.0001
599.816	-0.0002
600.094	-0.0009
600.372	-0.0015
600.65	-0.0015
600.928	-0
601.206	-0.0002
601.484	-0.0006
601.762	0.0001
602.04	0.0001
602.317	-0.0013
602.595	-0.0004
602.872	0.0004
603.15	0.0009
603.427	-0.002
603.704	-0.0019
603.982	-0.0002
604.259	-0.0005
604.536	-0
604.813	0.0001
605.09	-0.0004
605.367	-0.0005
605.644	-0.001
605.921	0.0004
606.197	-0.0012
606.474	0.0002
606.751	-0.0001
607.027	-0.0009
607.304	-0.0009
607.58	-0.0007
607.856	-0.0013
608.133	-0.0013
608.409	-0.0006
608.685	-0.0008
608.961	-0.0003
609.237	-0.0013
609.513	-0.0007
609.789	-0.0008
610.065	-0.0012
610.341	-0.0016
610.616	-0.0004
610.892	0.0008
611.167	0.0009
611.443	0.0006
611.718	-0.0001
611.994	0.001
612.269	0.0003
612.544	-0.0001
612.819	-0.001
613.095	0
613.37	0.0011
613.645	-0.0011
613.919	-0.0011
614.194	0
614.469	0.0002
614.744	-0.0007
615.019	-0.0008
615.293	-0.0007
615.568	-0.0004
615.842	0.0004
616.116	0.001
616.391	0.001
616.665	0.0002
616.939	0.0002
617.213	0.0008
617.488	0.0006
617.762	0.0003
618.035	-0.001
618.309	-0.0014
618.583	0.0008
618.857	0.0013
619.131	0.0009
619.404	-0.0003
619.678	0.0012
619.951	-0.0006
620.225	-0.0004
620.498	0.0001
620.771	0.0002
621.045	-0.0006
621.318	-0.0002
621.591	-0.0016
621.864	-0.0017
622.137	-0.0025
622.41	-0.0012
622.683	-0.0004
622.956	0.0001
623.228	-0.0004
623.501	0.0002
623.774	0.0007
624.046	-0.0001
624.319	-0.0007
624.591	-0.0014
624.863	-0.0008
625.136	0.0002
625.408	0.0007
625.68	-0.0004
625.952	0.0007
626.224	0.0008
626.496	0.0017
626.768	0.0001
627.04	0.0002
627.311	-0.0008
627.583	0.0001
627.855	0.0013
628.126	0.0009
628.398	0.0015
628.669	0.0027
628.941	0.0028
629.212	0.0012
629.483	0.0009
629.755	0.0004
630.026	0.0004
630.297	0.0011
630.568	0.0004
630.839	0.0009
631.11	0.0007
631.38	0.0018
631.651	0.0013
631.922	0.0013
632.192	0
632.463	0.0005
632.733	0.0003
633.004	0.0004
633.274	0.0019
633.545	0.0017
633.815	0.0008
634.085	-0.0003
634.355	-0.0015
634.625	-0.0012
634.895	-0.0004
635.165	-0.0007
635.435	-0.0021
635.705	-0.0011
635.974	-0.0008
636.244	-0.0001
636.514	0.0011
636.783	-0.0005
637.053	-0.0003
637.322	0.0003
637.591	0.001
637.861	-0.0015
638.13	-0.0013
638.399	-0.001
638.668	-0.0006
638.937	-0.0016
639.206	-0.0016
639.475	-0.0017
639.744	-0.0015
640.013	-0.0001
640.281	-0.0001
640.55	0.0006
640.819	-0.0001
641.087	-0.0001
641.356	-0
641.624	0.0017
641.892	0.002
642.161	0.0009
642.429	0.0016
642.697	-0.0006
642.965	0.0006
643.233	-0.0012
643.501	-0.0009
643.769	-0.0005
644.037	-0.0004
644.305	-0.0004
644.572	0.001
644.84	-0.0011
645.108	-0.0015
645.375	-0.0012
645.643	-0.0001
645.91	0.0012
646.177	0.0027
646.445	0.0025
646.712	0.0035
646.979	0.0047
647.246	0.0044
647.513	0.0037
647.78	0.0023
648.047	0.0009
648.314	-0.0008
648.58	-0.0002
648.847	0.0009
649.114	0.0013
649.38	0.0012
649.647	0.0003
649.913	0.0003
650.18	0.0008
650.446	0.0015
650.712	-0.0006
650.978	0.0003
651.245	-0.0004
651.511	-0.0002
651.777	0.0002
652.043	-0.0005
652.309	0.0011
652.574	0.0025
652.84	0.0019
653.106	0.0018
653.371	0.0027
653.637	0.0025
653.903	0.0031
654.168	0.0041
654.433	0.004
654.699	0.004
654.964	0.0052
655.229	0.0025
655.494	0.0014
655.759	-0.0027
656.024	0.0002
656.289	-0
656.554	0.0025
656.819	0.0013
657.084	0.0005
657.349	0.0006
657.613	0.0009
657.878	0.0001
658.142	0.0001
658.407	0.0007
658.671	0.0009
658.936	0.0009
659.2	0.0013
659.464	0.0012
659.728	0.0017
659.992	0.0006
660.256	0.001
660.52	-0.0001
660.784	-0.001
661.048	0.0001
661.312	-0.0001
661.575	-0
661.839	0.0009
662.103	-0.0004
662.366	-0.0004
662.63	-0.0011
662.893	-0.0011
663.156	-0.0008
663.42	-0.0016
663.683	-0.0028
663.946	-0.0023
664.209	-0.0025
664.472	-0.0029
664.735	-0.0015
664.998	-0.0002
665.261	-0.0012
665.524	-0.0016
665.786	-0.0013
666.049	-0.0004
666.312	-0.0005
666.574	-0.0015
666.837	-0.0002
667.099	0.0007
667.361	0.0001
667.624	-0.0002
667.886	-0.0015
668.148	-0.0007
668.41	-0.0003
668.672	-0.0004
668.934	0.0006
669.196	0.0003
669.458	0.0015
669.72	0.0015
669.982	0.0018
670.243	0.0012
670.505	0.0005
670.766	0.0017
671.028	0.0008
671.289	-0.0007
671.551	-0.0002
671.812	-0.0012
672.073	0
672.334	0.0002
672.596	-0.0008
672.857	-0.001
673.118	0.0002
673.379	-0.0009
673.639	-0.0012
673.9	-0.0015
674.161	-0.0009
674.422	-0.0013
674.682	-0.0011
674.943	-0.0007
675.203	-0
675.464	-0.001
675.724	-0.0025
675.985	-0.0021
676.245	-0.0017
676.505	-0.0016
676.765	-0.0015
677.025	-0
677.285	0.0002
677.545	0.0005
677.805	0.0007
678.065	0.0003
678.325	0.0012
678.585	-0.0002
678.844	-0.0014
679.104	-0.0007
679.363	-0.0024
679.623	-0.0027
679.882	-0.0017
680.142	-0.001
680.401	-0.0011
680.66	0.0008
680.919	0.0015
681.178	0.0018
681.437	0.0006
681.696	-0.0004
681.955	0.0006
682.214	0.0011
682.473	-0.0001
682.732	-0.0015
682.99	0
683.249	-0
683.508	0
683.766	-0.0018
684.024	-0.0017
684.283	-0.0005
684.541	0.0002
684.799	-0.0009
685.058	0.0006
685.316	-0.0014
685.574	-0.0013
685.832	-0.0009
686.09	-0.0006
686.348	-0.002
686.606	-0.0015
686.863	-0.0023
687.121	-0.0005
687.379	0.0001
687.636	-0.0002
687.894	0.0012
688.151	0.0005
688.409	0
688.666	-0.0014
688.923	-0.0013
689.181	-0.0016
689.438	-0.0011
689.695	-0.0014
689.952	-0.0023
690.209	-0.0019
690.466	-0.0014
690.723	-0.0009
690.979	-0.0013
691.236	-0.002
691.493	-0.0001
691.75	-0.0003
692.006	-0.0005
692.263	-0.0005
692.519	-0.0013
692.775	-0.0005
693.032	-0.0009
693.288	-0.0006
693.544	-0.0009
693.8	-0.0007
694.056	-0.0011
694.313	-0.0015
694.568	-0.0005
694.824	-0.0007
695.08	-0.0014
695.336	-0.0033
695.592	-0.0032
695.847	-0.0012
696.103	-0.0014
696.359	-0.001
696.614	-0.0022
696.869	-0.0029
697.125	-0.0047
697.38	-0.0021
697.635	-0.0014
697.891	-0.0007
698.146	0.0003
698.401	-0.0006
698.656	-0.0017
698.911	-0.0002
699.166	-0.001
699.42	0.0011
699.675	-0.0002
699.93	-0
700.185	-0.001
700.439	-0.0004
700.694	-0.0005
700.948	-0.0014
701.203	-0.0015
701.457	-0.0012
701.711	-0.0021
701.965	-0.002
702.22	-0.0024
702.474	-0.0022
702.728	-0.0022
702.982	-0.0022
703.236	-0.0016
703.49	-0.001
703.743	-0.0015
703.997	-0.0014
704.251	-0.0013
704.504	-0.0018
704.758	-0.0017
705.012	-0.0006
705.265	-0.0005
705.518	0.0006
705.772	0.0004
706.025	-0.0007
706.278	-0.0006
706.531	-0.0022
706.785	-0.0021
707.038	-0.0032
707.291	-0.0011
707.543	-0.0022
707.796	-0.0018
708.049	-0.0025
708.302	-0.003
708.555	-0.0027
708.807	-0.0016
709.06	-0.0036
709.312	-0.0021
709.565	-0.0022
709.817	-0.0028
710.069	-0.0031
710.322	-0.003
710.574	-0.0041
710.826	-0.0042
711.078	-0.0036
711.33	-0.0025
711.582	-0.003
711.834	-0.0038
712.086	-0.0039
712.338	-0.0044
712.59	-0.0041
712.841	-0.0058
713.093	-0.0044
713.344	-0.0053
713.596	-0.0047
713.847	-0.0027
714.099	-0.0027
714.35	-0.0024
714.601	-0.0029
714.853	-0.0021
715.104	-0.0025
715.355	-0.0025
715.606	-0.0017
715.857	-0.0014
716.108	-0.0023
716.359	-0.0015
716.609	-0.0023
716.86	-0.0021
717.111	-0.0015
717.361	-0.0007
717.612	-0.0001
717.863	0.0004
718.113	0.002
718.363	-0.0001
718.614	0.0019
718.864	0.0021
719.114	0.0014
719.364	0.0014
719.614	0.001
719.865	0.0025
720.114	0.0021
720.364	0.0021
720.614	0.0028
720.864	0.0014
721.114	0.0017
721.364	0.0013
721.613	0.0013
721.863	0.0009
722.112	0.001
722.362	0
722.611	-0.0009
722.86	-0.0004
723.11	-0.0004
723.359	-0.0003
723.608	-0.0011
723.857	-0.0009
724.106	0.0002
724.355	0.0004
724.604	0.0002
724.853	0.0004
725.102	-0.0017
725.351	-0.0014
725.599	-0.0021
725.848	-0.0018
726.097	-0.0007
726.345	-0.0016
726.594	-0.0024
726.842	-0.0014
727.09	-0.0036
727.339	-0.005
727.587	-0.0052
727.835	-0.0051
728.083	-0.0038
728.331	-0.004
728.579	-0.0025
728.827	-0.0025
729.075	-0.0019
729.323	-0.0019
729.571	-0.0016
729.818	-0.0015
730.066	-0.0014
730.314	-0.0019
730.561	0.0007
730.809	-0.0002
731.056	-0.0003
731.303	0.0012
731.551	0.0004
731.798	0.0003
732.045	0.0003
732.292	0.0015
732.539	0.0006
732.786	0.0008
733.033	0.0009
733.28	0.0004
733.527	0.0005
733.774	-0.0005
734.021	-0.0017
734.267	-0.0021
734.514	-0.0038
734.76	-0.003
735.007	-0.0031
735.253	-0.0042
735.5	-0.0039
735.746	-0.004
735.992	-0.0024
736.238	-0.0017
736.485	-0.0008
736.731	-0.0014
736.977	-0.0025
737.223	-0.0013
737.469	-0.0013
737.715	-0.0006
737.96	-0.0016
738.206	-0.0023
738.452	-0.0022
738.697	-0.002
738.943	-0.002
739.189	-0.0027
739.434	-0.0016
739.679	-0.002
739.925	-0.0023
740.17	-0.0034
740.415	-0.0029
740.66	-0.0036
740.906	-0.0033
741.151	-0.0033
741.396	-0.0038
741.641	-0.0039
741.886	-0.0044
742.13	-0.0027
742.375	-0.002
742.62	-0.0035
742.865	-0.0029
743.109	-0.0016
743.354	-0.0009
743.598	-0.0003
743.843	0.0008
744.087	0.0013
744.331	0.0015
744.576	0.0019
744.82	0.003
745.064	0.0029
745.308	0.0031
745.552	0.0027
745.796	0.0008
746.04	0.0013
746.284	0.0006
746.528	0.0019
746.771	0.0026
747.015	0.0025
747.259	0.0023
747.502	0.0008
747.746	0.0005
747.989	0.0012
748.233	0.0002
748.476	0.0015
748.719	0.0021
748.963	0.003
749.206	0.0034
749.449	0.001
749.692	0.0011
749.935	0.0019
750.178	-0.0001
750.421	0.0008
750.664	0.0006
750.906	0.0018
751.149	0.0017
751.392	0.0007
751.635	-0.0003
751.877	-0.0003
752.12	-0.0002
752.362	-0.0013
752.604	-0.0006
752.847	0.0006
753.089	0.0018
753.331	0.0022
753.573	0.0014
753.816	0.0002
754.058	-0.0006
754.3	-0.002
754.542	-0.0012
754.783	-0.0027
755.025	-0.0017
755.267	-0.0012
755.509	-0.0019
755.75	-0.0024
755.992	-0.0007
756.234	-0.0022
756.475	-0.0021
756.716	-0.0028
756.958	-0.0029
757.199	-0.0021
757.44	-0.0023
757.682	-0.0023
757.923	-0.0008
758.164	-0.0003
758.405	-0.0004
758.646	0.0012
758.887	0.0008
759.128	0.0004
759.369	0.0001
759.609	0.001
759.85	0.0012
760.091	0.0014
760.331	0.0011
760.572	-0.0009
760.812	-0.0009
761.053	-0.0011
761.293	-0.0014
761.533	-0.0008
761.774	0.0006
762.014	0.0002
762.254	-0.0002
762.494	-0.0012
762.734	-0.0011
762.974	-0.0024
763.214	-0.0014
763.454	-0.0022
763.694	-0.0017
763.933	-0.0031
764.173	-0.0045
764.413	-0.0053
764.652	-0.0054
764.892	-0.0043
765.131	-0.0039
765.371	-0.0036
765.61	-0.0038
765.849	-0.0038
766.089	-0.0023
766.328	-0.002
766.567	-0.0019
766.806	-0.0021
767.045	-0.0008
767.284	-0.0019
767.523	-0.0023
767.762	-0.0026
768.001	-0.0026
768.239	-0.0026
768.478	-0.0007
768.717	-0.001
768.955	-0.001
769.194	-0.0015
769.432	-0.0003
769.671	0.0007
769.909	0.0006
770.148	0.0003
770.386	0.0015
770.624	0.0016
770.862	0.0019
771.1	0.0029
771.338	0.002
771.576	0.0018
771.814	0.0021
772.052	0.0027
772.29	0.0033
772.528	0.0036
772.765	0.0049
773.003	0.0047
773.24	0.0045
773.478	0.0031
773.716	0.0036
773.953	0.0034
774.19	0.0033
774.428	0.0046
774.665	0.0048
774.902	0.005
775.139	0.0047
775.376	0.0033
775.613	0.0034
775.85	0.0023
776.087	0.0006
776.324	0.0009
776.561	0.0008
776.798	-0.0005
777.034	0.0001
777.271	0.001
777.508	0.0009
777.744	0.0016
777.981	0.0024
778.217	0.003
778.454	0.0011
778.69	0.0003
778.926	-0
779.162	0.0004
779.399	0.0005
779.635	-0.0004
779.871	0.0005
780.107	0.0007
780.343	-0.0005
780.579	0
780.814	0.0001
781.05	0.0005
781.286	-0.0008
781.522	0.0002
781.757	0.0004
781.993	0.0009
782.228	0.0002
782.464	0.0011
782.699	-0.0009
782.934	-0.0009
783.17	0.0003
783.405	-0.001
783.64	-0.0016
783.875	-0.0021
784.11	-0.0017
784.345	-0.0007
784.58	-0
784.815	0.0004
785.05	-0.0009
785.285	-0.0017
785.52	-0.0018
785.754	-0.0029
785.989	-0.0039
786.223	-0.0051
786.458	-0.0039
786.692	-0.0031
786.927	-0.0022
787.161	-0.0019
787.396	-0.0022
787.63	-0.0028
787.864	-0.0038
788.098	-0.004
788.332	-0.0041
788.566	-0.0029
788.8	-0.003
789.034	-0.0025
789.268	-0.0022
789.502	-0.0018
789.736	-0.0015
789.969	-0.0025
790.203	-0.0022
790.437	-0.0034
790.67	-0.0038
790.904	-0.005
791.137	-0.0052
791.37	-0.0045
791.604	-0.0062
791.837	-0.0062
792.07	-0.0054
792.303	-0.0055
792.537	-0.0058
792.77	-0.006
793.003	-0.0056
793.236	-0.0055
793.469	-0.005
793.701	-0.0043
793.934	-0.0039
794.167	-0.0031
794.4	-0.0025
794.632	-0.0015
794.865	-0.001
795.097	-0.001
795.33	-0.0022
795.562	-0.0008
795.795	-0.001
796.027	-0.0004
796.259	-0.0011
796.491	-0.0012
796.724	-0.0011
796.956	-0.0004
797.188	-0.0001
797.42	-0.0002
797.652	-0.0008
797.883	0.0001
798.115	0.0015
798.347	0.0015
798.579	0.003
798.81	0.0033
799.042	0.0034
799.274	0.002
799.505	0.0023
799.737	0.0019
799.968	0.0002
800.199	0.0003
800.431	0.0002
800.662	-0.0002
800.893	-0.0002
801.124	0.0002
801.355	-0.0006
801.586	0.0001
801.817	-0.0013
802.048	-0.0025
802.279	-0.0023
802.51	-0.001
802.741	-0.0011
802.971	-0.0004
803.202	0.0003
803.433	0.0002
803.663	-0.0003
803.894	0.0003
804.124	-0.0003
804.354	0.0005
804.585	0.0003
804.815	0.0009
805.045	0.0001
805.275	0.0012
805.506	-0.0571
805.736	0.0639
805.966	0.1657
806.196	0.0518
