Data from 03 0.5 mM K2Cr2O7 0.3 mM BQDS 1 M H2SO4 5 min_Absorbance_0033.txt Node
Date: Mon Dec 13 20:24:44 EST 2021
User: kwabilab-user
Spectrometer: HDX00518
Trigger mode: 0
Integration Time (sec): 5.000000E-2
Scans to average: 50
Nonlinearity correction enabled: false
Boxcar width: 0
Storing dark spectrum: false
XAxis mode: Wavelengths
Number of Pixels in Spectrum: 2068
>>>>>Begin Spectral Data<<<<<
195.27	0.0446
195.642	0.0203
196.014	-0.0342
196.386	0.2033
196.758	0.0069
197.129	0.0023
197.501	0.0177
197.872	0.013
198.244	0.0368
198.615	0.061
198.986	0.0563
199.357	0.0619
199.728	0.0577
200.099	0.0429
200.47	0.0471
200.841	0.0578
201.212	0.0689
201.582	0.0841
201.953	0.0483
202.323	0.0705
202.694	0.0628
203.064	0.0388
203.434	0.0569
203.804	0.0567
204.174	0.0502
204.544	0.0501
204.914	0.0693
205.284	0.057
205.653	0.0395
206.023	0.064
206.393	0.0505
206.762	0.0545
207.131	0.0659
207.501	0.0571
207.87	0.0632
208.239	0.0731
208.608	0.0769
208.977	0.0567
209.346	0.0603
209.715	0.072
210.083	0.0317
210.452	0.0635
210.82	0.075
211.189	0.0495
211.557	0.0799
211.925	0.0582
212.294	0.0553
212.662	0.0715
213.03	0.0652
213.398	0.077
213.766	0.0741
214.133	0.066
214.501	0.1022
214.869	0.0772
215.236	0.0837
215.604	0.0803
215.971	0.0892
216.338	0.1146
216.705	0.1076
217.072	0.1203
217.439	0.0895
217.806	0.0833
218.173	0.0919
218.54	0.0817
218.907	0.119
219.273	0.1412
219.64	0.1176
220.006	0.1382
220.373	0.1423
220.739	0.1464
221.105	0.17
221.471	0.1753
221.837	0.2156
222.203	0.2261
222.569	0.2408
222.935	0.2677
223.3	0.2429
223.666	0.3164
224.031	0.3062
224.397	0.3271
224.762	0.3524
225.127	0.3843
225.493	0.3941
225.858	0.4388
226.223	0.4523
226.588	0.501
226.952	0.4818
227.317	0.5245
227.682	0.5341
228.046	0.5407
228.411	0.5755
228.775	0.581
229.14	0.5817
229.504	0.6063
229.868	0.6379
230.232	0.6271
230.596	0.6548
230.96	0.6791
231.324	0.6674
231.688	0.6796
232.052	0.7041
232.415	0.6956
232.779	0.7102
233.142	0.7051
233.505	0.7366
233.869	0.7516
234.232	0.7448
234.595	0.7254
234.958	0.7278
235.321	0.7338
235.684	0.7377
236.047	0.7391
236.409	0.7238
236.772	0.7457
237.134	0.7382
237.497	0.7398
237.859	0.7638
238.222	0.7481
238.584	0.741
238.946	0.7334
239.308	0.7445
239.67	0.7414
240.032	0.7535
240.393	0.7413
240.755	0.736
241.117	0.7442
241.478	0.7316
241.84	0.7414
242.201	0.7336
242.562	0.7192
242.924	0.7336
243.285	0.7201
243.646	0.7163
244.007	0.7235
244.368	0.7353
244.728	0.7272
245.089	0.7234
245.45	0.713
245.81	0.7198
246.171	0.7192
246.531	0.7127
246.891	0.7157
247.252	0.7167
247.612	0.7071
247.972	0.7207
248.332	0.7094
248.692	0.7172
249.051	0.7229
249.411	0.717
249.771	0.7115
250.13	0.7108
250.49	0.717
250.849	0.7224
251.208	0.7137
251.568	0.7114
251.927	0.7169
252.286	0.7158
252.645	0.7172
253.004	0.7214
253.363	0.7162
253.721	0.7224
254.08	0.7163
254.439	0.7103
254.797	0.7114
255.155	0.7109
255.514	0.7127
255.872	0.7125
256.23	0.7085
256.588	0.7126
256.946	0.715
257.304	0.7137
257.662	0.715
258.02	0.7163
258.377	0.7097
258.735	0.7101
259.093	0.7021
259.45	0.7093
259.807	0.7098
260.165	0.7133
260.522	0.7062
260.879	0.7058
261.236	0.7014
261.593	0.7037
261.95	0.7007
262.306	0.6972
262.663	0.689
263.02	0.6921
263.376	0.6915
263.733	0.6829
264.089	0.686
264.445	0.683
264.802	0.689
265.158	0.6844
265.514	0.6771
265.87	0.6735
266.226	0.6772
266.581	0.6731
266.937	0.6714
267.293	0.6684
267.648	0.6647
268.004	0.6609
268.359	0.6599
268.714	0.6596
269.07	0.6479
269.425	0.6482
269.78	0.6459
270.135	0.6427
270.49	0.6483
270.844	0.639
271.199	0.6424
271.554	0.637
271.908	0.6205
272.263	0.6274
272.617	0.6203
272.972	0.6187
273.326	0.61
273.68	0.6131
274.034	0.6054
274.388	0.6046
274.742	0.6014
275.096	0.5978
275.45	0.594
275.803	0.5909
276.157	0.5873
276.51	0.5819
276.864	0.5761
277.217	0.5742
277.571	0.5728
277.924	0.5645
278.277	0.5624
278.63	0.5515
278.983	0.5464
279.336	0.542
279.688	0.5432
280.041	0.5342
280.394	0.5315
280.746	0.5248
281.099	0.5202
281.451	0.5143
281.803	0.509
282.156	0.5027
282.508	0.5018
282.86	0.4938
283.212	0.4875
283.564	0.4829
283.916	0.4786
284.267	0.4748
284.619	0.4689
284.971	0.4648
285.322	0.4618
285.673	0.4561
286.025	0.4487
286.376	0.4456
286.727	0.4419
287.078	0.4346
287.429	0.431
287.78	0.4278
288.131	0.4219
288.482	0.4188
288.833	0.4107
289.183	0.4048
289.534	0.4016
289.884	0.3963
290.235	0.3905
290.585	0.3866
290.935	0.3804
291.285	0.375
291.635	0.372
291.985	0.3663
292.335	0.3626
292.685	0.3585
293.035	0.3536
293.384	0.3476
293.734	0.3437
294.083	0.3385
294.433	0.3327
294.782	0.3278
295.131	0.3244
295.48	0.3177
295.829	0.3151
296.179	0.3113
296.527	0.3061
296.876	0.3017
297.225	0.2981
297.574	0.2936
297.922	0.2899
298.271	0.2842
298.619	0.2805
298.968	0.2754
299.316	0.2721
299.664	0.2687
300.012	0.2651
300.36	0.2604
300.708	0.2581
301.056	0.2536
301.404	0.2504
301.752	0.2492
302.099	0.2429
302.447	0.2408
302.794	0.237
303.142	0.2344
303.489	0.2304
303.836	0.2295
304.183	0.226
304.531	0.2236
304.878	0.2209
305.224	0.2197
305.571	0.2158
305.918	0.213
306.265	0.2117
306.611	0.2095
306.958	0.2074
307.304	0.2053
307.651	0.2037
307.997	0.2024
308.343	0.202
308.689	0.1993
309.035	0.1974
309.381	0.1974
309.727	0.1954
310.073	0.1947
310.419	0.1934
310.764	0.1916
311.11	0.191
311.455	0.1907
311.801	0.1904
312.146	0.1898
312.491	0.1887
312.837	0.1885
313.182	0.1879
313.527	0.1877
313.872	0.1867
314.216	0.1874
314.561	0.1871
314.906	0.1872
315.251	0.1879
315.595	0.1879
315.94	0.1879
316.284	0.1884
316.628	0.1885
316.972	0.1891
317.317	0.1897
317.661	0.1895
318.005	0.1903
318.348	0.192
318.692	0.1932
319.036	0.1926
319.38	0.1934
319.723	0.1939
320.067	0.1957
320.41	0.1967
320.754	0.1982
321.097	0.1992
321.44	0.1994
321.783	0.201
322.126	0.2027
322.469	0.203
322.812	0.205
323.155	0.2065
323.498	0.2074
323.84	0.2093
324.183	0.2102
324.525	0.2128
324.868	0.2146
325.21	0.2154
325.552	0.2187
325.894	0.2191
326.236	0.2205
326.578	0.2219
326.92	0.2236
327.262	0.2257
327.604	0.2271
327.946	0.2286
328.287	0.2306
328.629	0.2333
328.97	0.2343
329.312	0.2361
329.653	0.2375
329.994	0.2402
330.335	0.2411
330.676	0.244
331.017	0.2463
331.358	0.247
331.699	0.2496
332.04	0.2513
332.38	0.2526
332.721	0.2542
333.061	0.2571
333.402	0.2592
333.742	0.2607
334.083	0.2627
334.423	0.264
334.763	0.2658
335.103	0.2669
335.443	0.2692
335.783	0.2702
336.123	0.2717
336.462	0.2736
336.802	0.2753
337.141	0.2764
337.481	0.2776
337.82	0.2798
338.16	0.2804
338.499	0.2826
338.838	0.2842
339.177	0.286
339.516	0.2866
339.855	0.2883
340.194	0.2901
340.533	0.2907
340.872	0.2922
341.21	0.2938
341.549	0.2943
341.887	0.2952
342.226	0.2964
342.564	0.2973
342.902	0.2981
343.24	0.2986
343.578	0.2993
343.916	0.2997
344.254	0.2996
344.592	0.3003
344.93	0.3012
345.268	0.3015
345.605	0.3016
345.943	0.302
346.28	0.302
346.618	0.3028
346.955	0.3031
347.292	0.3028
347.629	0.3035
347.966	0.3033
348.303	0.3033
348.64	0.3044
348.977	0.3032
349.314	0.3043
349.65	0.3036
349.987	0.3051
350.324	0.3048
350.66	0.3036
350.996	0.3022
351.333	0.3018
351.669	0.3016
352.005	0.3007
352.341	0.3002
352.677	0.299
353.013	0.298
353.349	0.2966
353.685	0.2949
354.02	0.2932
354.356	0.2927
354.691	0.2914
355.027	0.2908
355.362	0.2897
355.697	0.2886
356.033	0.2881
356.368	0.286
356.703	0.2851
357.038	0.2843
357.373	0.2823
357.707	0.2825
358.042	0.2799
358.377	0.2796
358.711	0.2776
359.046	0.2767
359.38	0.2758
359.715	0.275
360.049	0.2732
360.383	0.2721
360.717	0.2692
361.051	0.2685
361.385	0.2675
361.719	0.2635
362.053	0.263
362.387	0.261
362.72	0.2592
363.054	0.2559
363.387	0.2544
363.721	0.2524
364.054	0.2493
364.387	0.2477
364.721	0.2461
365.054	0.244
365.387	0.2419
365.72	0.2399
366.053	0.2376
366.385	0.2354
366.718	0.2336
367.051	0.2322
367.383	0.2305
367.716	0.2289
368.048	0.2272
368.381	0.226
368.713	0.2243
369.045	0.2234
369.377	0.2208
369.709	0.2194
370.041	0.2177
370.373	0.2158
370.705	0.2134
371.037	0.2113
371.368	0.2094
371.7	0.2087
372.031	0.2058
372.363	0.2037
372.694	0.201
373.025	0.1987
373.356	0.1966
373.688	0.1948
374.019	0.1918
374.35	0.1895
374.68	0.1869
375.011	0.1842
375.342	0.183
375.673	0.1806
376.003	0.1777
376.334	0.1758
376.664	0.1741
376.995	0.1717
377.325	0.1696
377.655	0.1679
377.985	0.1659
378.315	0.1642
378.645	0.1624
378.975	0.161
379.305	0.1586
379.635	0.1588
379.964	0.1566
380.294	0.1545
380.623	0.1535
380.953	0.1519
381.282	0.1502
381.611	0.1482
381.941	0.1468
382.27	0.1447
382.599	0.1434
382.928	0.1412
383.257	0.1397
383.585	0.1376
383.914	0.1367
384.243	0.1335
384.571	0.1322
384.9	0.1294
385.228	0.1277
385.557	0.1257
385.885	0.1238
386.213	0.1216
386.541	0.12
386.869	0.1179
387.197	0.1159
387.525	0.1142
387.853	0.1116
388.181	0.1103
388.508	0.1088
388.836	0.1065
389.164	0.1053
389.491	0.1042
389.818	0.1025
390.146	0.1016
390.473	0.1005
390.8	0.0984
391.127	0.0969
391.454	0.0952
391.781	0.0947
392.108	0.0931
392.435	0.0921
392.761	0.0913
393.088	0.0893
393.415	0.0882
393.741	0.087
394.067	0.0867
394.394	0.0854
394.72	0.0844
395.046	0.083
395.372	0.0824
395.698	0.0816
396.024	0.0802
396.35	0.0793
396.676	0.0774
397.001	0.077
397.327	0.0753
397.653	0.0739
397.978	0.0729
398.303	0.0724
398.629	0.0706
398.954	0.0703
399.279	0.0686
399.604	0.0681
399.929	0.0672
400.254	0.0665
400.579	0.0655
400.904	0.0649
401.229	0.0642
401.553	0.063
401.878	0.0622
402.202	0.0619
402.527	0.061
402.851	0.0607
403.175	0.0597
403.5	0.0595
403.824	0.0588
404.148	0.0585
404.472	0.0571
404.796	0.0572
405.119	0.0563
405.443	0.0563
405.767	0.055
406.09	0.0555
406.414	0.0549
406.737	0.0546
407.061	0.0541
407.384	0.0544
407.707	0.0541
408.03	0.0534
408.353	0.0541
408.676	0.0535
408.999	0.0531
409.322	0.0524
409.645	0.052
409.968	0.052
410.29	0.052
410.613	0.0522
410.935	0.0519
411.258	0.0519
411.58	0.0511
411.902	0.0516
412.224	0.0504
412.546	0.0509
412.868	0.0503
413.19	0.0507
413.512	0.0508
413.834	0.0496
414.156	0.0502
414.477	0.051
414.799	0.0499
415.121	0.0507
415.442	0.05
415.763	0.0499
416.085	0.0502
416.406	0.0505
416.727	0.0506
417.048	0.0497
417.369	0.0496
417.69	0.0496
418.011	0.0495
418.331	0.0495
418.652	0.0504
418.973	0.0494
419.293	0.0499
419.614	0.0495
419.934	0.0501
420.254	0.0497
420.574	0.0504
420.895	0.0497
421.215	0.0497
421.535	0.0497
421.855	0.0491
422.174	0.0489
422.494	0.0486
422.814	0.0492
423.134	0.0495
423.453	0.0499
423.773	0.0495
424.092	0.0492
424.411	0.05
424.731	0.0497
425.05	0.0493
425.369	0.0498
425.688	0.0494
426.007	0.0494
426.326	0.0492
426.644	0.0499
426.963	0.05
427.282	0.0495
427.6	0.0497
427.919	0.0494
428.237	0.0492
428.556	0.0499
428.874	0.0498
429.192	0.0501
429.51	0.051
429.828	0.0497
430.146	0.0498
430.464	0.0492
430.782	0.0493
431.1	0.0499
431.418	0.0495
431.735	0.0488
432.053	0.0502
432.37	0.0494
432.688	0.0497
433.005	0.0492
433.322	0.0495
433.639	0.0502
433.957	0.0501
434.274	0.0495
434.591	0.0498
434.907	0.0492
435.224	0.0496
435.541	0.0492
435.858	0.0498
436.174	0.05
436.491	0.0493
436.807	0.0493
437.124	0.049
437.44	0.0498
437.756	0.0494
438.072	0.0497
438.388	0.0494
438.704	0.0494
439.02	0.0494
439.336	0.0492
439.652	0.0484
439.968	0.0481
440.283	0.0481
440.599	0.0483
440.914	0.0491
441.23	0.0492
441.545	0.049
441.86	0.0486
442.175	0.049
442.491	0.049
442.806	0.0481
443.121	0.0486
443.435	0.0483
443.75	0.0486
444.065	0.0479
444.38	0.0479
444.694	0.0482
445.009	0.0477
445.323	0.0475
445.638	0.0469
445.952	0.0477
446.266	0.0481
446.58	0.0469
446.894	0.0471
447.208	0.0469
447.522	0.0477
447.836	0.0473
448.15	0.0467
448.464	0.0466
448.777	0.0468
449.091	0.0463
449.404	0.0463
449.718	0.0462
450.031	0.0457
450.345	0.0456
450.658	0.0461
450.971	0.0461
451.284	0.0455
451.597	0.0447
451.91	0.0457
452.223	0.0451
452.535	0.0447
452.848	0.0458
453.161	0.044
453.473	0.0443
453.786	0.044
454.098	0.0445
454.411	0.0441
454.723	0.0432
455.035	0.0433
455.347	0.0432
455.659	0.0434
455.971	0.0437
456.283	0.0431
456.595	0.0428
456.907	0.0437
457.218	0.0428
457.53	0.0414
457.841	0.0424
458.153	0.0419
458.464	0.0416
458.776	0.0418
459.087	0.0419
459.398	0.0413
459.709	0.0411
460.02	0.0412
460.331	0.0401
460.642	0.0409
460.953	0.0405
461.263	0.0396
461.574	0.0393
461.885	0.04
462.195	0.0389
462.506	0.0392
462.816	0.0391
463.126	0.0395
463.437	0.0391
463.747	0.0379
464.057	0.0381
464.367	0.0377
464.677	0.0371
464.987	0.0373
465.296	0.0381
465.606	0.0363
465.916	0.0368
466.225	0.0362
466.535	0.0358
466.844	0.0362
467.154	0.0363
467.463	0.035
467.772	0.0356
468.081	0.0351
468.39	0.0349
468.699	0.0345
469.008	0.0343
469.317	0.0338
469.626	0.0328
469.935	0.0327
470.243	0.0332
470.552	0.0331
470.86	0.0325
471.169	0.033
471.477	0.0324
471.785	0.0326
472.093	0.0318
472.402	0.0317
472.71	0.032
473.018	0.0307
473.326	0.0304
473.633	0.031
473.941	0.0304
474.249	0.03
474.556	0.03
474.864	0.0295
475.171	0.0296
475.479	0.0289
475.786	0.029
476.094	0.0288
476.401	0.0284
476.708	0.0283
477.015	0.0289
477.322	0.0275
477.629	0.0281
477.936	0.028
478.242	0.0271
478.549	0.0272
478.856	0.0269
479.162	0.0263
479.469	0.0266
479.775	0.0267
480.081	0.0254
480.388	0.0258
480.694	0.0254
481	0.0247
481.306	0.0245
481.612	0.0249
481.918	0.0247
482.224	0.0244
482.53	0.024
482.835	0.0246
483.141	0.0238
483.446	0.0228
483.752	0.023
484.057	0.0227
484.363	0.0224
484.668	0.023
484.973	0.0214
485.278	0.0218
485.583	0.0209
485.888	0.0215
486.193	0.0207
486.498	0.0201
486.803	0.0197
487.107	0.0202
487.412	0.02
487.717	0.0201
488.021	0.019
488.325	0.02
488.63	0.0197
488.934	0.0194
489.238	0.0196
489.542	0.0172
489.846	0.0181
490.15	0.019
490.454	0.018
490.758	0.0173
491.062	0.0178
491.366	0.0182
491.669	0.0172
491.973	0.0172
492.276	0.0176
492.58	0.0165
492.883	0.0161
493.186	0.0158
493.489	0.0155
493.792	0.0152
494.096	0.0155
494.399	0.0151
494.701	0.0152
495.004	0.0146
495.307	0.0149
495.61	0.0139
495.912	0.0147
496.215	0.0136
496.517	0.0134
496.82	0.0135
497.122	0.0123
497.424	0.0135
497.727	0.0126
498.029	0.0121
498.331	0.0125
498.633	0.013
498.935	0.0126
499.237	0.0119
499.538	0.0116
499.84	0.0117
500.142	0.0114
500.443	0.0101
500.745	0.0108
501.046	0.0104
501.348	0.0109
501.649	0.0094
501.95	0.0097
502.251	0.0091
502.552	0.0097
502.853	0.0093
503.154	0.0088
503.455	0.0098
503.756	0.0099
504.057	0.01
504.357	0.008
504.658	0.0092
504.958	0.0092
505.259	0.0095
505.559	0.0082
505.859	0.0072
506.16	0.0077
506.46	0.0079
506.76	0.0083
507.06	0.0074
507.36	0.0075
507.66	0.0081
507.96	0.0093
508.259	0.0076
508.559	0.0084
508.859	0.0078
509.158	0.0069
509.457	0.0065
509.757	0.0067
510.056	0.0068
510.355	0.007
510.655	0.0061
510.954	0.0061
511.253	0.0068
511.552	0.007
511.851	0.0055
512.149	0.0054
512.448	0.0059
512.747	0.0059
513.045	0.0059
513.344	0.0048
513.642	0.0049
513.941	0.0052
514.239	0.0043
514.537	0.0042
514.836	0.0046
515.134	0.0033
515.432	0.0055
515.73	0.004
516.028	0.005
516.326	0.0041
516.623	0.0042
516.921	0.003
517.219	0.0036
517.516	0.0035
517.814	0.0022
518.111	0.0029
518.409	0.0036
518.706	0.0026
519.003	0.0035
519.3	0.0028
519.597	0.0023
519.894	0.0041
520.191	0.0029
520.488	0.0028
520.785	0.002
521.082	0.0028
521.378	0.0027
521.675	0.0015
521.971	0.0022
522.268	0.0018
522.564	0.0023
522.861	0.0027
523.157	0.0026
523.453	0.0032
523.749	0.0023
524.045	0.0023
524.341	0.0016
524.637	0.0012
524.933	0.0012
525.229	0.0016
525.524	0.0007
525.82	0.0008
526.115	0.0008
526.411	0.0011
526.706	0.0012
527.002	0.0017
527.297	0.0007
527.592	0.0016
527.887	0.0023
528.182	0.0021
528.477	0.0019
528.772	0.0022
529.067	0.001
529.362	0.0013
529.657	0.0009
529.951	0.0017
530.246	-0.0001
530.54	0.0007
530.835	0.0003
531.129	0.0001
531.423	0.0005
531.718	0.0007
532.012	0.0004
532.306	-0.0004
532.6	-0.0002
532.894	0.0007
533.188	0.0006
533.482	0.0006
533.775	0.0011
534.069	-0.0001
534.363	-0.0009
534.656	-0.0019
534.95	0.0005
535.243	-0.0005
535.536	0.0008
535.83	-0.0015
536.123	-0.0001
536.416	-0
536.709	-0.0011
537.002	-0.0015
537.295	-0.0004
537.588	-0.0009
537.881	-0.0008
538.173	-0.0009
538.466	-0.0003
538.759	-0.001
539.051	-0.0001
539.344	-0.001
539.636	-0.0001
539.928	-0.0004
540.22	-0.0001
540.513	-0.0002
540.805	-0.0001
541.097	-0.0011
541.389	-0.0008
541.681	0.0003
541.972	0
542.264	-0.0004
542.556	-0
542.847	-0.0002
543.139	-0.0003
543.431	-0.0013
543.722	-0.0006
544.013	-0.0008
544.305	-0.0015
544.596	-0.0015
544.887	-0.0004
545.178	-0.0001
545.469	-0.0025
545.76	-0.0012
546.051	-0.0007
546.342	-0.0014
546.632	-0.0026
546.923	-0.0017
547.214	-0.0011
547.504	-0.001
547.795	-0
548.085	-0.002
548.375	-0.0008
548.666	-0.0019
548.956	-0.0011
549.246	-0.0001
549.536	-0.0007
549.826	-0.0008
550.116	-0.0006
550.406	-0.0007
550.695	-0.0029
550.985	-0.0008
551.275	-0.0022
551.564	-0.001
551.854	0.0001
552.143	-0.0009
552.433	-0.0023
552.722	-0.0022
553.011	-0.0007
553.3	-0.0006
553.589	-0.0005
553.879	-0.0006
554.167	-0.0004
554.456	0.0004
554.745	-0.0003
555.034	-0.0008
555.323	0.0005
555.611	0.0003
555.9	-0.0003
556.188	-0.0022
556.477	-0.0004
556.765	-0.0022
557.053	-0.0015
557.342	-0.0002
557.63	-0.0006
557.918	-0.0005
558.206	0.0008
558.494	-0
558.782	-0.0001
559.069	0.0015
559.357	0.0006
559.645	-0.0002
559.932	-0.0004
560.22	-0.0001
560.507	-0.0015
560.795	-0.0017
561.082	-0.0022
561.37	-0.0007
561.657	-0.0013
561.944	-0.0012
562.231	-0.0005
562.518	-0.0007
562.805	-0.001
563.092	0.0004
563.379	0.0006
563.665	0.0001
563.952	-0.0003
564.239	0.0002
564.525	-0.0003
564.811	0.001
565.098	0.0001
565.384	-0.0002
565.67	0.0006
565.957	0.0014
566.243	0.0012
566.529	-0.0001
566.815	0.0003
567.101	0.0016
567.387	0.0006
567.672	-0.0007
567.958	0.0009
568.244	0.0001
568.529	0.0007
568.815	-0
569.1	-0.0004
569.386	-0.0009
569.671	0.0005
569.956	0.0003
570.242	0.0001
570.527	-0.0002
570.812	0.0007
571.097	0.0008
571.382	-0.0005
571.666	0.0011
571.951	0.0001
572.236	0.0001
572.521	0
572.805	0
573.09	0
573.374	-0
573.659	0.0006
573.943	-0.0002
574.227	-0
574.511	-0.0006
574.795	-0.0004
575.079	0.0001
575.363	-0.0004
575.647	-0.0012
575.931	-0.0003
576.215	-0.0005
576.499	-0.0004
576.782	-0.0012
577.066	-0.0005
577.349	0.0001
577.633	-0.0003
577.916	-0.0002
578.2	0.0001
578.483	-0.0011
578.766	-0.0004
579.049	-0.0008
579.332	-0
579.615	0.0002
579.898	0
580.181	0.0004
580.464	0.0008
580.746	0.0004
581.029	-0.0005
581.312	0.0004
581.594	0
581.877	-0.0015
582.159	-0.0012
582.441	-0.0006
582.724	-0.0013
583.006	0.0001
583.288	-0.0004
583.57	0.0002
583.852	0
584.134	0.0008
584.416	0
584.697	0.0006
584.979	-0.0003
585.261	-0.0009
585.542	-0.0013
585.824	-0.0012
586.105	-0.0005
586.387	-0.0016
586.668	-0.0001
586.949	-0.0008
587.231	0.0003
587.512	-0.001
587.793	-0.0002
588.074	-0.001
588.355	-0.0004
588.636	-0.0005
588.916	-0.0013
589.197	-0.0009
589.478	-0.0013
589.758	-0.0006
590.039	-0.0005
590.319	-0.0001
590.6	0.0004
590.88	0.0001
591.16	0.0004
591.441	0.0006
591.721	-0.0003
592.001	0.0002
592.281	-0.0007
592.561	-0.0002
592.841	-0.0002
593.12	-0.0018
593.4	-0.0016
593.68	-0.0021
593.959	-0.002
594.239	-0.0015
594.518	-0.0011
594.798	-0.0002
595.077	-0.0003
595.356	-0.0011
595.636	-0.0012
595.915	-0.0005
596.194	-0.0011
596.473	-0.0008
596.752	0.0005
597.031	0.0002
597.31	0.0002
597.588	-0.0009
597.867	-0.0002
598.146	-0.0016
598.424	-0.0001
598.703	0.0004
598.981	-0.0009
599.259	-0.0011
599.538	-0.0016
599.816	-0.0002
600.094	0
600.372	-0.0013
600.65	-0.002
600.928	-0.0012
601.206	0.0001
601.484	-0.0008
601.762	-0.0005
602.04	0.0001
602.317	-0.0004
602.595	-0.0008
602.872	0.0002
603.15	0.0003
603.427	-0.0008
603.704	-0.0013
603.982	-0.001
604.259	-0.0006
604.536	0
604.813	-0.001
605.09	-0.0012
605.367	-0.0001
605.644	-0.001
605.921	-0.0006
606.197	-0.0013
606.474	-0.0012
606.751	-0.0006
607.027	-0.0006
607.304	-0.0007
607.58	-0.001
607.856	-0.0011
608.133	-0.0017
608.409	-0.0005
608.685	-0.0006
608.961	-0.0011
609.237	-0.0008
609.513	-0.0021
609.789	-0.0014
610.065	-0.0005
610.341	-0.0011
610.616	-0.0016
610.892	-0.0003
611.167	-0
611.443	-0.0008
611.718	-0.0007
611.994	-0.0012
612.269	-0.0007
612.544	-0.0009
612.819	-0.0007
613.095	-0.0017
613.37	-0
613.645	-0.0009
613.919	-0.0015
614.194	-0.0001
614.469	0.0009
614.744	0.0001
615.019	-0.0007
615.293	-0.0014
615.568	-0.0012
615.842	-0.0008
616.116	0
616.391	0.001
616.665	0.0014
616.939	0.0005
617.213	0.0008
617.488	0.0008
617.762	-0.001
618.035	-0.0005
618.309	-0.0009
618.583	-0.0003
618.857	-0.0004
619.131	0.0009
619.404	0.0004
619.678	-0.0004
619.951	-0.0002
620.225	-0.0009
620.498	-0.001
620.771	-0.0007
621.045	-0.0015
621.318	-0.0015
621.591	-0.0018
621.864	-0.0017
622.137	-0.0022
622.41	-0.002
622.683	-0.0019
622.956	-0.0009
623.228	-0.0002
623.501	-0.001
623.774	-0.0006
624.046	-0.0005
624.319	-0.0006
624.591	-0.0017
624.863	-0.0008
625.136	0.0002
625.408	0.0011
625.68	-0.0001
625.952	-0
626.224	-0
626.496	-0.0001
626.768	-0.0006
627.04	-0.0012
627.311	-0.0009
627.583	-0.0005
627.855	0.0006
628.126	0.0008
628.398	0.0013
628.669	0.0014
628.941	0.0021
629.212	0.0011
629.483	0.0008
629.755	-0.0004
630.026	0.0005
630.297	0.0001
630.568	0.0001
630.839	0.0003
631.11	-0.0003
631.38	0.001
631.651	0.0006
631.922	0.0009
632.192	0.0002
632.463	-0.0009
632.733	-0.0011
633.004	0.0003
633.274	0
633.545	0.0004
633.815	0.0011
634.085	-0.0003
634.355	-0.0019
634.625	-0.0016
634.895	-0.0018
635.165	-0.0004
635.435	-0.0013
635.705	-0.0012
635.974	-0.0015
636.244	-0.0008
636.514	0.0004
636.783	-0.0012
637.053	-0.0015
637.322	-0.0005
637.591	0
637.861	-0.0014
638.13	-0.0007
638.399	-0.0027
638.668	-0.0012
638.937	-0.0022
639.206	-0.0028
639.475	-0.003
639.744	-0.0029
640.013	-0.0025
640.281	-0.0019
640.55	-0.0019
640.819	-0.0021
641.087	-0.0023
641.356	-0.0024
641.624	-0.0016
641.892	-0.0017
642.161	-0.0008
642.429	-0.0016
642.697	-0.0011
642.965	-0.0008
643.233	-0.0006
643.501	-0.0004
643.769	-0.0008
644.037	0
644.305	-0.0021
644.572	-0.0007
644.84	-0.0017
645.108	-0.0027
645.375	-0.0036
645.643	-0.0032
645.91	-0.0015
646.177	-0.0013
646.445	-0.0003
646.712	0.0011
646.979	0.0011
647.246	0.0019
647.513	0.0012
647.78	0.0005
648.047	-0.0002
648.314	-0.0029
648.58	-0.0017
648.847	-0.002
649.114	-0.0006
649.38	-0.001
649.647	-0.0009
649.913	-0.0014
650.18	-0.0014
650.446	-0.0007
650.712	-0.0017
650.978	-0.0021
651.245	-0.0026
651.511	-0.0025
651.777	-0.0013
652.043	-0.0016
652.309	-0.0006
652.574	0.0001
652.84	0.0004
653.106	0.0004
653.371	0.0001
653.637	0.0002
653.903	0.0005
654.168	0.0013
654.433	0.001
654.699	0.001
654.964	0.0027
655.229	0.0011
655.494	0.0003
655.759	-0.0002
656.024	0.0003
656.289	-0
656.554	-0.004
656.819	-0.0033
657.084	-0.0009
657.349	-0.0002
657.613	0.0001
657.878	-0.0002
658.142	-0.0008
658.407	-0.0009
658.671	0.0005
658.936	-0.0003
659.2	-0.0001
659.464	0.0004
659.728	-0.0004
659.992	-0.0009
660.256	-0.001
660.52	-0.0008
660.784	-0.0005
661.048	0.0004
661.312	0.0008
661.575	0.0001
661.839	0.001
662.103	0.0001
662.366	-0.0005
662.63	-0.0006
662.893	-0.0014
663.156	-0.0011
663.42	-0.002
663.683	-0.0023
663.946	-0.0034
664.209	-0.0026
664.472	-0.0027
664.735	-0.0022
664.998	-0.0014
665.261	-0.0017
665.524	-0.002
665.786	-0.0014
666.049	-0.001
666.312	-0.0011
666.574	-0.0013
666.837	-0.0005
667.099	-0.0012
667.361	-0.0016
667.624	-0.0017
667.886	-0.0027
668.148	-0.0019
668.41	-0.0012
668.672	-0.0014
668.934	-0.0006
669.196	-0.0007
669.458	0.0004
669.72	0.001
669.982	0.0003
670.243	0.0011
670.505	0.0001
670.766	-0.0001
671.028	-0.0006
671.289	-0.0021
671.551	-0.0013
671.812	-0.0023
672.073	-0.0018
672.334	-0.0015
672.596	-0.0023
672.857	-0.0024
673.118	-0.0024
673.379	-0.0029
673.639	-0.0022
673.9	-0.0024
674.161	-0.0028
674.422	-0.0029
674.682	-0.0026
674.943	-0.0032
675.203	-0.0033
675.464	-0.0032
675.724	-0.0041
675.985	-0.0039
676.245	-0.0038
676.505	-0.0041
676.765	-0.0042
677.025	-0.004
677.285	-0.0034
677.545	-0.0021
677.805	-0.002
678.065	-0.0016
678.325	-0.0022
678.585	-0.0022
678.844	-0.0033
679.104	-0.0036
679.363	-0.0046
679.623	-0.0034
679.882	-0.002
680.142	-0.0023
680.401	-0.0033
680.66	-0.0009
680.919	-0.0008
681.178	-0.0007
681.437	-0.0008
681.696	-0.0011
681.955	-0.0013
682.214	-0.0007
682.473	-0.0023
682.732	-0.0009
682.99	-0.0024
683.249	-0.0003
683.508	-0.0011
683.766	-0.0014
684.024	-0.0028
684.283	-0.001
684.541	-0.001
684.799	-0.0008
685.058	-0.0009
685.316	-0.0019
685.574	-0.0017
685.832	-0.0025
686.09	-0.0027
686.348	-0.0034
686.606	-0.0034
686.863	-0.0042
687.121	-0.0027
687.379	-0.0023
687.636	-0.0027
687.894	-0.0018
688.151	-0.0016
688.409	-0.0011
688.666	-0.0023
688.923	-0.0038
689.181	-0.0031
689.438	-0.0038
689.695	-0.003
689.952	-0.005
690.209	-0.0042
690.466	-0.0044
690.723	-0.0032
690.979	-0.0024
691.236	-0.0023
691.493	-0.0016
691.75	-0.0019
692.006	-0.0028
692.263	-0.0025
692.519	-0.0036
692.775	-0.0031
693.032	-0.0029
693.288	-0.0015
693.544	-0.0013
693.8	-0.0017
694.056	-0.0022
694.313	-0.0007
694.568	-0.0013
694.824	-0.0021
695.08	-0.0025
695.336	-0.0037
695.592	-0.003
695.847	-0.0028
696.103	-0.0021
696.359	-0.0031
696.614	-0.0027
696.869	-0.002
697.125	-0.003
697.38	-0.0032
697.635	-0.002
697.891	-0.0015
698.146	-0.0015
698.401	-0.0017
698.656	-0.0024
698.911	-0.0021
699.166	-0.0015
699.42	-0.0012
699.675	-0.0013
699.93	-0.0008
700.185	-0.0018
700.439	-0.0015
700.694	-0.0015
700.948	-0.0018
701.203	-0.0023
701.457	-0.0029
701.711	-0.0034
701.965	-0.0029
702.22	-0.0032
702.474	-0.0037
702.728	-0.0028
702.982	-0.0026
703.236	-0.0023
703.49	-0.0015
703.743	-0.0016
703.997	-0.0022
704.251	-0.0023
704.504	-0.0018
704.758	-0.0026
705.012	-0.0021
705.265	-0.0016
705.518	-0.0011
705.772	-0.0006
706.025	-0.0016
706.278	-0.0022
706.531	-0.0016
706.785	-0.0022
707.038	-0.0029
707.291	-0.0026
707.543	-0.0023
707.796	-0.0032
708.049	-0.0034
708.302	-0.0041
708.555	-0.0039
708.807	-0.0029
709.06	-0.0038
709.312	-0.0029
709.565	-0.0039
709.817	-0.0046
710.069	-0.0037
710.322	-0.0043
710.574	-0.0048
710.826	-0.0049
711.078	-0.005
711.33	-0.0043
711.582	-0.0052
711.834	-0.0048
712.086	-0.0057
712.338	-0.0065
712.59	-0.0063
712.841	-0.0063
713.093	-0.0068
713.344	-0.0064
713.596	-0.0054
713.847	-0.0045
714.099	-0.0047
714.35	-0.0045
714.601	-0.004
714.853	-0.004
715.104	-0.0039
715.355	-0.0026
715.606	-0.0037
715.857	-0.0034
716.108	-0.0041
716.359	-0.0035
716.609	-0.0046
716.86	-0.0046
717.111	-0.0031
717.361	-0.0028
717.612	-0.0022
717.863	-0.0012
718.113	-0.0009
718.363	-0.0012
718.614	-0.001
718.864	-0.0007
719.114	-0.0018
719.364	-0.0005
719.614	-0.0008
719.865	-0.0006
720.114	0.0004
720.364	0.0005
720.614	0.0008
720.864	0.0011
721.114	0.0005
721.364	-0.0011
721.613	0.0002
721.863	-0.0007
722.112	-0.0014
722.362	-0.0018
722.611	-0.0026
722.86	-0.0022
723.11	-0.0027
723.359	-0.0021
723.608	-0.0026
723.857	-0.0022
724.106	-0.0017
724.355	-0.0017
724.604	-0.0015
724.853	-0.0019
725.102	-0.0037
725.351	-0.003
725.599	-0.0036
725.848	-0.0031
726.097	-0.0037
726.345	-0.0032
726.594	-0.0044
726.842	-0.0038
727.09	-0.0047
727.339	-0.0055
727.587	-0.0059
727.835	-0.0048
728.083	-0.0043
728.331	-0.0048
728.579	-0.0041
728.827	-0.0038
729.075	-0.0034
729.323	-0.0036
729.571	-0.0037
729.818	-0.0038
730.066	-0.0034
730.314	-0.0029
730.561	-0.0018
730.809	-0.0001
731.056	-0.0008
731.303	-0.0018
731.551	-0.0018
731.798	-0.0009
732.045	-0.0013
732.292	-0.0007
732.539	-0
732.786	0.0012
733.033	0.0002
733.28	-0.0007
733.527	-0.0007
733.774	-0.0007
734.021	-0.0028
734.267	-0.0026
734.514	-0.0025
734.76	-0.004
735.007	-0.0034
735.253	-0.0031
735.5	-0.003
735.746	-0.0031
735.992	-0.0031
736.238	-0.0032
736.485	-0.0026
736.731	-0.0021
736.977	-0.0025
737.223	-0.0028
737.469	-0.0023
737.715	-0.0014
737.96	-0.0022
738.206	-0.003
738.452	-0.0026
738.697	-0.0014
738.943	-0.0022
739.189	-0.0017
739.434	-0.0013
739.679	-0.0031
739.925	-0.0033
740.17	-0.0047
740.415	-0.0053
740.66	-0.0056
740.906	-0.0065
741.151	-0.0044
741.396	-0.0056
741.641	-0.0058
741.886	-0.0051
742.13	-0.0034
742.375	-0.0035
742.62	-0.0022
742.865	-0.0038
743.109	-0.0019
743.354	-0.0014
743.598	0
743.843	0.0005
744.087	0.0005
744.331	0.0008
744.576	0.0007
744.82	0.002
745.064	0.002
745.308	0.0022
745.552	0.0022
745.796	0.0005
746.04	0.001
746.284	0.0004
746.528	0.0012
746.771	0.0021
747.015	0.0018
747.259	0.0012
747.502	-0.0002
747.746	-0.0011
747.989	0.0001
748.233	-0.0008
748.476	0.0002
748.719	0.0012
748.963	0.0026
749.206	0.0024
749.449	0.0006
749.692	0.0005
749.935	0.0008
750.178	0.0001
750.421	-0.0005
750.664	-0.0005
750.906	0.0006
751.149	0.0007
751.392	0.0008
751.635	-0.0007
751.877	-0.001
752.12	-0.0008
752.362	-0.0011
752.604	0
752.847	0.0012
753.089	0.0014
753.331	0.0022
753.573	0.0013
753.816	-0.0012
754.058	-0.0015
754.3	-0.004
754.542	-0.003
754.783	-0.0036
755.025	-0.0037
755.267	-0.0019
755.509	-0.0031
755.75	-0.0031
755.992	-0.0034
756.234	-0.0037
756.475	-0.0036
756.716	-0.0033
756.958	-0.0022
757.199	-0.0025
757.44	-0.0014
757.682	-0.0008
757.923	-0.0011
758.164	-0.0008
758.405	-0.0006
758.646	0.0006
758.887	0.0006
759.128	0.0001
759.369	0.0004
759.609	0.0009
759.85	0.0001
760.091	0.0004
760.331	0.0007
760.572	-0.001
760.812	-0.0008
761.053	-0.0014
761.293	-0.0006
761.533	-0.0007
761.774	0.0005
762.014	0.0005
762.254	0.0011
762.494	0.0004
762.734	-0.0003
762.974	-0.0007
763.214	-0.0008
763.454	-0.0011
763.694	-0.0006
763.933	-0.0022
764.173	-0.0039
764.413	-0.0045
764.652	-0.0041
764.892	-0.0039
765.131	-0.0037
765.371	-0.0041
765.61	-0.004
765.849	-0.004
766.089	-0.0035
766.328	-0.0035
766.567	-0.0031
766.806	-0.0037
767.045	-0.0021
767.284	-0.0034
767.523	-0.0033
767.762	-0.0033
768.001	-0.0027
768.239	-0.0025
768.478	-0.0027
768.717	-0.0021
768.955	-0.002
769.194	-0.0018
769.432	-0.0007
769.671	-0.0001
769.909	0.0004
770.148	-0.0002
770.386	0.0012
770.624	0.0016
770.862	0.0015
771.1	0.0022
771.338	0.0012
771.576	-0.0001
771.814	0.0005
772.052	0.001
772.29	0.002
772.528	0.0032
772.765	0.0041
773.003	0.0043
773.24	0.0041
773.478	0.0023
773.716	0.0024
773.953	0.0018
774.19	0.0017
774.428	0.0024
774.665	0.0031
774.902	0.0036
775.139	0.0034
775.376	0.0026
775.613	0.0032
775.85	0.0022
776.087	0.0013
776.324	0.0015
776.561	0.0014
776.798	0.0004
777.034	0.0011
777.271	0.0019
777.508	0.0017
777.744	0.0028
777.981	0.0037
778.217	0.0033
778.454	0.0017
778.69	0.0009
778.926	0.0002
779.162	-0.0001
779.399	0.0001
779.635	0.0001
779.871	0.0001
780.107	-0.0003
780.343	-0.0008
780.579	-0.0002
780.814	-0.0003
781.05	-0.0006
781.286	-0.0012
781.522	-0.001
781.757	-0.0005
781.993	-0.0015
782.228	-0.0019
782.464	-0.0014
782.699	-0.0013
782.934	-0.0025
783.17	-0.0024
783.405	-0.0018
783.64	-0.0025
783.875	-0.0032
784.11	-0.0031
784.345	-0.0019
784.58	-0.002
784.815	-0.0014
785.05	-0.0018
785.285	-0.0023
785.52	-0.0019
785.754	-0.0028
785.989	-0.0032
786.223	-0.0046
786.458	-0.0045
786.692	-0.0038
786.927	-0.0029
787.161	-0.0022
787.396	-0.0038
787.63	-0.0032
787.864	-0.0052
788.098	-0.0055
788.332	-0.0049
788.566	-0.0044
788.8	-0.0042
789.034	-0.0035
789.268	-0.0036
789.502	-0.0031
789.736	-0.0029
789.969	-0.003
790.203	-0.0034
790.437	-0.0051
790.67	-0.0054
790.904	-0.0073
791.137	-0.0068
791.37	-0.007
791.604	-0.0083
791.837	-0.0078
792.07	-0.0069
792.303	-0.0063
792.537	-0.0062
792.77	-0.0058
793.003	-0.0049
793.236	-0.0036
793.469	-0.0048
793.701	-0.0029
793.934	-0.0013
794.167	-0.0013
794.4	-0.0011
794.632	-0.0013
794.865	-0.0005
795.097	-0.0007
795.33	-0.0021
795.562	-0.0012
795.795	0
796.027	0.0005
796.259	0.0014
796.491	0.0007
796.724	-0.0002
796.956	0.0005
797.188	-0
797.42	0.0007
797.652	-0.0006
797.883	-0.0002
798.115	0.0004
798.347	0
798.579	0.0006
798.81	0.0014
799.042	0.0015
799.274	0.0006
799.505	-0
799.737	0.0007
799.968	-0.0006
800.199	-0.0013
800.431	-0.0012
800.662	-0.0021
800.893	-0.0022
801.124	-0.0025
801.355	-0.0031
801.586	-0.0031
801.817	-0.0027
802.048	-0.0044
802.279	-0.0034
802.51	-0.0023
802.741	-0.0011
802.971	-0.0002
803.202	0.0003
803.433	0.0003
803.663	-0.002
803.894	-0.0036
804.124	-0.0036
804.354	-0.0028
804.585	-0.0032
804.815	-0.0017
805.045	-0.0031
805.275	-0.0031
805.506	-0.0615
805.736	0.0092
805.966	-0.0846
806.196	0.0373
