Data from 03 0.5 mM K2Cr2O7 0.3 mM BQDS 1 M H2SO4 5 min_Absorbance_0035.txt Node
Date: Mon Dec 13 20:34:44 EST 2021
User: kwabilab-user
Spectrometer: HDX00518
Trigger mode: 0
Integration Time (sec): 5.000000E-2
Scans to average: 50
Nonlinearity correction enabled: false
Boxcar width: 0
Storing dark spectrum: false
XAxis mode: Wavelengths
Number of Pixels in Spectrum: 2068
>>>>>Begin Spectral Data<<<<<
195.27	0.071
195.642	0.2563
196.014	0.031
196.386	0.0351
196.758	0.0631
197.129	0.0233
197.501	0.026
197.872	0.0406
198.244	0.061
198.615	0.0777
198.986	0.0598
199.357	0.0721
199.728	0.0608
200.099	0.0774
200.47	0.0559
200.841	0.0661
201.212	0.0675
201.582	0.0831
201.953	0.0582
202.323	0.0852
202.694	0.0651
203.064	0.0608
203.434	0.0883
203.804	0.0605
204.174	0.087
204.544	0.0868
204.914	0.0627
205.284	0.0798
205.653	0.0413
206.023	0.075
206.393	0.0411
206.762	0.0698
207.131	0.0773
207.501	0.0615
207.87	0.0762
208.239	0.0764
208.608	0.0701
208.977	0.0373
209.346	0.0809
209.715	0.0663
210.083	0.0532
210.452	0.0553
210.82	0.0761
211.189	0.0698
211.557	0.0774
211.925	0.0272
212.294	0.0815
212.662	0.0531
213.03	0.0764
213.398	0.0895
213.766	0.0906
214.133	0.0798
214.501	0.1015
214.869	0.0771
215.236	0.084
215.604	0.0848
215.971	0.0896
216.338	0.1033
216.705	0.1208
217.072	0.1208
217.439	0.0983
217.806	0.1029
218.173	0.0935
218.54	0.1036
218.907	0.1043
219.273	0.1297
219.64	0.1368
220.006	0.1521
220.373	0.1173
220.739	0.1506
221.105	0.1721
221.471	0.1868
221.837	0.193
222.203	0.2325
222.569	0.2412
222.935	0.2544
223.3	0.2518
223.666	0.3137
224.031	0.3185
224.397	0.3343
224.762	0.361
225.127	0.3875
225.493	0.422
225.858	0.4126
226.223	0.4586
226.588	0.4738
226.952	0.4879
227.317	0.5415
227.682	0.5245
228.046	0.5355
228.411	0.5761
228.775	0.5832
229.14	0.5929
229.504	0.6164
229.868	0.6524
230.232	0.6295
230.596	0.6511
230.96	0.6936
231.324	0.6714
231.688	0.6912
232.052	0.7054
232.415	0.6959
232.779	0.712
233.142	0.7349
233.505	0.7356
233.869	0.7471
234.232	0.7383
234.595	0.7283
234.958	0.7371
235.321	0.7388
235.684	0.7491
236.047	0.7552
236.409	0.7296
236.772	0.746
237.134	0.7487
237.497	0.7307
237.859	0.752
238.222	0.747
238.584	0.7375
238.946	0.7384
239.308	0.7316
239.67	0.7317
240.032	0.7412
240.393	0.747
240.755	0.7433
241.117	0.7508
241.478	0.7433
241.84	0.7377
242.201	0.7258
242.562	0.715
242.924	0.7258
243.285	0.7223
243.646	0.7228
244.007	0.7167
244.368	0.7258
244.728	0.7332
245.089	0.7273
245.45	0.7111
245.81	0.7231
246.171	0.7222
246.531	0.7207
246.891	0.7118
247.252	0.7078
247.612	0.7068
247.972	0.7132
248.332	0.7139
248.692	0.7168
249.051	0.72
249.411	0.7213
249.771	0.7107
250.13	0.7069
250.49	0.714
250.849	0.7183
251.208	0.7288
251.568	0.7147
251.927	0.7114
252.286	0.7141
252.645	0.7156
253.004	0.7205
253.363	0.7186
253.721	0.7158
254.08	0.7138
254.439	0.7048
254.797	0.7095
255.155	0.7067
255.514	0.7049
255.872	0.7109
256.23	0.7148
256.588	0.7152
256.946	0.7126
257.304	0.706
257.662	0.7092
258.02	0.7146
258.377	0.7065
258.735	0.7121
259.093	0.701
259.45	0.7022
259.807	0.7029
260.165	0.7025
260.522	0.6966
260.879	0.6912
261.236	0.6912
261.593	0.6993
261.95	0.6946
262.306	0.6917
262.663	0.6873
263.02	0.689
263.376	0.6871
263.733	0.689
264.089	0.6832
264.445	0.6767
264.802	0.677
265.158	0.677
265.514	0.6721
265.87	0.6768
266.226	0.673
266.581	0.6764
266.937	0.6748
267.293	0.6636
267.648	0.6532
268.004	0.6571
268.359	0.6556
268.714	0.6499
269.07	0.6528
269.425	0.6426
269.78	0.6403
270.135	0.6347
270.49	0.6381
270.844	0.6362
271.199	0.6286
271.554	0.6302
271.908	0.6224
272.263	0.6228
272.617	0.6134
272.972	0.6165
273.326	0.608
273.68	0.6047
274.034	0.6019
274.388	0.6
274.742	0.5945
275.096	0.5968
275.45	0.5913
275.803	0.5866
276.157	0.5845
276.51	0.5726
276.864	0.5726
277.217	0.5699
277.571	0.5623
277.924	0.561
278.277	0.559
278.63	0.555
278.983	0.5446
279.336	0.5384
279.688	0.5387
280.041	0.5283
280.394	0.5303
280.746	0.5199
281.099	0.5156
281.451	0.5122
281.803	0.5045
282.156	0.4981
282.508	0.497
282.86	0.4907
283.212	0.483
283.564	0.4804
283.916	0.4766
284.267	0.4701
284.619	0.4665
284.971	0.46
285.322	0.4545
285.673	0.4499
286.025	0.4459
286.376	0.4413
286.727	0.4398
287.078	0.4319
287.429	0.4254
287.78	0.4231
288.131	0.4161
288.482	0.4134
288.833	0.4057
289.183	0.4031
289.534	0.3973
289.884	0.3908
290.235	0.3882
290.585	0.3823
290.935	0.3781
291.285	0.3719
291.635	0.367
291.985	0.3633
292.335	0.3586
292.685	0.3536
293.035	0.3498
293.384	0.3449
293.734	0.3398
294.083	0.336
294.433	0.3297
294.782	0.3267
295.131	0.3205
295.48	0.3157
295.829	0.3111
296.179	0.3074
296.527	0.3042
296.876	0.2987
297.225	0.2936
297.574	0.289
297.922	0.2877
298.271	0.2819
298.619	0.2767
298.968	0.273
299.316	0.2696
299.664	0.2661
300.012	0.2628
300.36	0.2585
300.708	0.2544
301.056	0.2513
301.404	0.2477
301.752	0.2444
302.099	0.242
302.447	0.2386
302.794	0.2353
303.142	0.2326
303.489	0.2282
303.836	0.2265
304.183	0.2237
304.531	0.2211
304.878	0.2189
305.224	0.2163
305.571	0.2136
305.918	0.2115
306.265	0.2096
306.611	0.2076
306.958	0.2065
307.304	0.2034
307.651	0.2031
307.997	0.2003
308.343	0.1992
308.689	0.1976
309.035	0.1957
309.381	0.1946
309.727	0.1935
310.073	0.1928
310.419	0.192
310.764	0.1896
311.11	0.1897
311.455	0.1894
311.801	0.1886
312.146	0.1877
312.491	0.1872
312.837	0.1861
313.182	0.1863
313.527	0.1862
313.872	0.1865
314.216	0.186
314.561	0.1855
314.906	0.1861
315.251	0.1855
315.595	0.1859
315.94	0.1864
316.284	0.186
316.628	0.1869
316.972	0.1875
317.317	0.1888
317.661	0.1885
318.005	0.1892
318.348	0.1897
318.692	0.1913
319.036	0.1916
319.38	0.1911
319.723	0.1931
320.067	0.1944
320.41	0.1948
320.754	0.1953
321.097	0.1971
321.44	0.1978
321.783	0.1992
322.126	0.2006
322.469	0.2013
322.812	0.2031
323.155	0.2052
323.498	0.2061
323.84	0.208
324.183	0.2092
324.525	0.2112
324.868	0.2131
325.21	0.2135
325.552	0.2165
325.894	0.217
326.236	0.2184
326.578	0.2201
326.92	0.2219
327.262	0.2236
327.604	0.2256
327.946	0.2271
328.287	0.229
328.629	0.2314
328.97	0.2334
329.312	0.2343
329.653	0.2359
329.994	0.2377
330.335	0.2391
330.676	0.242
331.017	0.2443
331.358	0.2453
331.699	0.2474
332.04	0.2497
332.38	0.2509
332.721	0.2527
333.061	0.2551
333.402	0.2567
333.742	0.2591
334.083	0.2613
334.423	0.262
334.763	0.2645
335.103	0.2648
335.443	0.267
335.783	0.2689
336.123	0.27
336.462	0.2714
336.802	0.2739
337.141	0.2748
337.481	0.2755
337.82	0.2776
338.16	0.2786
338.499	0.2815
338.838	0.2821
339.177	0.2846
339.516	0.2857
339.855	0.2865
340.194	0.2882
340.533	0.2895
340.872	0.2904
341.21	0.2919
341.549	0.2926
341.887	0.2936
342.226	0.2945
342.564	0.2958
342.902	0.2963
343.24	0.2971
343.578	0.2977
343.916	0.2983
344.254	0.298
344.592	0.2988
344.93	0.2989
345.268	0.2999
345.605	0.2997
345.943	0.3009
346.28	0.301
346.618	0.3012
346.955	0.3004
347.292	0.3011
347.629	0.3019
347.966	0.3018
348.303	0.3014
348.64	0.3019
348.977	0.3019
349.314	0.3031
349.65	0.3014
349.987	0.3022
350.324	0.3023
350.66	0.3015
350.996	0.3008
351.333	0.3012
351.669	0.3008
352.005	0.2991
352.341	0.2992
352.677	0.2975
353.013	0.2965
353.349	0.2947
353.685	0.2942
354.02	0.2931
354.356	0.2908
354.691	0.2892
355.027	0.2881
355.362	0.2883
355.697	0.2867
356.033	0.2864
356.368	0.2845
356.703	0.2838
357.038	0.2829
357.373	0.2811
357.707	0.2803
358.042	0.2792
358.377	0.2782
358.711	0.2765
359.046	0.275
359.38	0.2739
359.715	0.2732
360.049	0.272
360.383	0.2705
360.717	0.2687
361.051	0.2673
361.385	0.266
361.719	0.2624
362.053	0.2617
362.387	0.2597
362.72	0.2567
363.054	0.2557
363.387	0.2533
363.721	0.2515
364.054	0.2483
364.387	0.2466
364.721	0.2445
365.054	0.2428
365.387	0.2406
365.72	0.238
366.053	0.2368
366.385	0.2347
366.718	0.2329
367.051	0.2308
367.383	0.23
367.716	0.2284
368.048	0.2268
368.381	0.2237
368.713	0.2229
369.045	0.2223
369.377	0.219
369.709	0.2181
370.041	0.2171
370.373	0.2146
370.705	0.2122
371.037	0.2112
371.368	0.2087
371.7	0.2082
372.031	0.2052
372.363	0.2031
372.694	0.1995
373.025	0.1974
373.356	0.1953
373.688	0.1931
374.019	0.1907
374.35	0.1888
374.68	0.1858
375.011	0.1839
375.342	0.1814
375.673	0.1791
376.003	0.1773
376.334	0.175
376.664	0.1723
376.995	0.1706
377.325	0.1676
377.655	0.1674
377.985	0.1648
378.315	0.1633
378.645	0.1621
378.975	0.16
379.305	0.1583
379.635	0.1577
379.964	0.1562
380.294	0.1536
380.623	0.1526
380.953	0.1509
381.282	0.1495
381.611	0.1472
381.941	0.1456
382.27	0.1438
382.599	0.142
382.928	0.1402
383.257	0.1391
383.585	0.1371
383.914	0.1366
384.243	0.1326
384.571	0.1317
384.9	0.128
385.228	0.1271
385.557	0.1254
385.885	0.1229
386.213	0.1209
386.541	0.1196
386.869	0.1173
387.197	0.1153
387.525	0.1136
387.853	0.1116
388.181	0.1103
388.508	0.1081
388.836	0.1065
389.164	0.1037
389.491	0.1033
389.818	0.1022
390.146	0.1008
390.473	0.0993
390.8	0.098
391.127	0.096
391.454	0.0946
391.781	0.0939
392.108	0.0924
392.435	0.0911
392.761	0.0894
393.088	0.0893
393.415	0.0881
393.741	0.0873
394.067	0.0857
394.394	0.0849
394.72	0.084
395.046	0.0829
395.372	0.0812
395.698	0.0808
396.024	0.0797
396.35	0.0784
396.676	0.0772
397.001	0.0763
397.327	0.0751
397.653	0.0739
397.978	0.0725
398.303	0.0714
398.629	0.0695
398.954	0.0689
399.279	0.0685
399.604	0.0678
399.929	0.0672
400.254	0.0658
400.579	0.0651
400.904	0.0639
401.229	0.0638
401.553	0.0628
401.878	0.0627
402.202	0.0618
402.527	0.0608
402.851	0.0605
403.175	0.0595
403.5	0.0583
403.824	0.0582
404.148	0.0575
404.472	0.0567
404.796	0.0565
405.119	0.0564
405.443	0.0558
405.767	0.0551
406.09	0.0555
406.414	0.0545
406.737	0.0543
407.061	0.0539
407.384	0.0535
407.707	0.0541
408.03	0.0527
408.353	0.0532
408.676	0.0528
408.999	0.0526
409.322	0.0525
409.645	0.0519
409.968	0.0521
410.29	0.0513
410.613	0.0519
410.935	0.0517
411.258	0.0511
411.58	0.0511
411.902	0.0508
412.224	0.0508
412.546	0.05
412.868	0.0504
413.19	0.0506
413.512	0.0505
413.834	0.0492
414.156	0.0496
414.477	0.0505
414.799	0.0499
415.121	0.05
415.442	0.0494
415.763	0.0494
416.085	0.0496
416.406	0.0497
416.727	0.0496
417.048	0.0491
417.369	0.0492
417.69	0.049
418.011	0.0486
418.331	0.0494
418.652	0.0498
418.973	0.0493
419.293	0.0489
419.614	0.0496
419.934	0.0501
420.254	0.0494
420.574	0.0493
420.895	0.0494
421.215	0.0499
421.535	0.0494
421.855	0.0485
422.174	0.0489
422.494	0.0488
422.814	0.0492
423.134	0.0491
423.453	0.0493
423.773	0.0493
424.092	0.049
424.411	0.0484
424.731	0.0493
425.05	0.0493
425.369	0.0491
425.688	0.049
426.007	0.0486
426.326	0.0488
426.644	0.0489
426.963	0.0502
427.282	0.049
427.6	0.049
427.919	0.049
428.237	0.0491
428.556	0.0497
428.874	0.0498
429.192	0.0494
429.51	0.0498
429.828	0.0494
430.146	0.0493
430.464	0.0488
430.782	0.0498
431.1	0.0497
431.418	0.0493
431.735	0.0493
432.053	0.0492
432.37	0.0495
432.688	0.0493
433.005	0.0496
433.322	0.0498
433.639	0.0493
433.957	0.0493
434.274	0.0497
434.591	0.049
434.907	0.0489
435.224	0.0489
435.541	0.0493
435.858	0.049
436.174	0.0499
436.491	0.0488
436.807	0.0484
437.124	0.0486
437.44	0.0496
437.756	0.0492
438.072	0.0503
438.388	0.0493
438.704	0.0494
439.02	0.0487
439.336	0.0485
439.652	0.0481
439.968	0.0483
440.283	0.0476
440.599	0.0477
440.914	0.0488
441.23	0.0488
441.545	0.0482
441.86	0.0481
442.175	0.0481
442.491	0.0482
442.806	0.0473
443.121	0.048
443.435	0.048
443.75	0.0478
444.065	0.0476
444.38	0.0475
444.694	0.048
445.009	0.0473
445.323	0.0478
445.638	0.0466
445.952	0.0479
446.266	0.0485
446.58	0.0476
446.894	0.0471
447.208	0.0471
447.522	0.0474
447.836	0.0468
448.15	0.0459
448.464	0.0464
448.777	0.0466
449.091	0.0458
449.404	0.0462
449.718	0.0456
450.031	0.0457
450.345	0.0452
450.658	0.0466
450.971	0.0453
451.284	0.0453
451.597	0.0446
451.91	0.0449
452.223	0.045
452.535	0.0439
452.848	0.0452
453.161	0.044
453.473	0.0446
453.786	0.0443
454.098	0.0437
454.411	0.0442
454.723	0.043
455.035	0.0428
455.347	0.0424
455.659	0.0425
455.971	0.0432
456.283	0.0424
456.595	0.0428
456.907	0.0431
457.218	0.0428
457.53	0.041
457.841	0.0422
458.153	0.0423
458.464	0.0417
458.776	0.0415
459.087	0.0413
459.398	0.0417
459.709	0.0412
460.02	0.041
460.331	0.04
460.642	0.0399
460.953	0.0397
461.263	0.0394
461.574	0.0397
461.885	0.039
462.195	0.0391
462.506	0.0389
462.816	0.0382
463.126	0.039
463.437	0.0385
463.747	0.0376
464.057	0.0373
464.367	0.0373
464.677	0.0371
464.987	0.0371
465.296	0.037
465.606	0.0357
465.916	0.0364
466.225	0.0362
466.535	0.036
466.844	0.0363
467.154	0.0359
467.463	0.0344
467.772	0.0351
468.081	0.0345
468.39	0.0346
468.699	0.0339
469.008	0.0339
469.317	0.0334
469.626	0.0325
469.935	0.0329
470.243	0.0329
470.552	0.0331
470.86	0.033
471.169	0.0318
471.477	0.0322
471.785	0.0322
472.093	0.032
472.402	0.0312
472.71	0.0314
473.018	0.0301
473.326	0.0301
473.633	0.0311
473.941	0.03
474.249	0.03
474.556	0.0304
474.864	0.0299
475.171	0.0293
475.479	0.0292
475.786	0.0286
476.094	0.0282
476.401	0.0285
476.708	0.0283
477.015	0.0278
477.322	0.0282
477.629	0.027
477.936	0.0278
478.242	0.0264
478.549	0.0263
478.856	0.0266
479.162	0.0257
479.469	0.0262
479.775	0.0269
480.081	0.0251
480.388	0.0253
480.694	0.0256
481	0.0247
481.306	0.0244
481.612	0.0252
481.918	0.0243
482.224	0.0234
482.53	0.0241
482.835	0.024
483.141	0.0235
483.446	0.024
483.752	0.0231
484.057	0.0226
484.363	0.0217
484.668	0.0224
484.973	0.0203
485.278	0.0212
485.583	0.0216
485.888	0.0217
486.193	0.0202
486.498	0.0197
486.803	0.0201
487.107	0.0203
487.412	0.0201
487.717	0.0199
488.021	0.019
488.325	0.02
488.63	0.0196
488.934	0.0192
489.238	0.0188
489.542	0.0176
489.846	0.0187
490.15	0.0185
490.454	0.0178
490.758	0.0174
491.062	0.0168
491.366	0.0173
491.669	0.0171
491.973	0.0179
492.276	0.017
492.58	0.0158
492.883	0.0153
493.186	0.0164
493.489	0.0157
493.792	0.0153
494.096	0.0144
494.399	0.0152
494.701	0.0156
495.004	0.0134
495.307	0.0147
495.61	0.014
495.912	0.0144
496.215	0.0126
496.517	0.0135
496.82	0.0135
497.122	0.0125
497.424	0.0131
497.727	0.0125
498.029	0.0123
498.331	0.0129
498.633	0.0128
498.935	0.013
499.237	0.0125
499.538	0.0113
499.84	0.0114
500.142	0.0112
500.443	0.0106
500.745	0.011
501.046	0.0099
501.348	0.0102
501.649	0.0097
501.95	0.0096
502.251	0.0102
502.552	0.0099
502.853	0.0092
503.154	0.009
503.455	0.009
503.756	0.0092
504.057	0.0097
504.357	0.0075
504.658	0.0093
504.958	0.0096
505.259	0.0084
505.559	0.0084
505.859	0.0075
506.16	0.0081
506.46	0.0077
506.76	0.0076
507.06	0.0079
507.36	0.0077
507.66	0.0071
507.96	0.0083
508.259	0.0075
508.559	0.0075
508.859	0.0076
509.158	0.0058
509.457	0.007
509.757	0.0071
510.056	0.0065
510.355	0.007
510.655	0.0046
510.954	0.0061
511.253	0.0057
511.552	0.0062
511.851	0.0067
512.149	0.0049
512.448	0.006
512.747	0.0051
513.045	0.0058
513.344	0.005
513.642	0.0045
513.941	0.0044
514.239	0.0041
514.537	0.004
514.836	0.0051
515.134	0.0025
515.432	0.0049
515.73	0.0041
516.028	0.0048
516.326	0.0047
516.623	0.0048
516.921	0.0026
517.219	0.0032
517.516	0.0041
517.814	0.0033
518.111	0.0039
518.409	0.0026
518.706	0.003
519.003	0.0036
519.3	0.0023
519.597	0.002
519.894	0.0037
520.191	0.0031
520.488	0.0023
520.785	0.0026
521.082	0.0025
521.378	0.0022
521.675	0.0022
521.971	0.0013
522.268	0.0023
522.564	0.0016
522.861	0.0026
523.157	0.0035
523.453	0.003
523.749	0.0019
524.045	0.0014
524.341	0.0027
524.637	0.0017
524.933	0.0009
525.229	0.0023
525.524	0.0006
525.82	0.0001
526.115	0.0007
526.411	0.0024
526.706	0.0016
527.002	0.0023
527.297	0.0007
527.592	0.0014
527.887	0.0021
528.182	0.0018
528.477	0.0019
528.772	0.001
529.067	0.0016
529.362	0.0013
529.657	0.0005
529.951	0.0007
530.246	0.0002
530.54	0.0009
530.835	0.001
531.129	0.0005
531.423	0.0004
531.718	0.0002
532.012	0.001
532.306	0.0003
532.6	0.0009
532.894	0.0007
533.188	0.0006
533.482	0.0004
533.775	0.0004
534.069	0.0003
534.363	-0.0011
534.656	-0.0013
534.95	-0.0001
535.243	-0.0004
535.536	0.0003
535.83	-0.0015
536.123	-0.0004
536.416	0.0008
536.709	-0.0001
537.002	-0.0012
537.295	0.0001
537.588	-0.0008
537.881	-0.0009
538.173	-0.0009
538.466	-0.001
538.759	-0.0004
539.051	-0.0008
539.344	-0.0006
539.636	-0.0006
539.928	0.0003
540.22	0.0001
540.513	-0.0004
540.805	-0.0002
541.097	-0.001
541.389	-0.0011
541.681	-0.0004
541.972	0.0006
542.264	0.0003
542.556	-0.0007
542.847	-0
543.139	-0.0005
543.431	-0.0004
543.722	-0.0008
544.013	0
544.305	-0.0008
544.596	-0.0015
544.887	-0.0014
545.178	-0.0005
545.469	-0.0012
545.76	-0.0014
546.051	-0.0002
546.342	-0.0018
546.632	-0.0022
546.923	-0.0006
547.214	-0.0009
547.504	-0.0014
547.795	-0.0012
548.085	-0.0013
548.375	-0.0017
548.666	-0.0017
548.956	-0.0007
549.246	-0.0017
549.536	-0.001
549.826	-0.0006
550.116	-0.0007
550.406	-0.0018
550.695	-0.0021
550.985	-0.0002
551.275	-0.0016
551.564	-0.0011
551.854	-0.0004
552.143	-0.0009
552.433	-0.0018
552.722	-0.0024
553.011	-0.0006
553.3	0.0002
553.589	-0.0003
553.879	-0.0012
554.167	-0.0013
554.456	-0.0004
554.745	-0.0002
555.034	-0.001
555.323	0.0006
555.611	0.0006
555.9	0.0003
556.188	-0.0014
556.477	-0.0007
556.765	-0.0016
557.053	-0.0022
557.342	-0.001
557.63	-0.0003
557.918	-0.0002
558.206	0.0007
558.494	0.0002
558.782	-0.0005
559.069	0.0012
559.357	0.0003
559.645	0.0001
559.932	-0.0005
560.22	-0.0004
560.507	-0.0013
560.795	-0.0012
561.082	-0.0025
561.37	-0.0001
561.657	-0.0012
561.944	-0.0004
562.231	-0.0003
562.518	-0.0002
562.805	-0.0011
563.092	0.0008
563.379	-0.0004
563.665	-0
563.952	-0.0001
564.239	0.0004
564.525	-0.0001
564.811	0.0018
565.098	-0.0007
565.384	-0.0008
565.67	0
565.957	0.0011
566.243	0.0017
566.529	0.0001
566.815	0.0005
567.101	0.0009
567.387	0.0003
567.672	0.0004
567.958	0.0011
568.244	0.0006
568.529	0.0003
568.815	-0.0001
569.1	-0.0005
569.386	-0.0008
569.671	0.0007
569.956	0.0004
570.242	0.0001
570.527	-0.0002
570.812	0.0003
571.097	0.0008
571.382	-0.0001
571.666	0.0011
571.951	-0.0001
572.236	-0.0001
572.521	-0.0002
572.805	0
573.09	-0
573.374	-0.0001
573.659	-0.0005
573.943	-0.0006
574.227	-0.0002
574.511	-0.0006
574.795	-0.0002
575.079	0.0004
575.363	-0.0014
575.647	-0.0005
575.931	-0.001
576.215	-0.0012
576.499	-0.0006
576.782	-0.0015
577.066	-0.0007
577.349	-0.0006
577.633	-0.0007
577.916	-0.0004
578.2	0.0001
578.483	-0.0011
578.766	-0.0009
579.049	-0.0003
579.332	0.0005
579.615	0.0003
579.898	0.0001
580.181	0.0002
580.464	0.0002
580.746	0.0007
581.029	-0.0005
581.312	-0.0002
581.594	-0.0003
581.877	-0.0009
582.159	-0.0016
582.441	-0.001
582.724	-0.0008
583.006	-0.0001
583.288	0.0005
583.57	0.0001
583.852	0
584.134	0.0005
584.416	0.0003
584.697	0.0002
584.979	-0.0001
585.261	-0.0011
585.542	-0.0013
585.824	-0.0009
586.105	-0.0017
586.387	-0.0012
586.668	-0.0006
586.949	-0.0003
587.231	-0.0001
587.512	-0.0006
587.793	0.0001
588.074	-0.0013
588.355	-0.0008
588.636	-0.0007
588.916	-0.0006
589.197	-0.0007
589.478	-0.0012
589.758	0.0001
590.039	0.0004
590.319	0.0001
590.6	0.0004
590.88	0.0002
591.16	0.0002
591.441	0.0009
591.721	0
592.001	-0.0004
592.281	-0.0008
592.561	-0.0009
592.841	-0
593.12	-0.0011
593.4	-0.0014
593.68	-0.0022
593.959	-0.0015
594.239	-0.0017
594.518	-0.0012
594.798	-0.0005
595.077	-0.0007
595.356	-0.0016
595.636	-0.0011
595.915	-0.0006
596.194	0.0004
596.473	-0.0001
596.752	0.0003
597.031	0.0008
597.31	0.0005
597.588	-0.0009
597.867	-0
598.146	-0.0013
598.424	-0.0004
598.703	0.0001
598.981	-0.0007
599.259	-0.0008
599.538	-0.0013
599.816	-0.0008
600.094	-0.0002
600.372	-0.0016
600.65	-0.0017
600.928	-0.0009
601.206	-0.0004
601.484	-0.0005
601.762	-0.0003
602.04	-0.0004
602.317	-0.0006
602.595	-0.0003
602.872	0.0002
603.15	0.0009
603.427	-0.0009
603.704	-0.0013
603.982	-0.001
604.259	-0.0013
604.536	-0.0006
604.813	-0.0006
605.09	-0.0006
605.367	-0.0007
605.644	-0.0016
605.921	-0.0012
606.197	-0.0009
606.474	-0.0008
606.751	-0.0005
607.027	-0.0007
607.304	-0.0004
607.58	-0.0005
607.856	-0.0012
608.133	-0.0012
608.409	-0.0011
608.685	-0.0007
608.961	-0.0011
609.237	-0.0007
609.513	-0.0014
609.789	-0.0012
610.065	-0.0009
610.341	-0.0008
610.616	-0.0014
610.892	-0.0007
611.167	-0.0001
611.443	-0.0011
611.718	-0.0008
611.994	-0.0009
612.269	-0.0014
612.544	-0.0015
612.819	-0.0009
613.095	-0.0012
613.37	0
613.645	-0.001
613.919	-0.0018
614.194	-0.0006
614.469	0.001
614.744	-0.0003
615.019	-0.0011
615.293	-0.0014
615.568	-0.001
615.842	-0.0009
616.116	-0.0005
616.391	0.0006
616.665	0.0006
616.939	0.0005
617.213	0.0002
617.488	0.0002
617.762	-0.0012
618.035	-0.0008
618.309	-0.001
618.583	0.0001
618.857	0.0008
619.131	0.0004
619.404	0.0007
619.678	0.0002
619.951	-0.0005
620.225	-0.0008
620.498	-0.0014
620.771	-0.0007
621.045	-0.0013
621.318	-0.0022
621.591	-0.0022
621.864	-0.0018
622.137	-0.0016
622.41	-0.0021
622.683	-0.0016
622.956	-0.0008
623.228	-0.0006
623.501	-0.0006
623.774	-0.001
624.046	-0.0002
624.319	-0.0016
624.591	-0.0019
624.863	-0.0013
625.136	0.0003
625.408	0
625.68	-0
625.952	0.0004
626.224	-0.0003
626.496	0.0005
626.768	-0.001
627.04	-0.001
627.311	-0.0009
627.583	-0.0013
627.855	0.0012
628.126	0.0007
628.398	0.0011
628.669	0.0025
628.941	0.0013
629.212	0.0011
629.483	0.0004
629.755	-0.0006
630.026	-0.0002
630.297	0.0004
630.568	-0.0007
630.839	-0.0006
631.11	-0.0001
631.38	0
631.651	0.0012
631.922	0.0012
632.192	-0.0001
632.463	-0.0002
632.733	-0.0008
633.004	-0.0007
633.274	-0.0001
633.545	0.0012
633.815	0.0002
634.085	-0.0009
634.355	-0.0024
634.625	-0.0014
634.895	-0.0015
635.165	-0.0009
635.435	-0.0023
635.705	-0.0008
635.974	-0.0029
636.244	-0.0014
636.514	-0.0002
636.783	-0.001
637.053	-0.0014
637.322	-0.0008
637.591	-0.0007
637.861	-0.002
638.13	-0.0016
638.399	-0.0022
638.668	-0.0023
638.937	-0.0028
639.206	-0.0027
639.475	-0.0027
639.744	-0.0025
640.013	-0.0032
640.281	-0.0018
640.55	-0.0027
640.819	-0.0017
641.087	-0.002
641.356	-0.0025
641.624	-0.0008
641.892	-0.0009
642.161	-0.0006
642.429	-0.0013
642.697	-0.0012
642.965	0
643.233	-0.0019
643.501	-0.0018
643.769	-0.0009
644.037	-0.0005
644.305	-0.0011
644.572	-0.0008
644.84	-0.0014
645.108	-0.0028
645.375	-0.0024
645.643	-0.002
645.91	-0.0018
646.177	0.0002
646.445	-0.0009
646.712	0.0005
646.979	0.0024
647.246	0.0027
647.513	0.0018
647.78	0
648.047	-0.0011
648.314	-0.0015
648.58	-0.0022
648.847	-0.0012
649.114	-0.0001
649.38	-0.0001
649.647	-0.0018
649.913	-0.0018
650.18	-0.0019
650.446	-0.0017
650.712	-0.0028
650.978	-0.0024
651.245	-0.0027
651.511	-0.0017
651.777	-0.0024
652.043	-0.0027
652.309	-0.0014
652.574	0.001
652.84	0.0002
653.106	0.0009
653.371	0.0008
653.637	0.0004
653.903	0.0006
654.168	0.001
654.433	0.0015
654.699	0.0017
654.964	0.0027
655.229	0.0016
655.494	0.0004
655.759	-0.0008
656.024	0.0002
656.289	-0
656.554	-0.0033
656.819	-0.003
657.084	-0.0009
657.349	-0.0009
657.613	-0.0001
657.878	-0.0008
658.142	-0.002
658.407	-0.0005
658.671	0.0006
658.936	0.0002
659.2	0.0009
659.464	0.0002
659.728	-0.0003
659.992	-0.0013
660.256	-0.0006
660.52	-0.0006
660.784	-0.0009
661.048	-0.0003
661.312	0.0002
661.575	0.0011
661.839	0.0014
662.103	-0.0004
662.366	-0.0003
662.63	-0.0013
662.893	-0.0013
663.156	-0.0013
663.42	-0.0022
663.683	-0.0022
663.946	-0.003
664.209	-0.0022
664.472	-0.0027
664.735	-0.002
664.998	-0.0012
665.261	-0.0014
665.524	-0.0019
665.786	-0.0018
666.049	-0.0017
666.312	-0.0008
666.574	-0.0026
666.837	-0.0014
667.099	-0.0006
667.361	-0.0021
667.624	-0.0014
667.886	-0.0021
668.148	-0.0026
668.41	-0.0018
668.672	-0.0016
668.934	-0.0003
669.196	-0.001
669.458	0.0006
669.72	0.0014
669.982	0.0008
670.243	0.0004
670.505	-0.0004
670.766	-0.0003
671.028	-0.0008
671.289	-0.0023
671.551	-0.0009
671.812	-0.0027
672.073	-0.0018
672.334	-0.0021
672.596	-0.0021
672.857	-0.0023
673.118	-0.0022
673.379	-0.0026
673.639	-0.0033
673.9	-0.0025
674.161	-0.003
674.422	-0.0033
674.682	-0.0026
674.943	-0.0029
675.203	-0.0028
675.464	-0.0031
675.724	-0.0035
675.985	-0.0036
676.245	-0.0046
676.505	-0.0038
676.765	-0.0041
677.025	-0.0035
677.285	-0.004
677.545	-0.0018
677.805	-0.0018
678.065	-0.0017
678.325	-0.0019
678.585	-0.0036
678.844	-0.0034
679.104	-0.004
679.363	-0.0048
679.623	-0.0036
679.882	-0.0026
680.142	-0.003
680.401	-0.0029
680.66	-0.0012
680.919	0.0001
681.178	-0.0008
681.437	-0.0011
681.696	-0.0015
681.955	-0.0011
682.214	-0.0008
682.473	-0.0022
682.732	-0.0013
682.99	-0.0026
683.249	-0.0007
683.508	-0.0024
683.766	-0.0016
684.024	-0.0027
684.283	-0.0008
684.541	-0.0011
684.799	-0.0007
685.058	-0.0014
685.316	-0.0021
685.574	-0.0019
685.832	-0.0027
686.09	-0.0026
686.348	-0.0038
686.606	-0.004
686.863	-0.0037
687.121	-0.0033
687.379	-0.0018
687.636	-0.003
687.894	-0.0017
688.151	-0.0017
688.409	-0.0022
688.666	-0.0024
688.923	-0.0039
689.181	-0.0034
689.438	-0.0041
689.695	-0.0031
689.952	-0.005
690.209	-0.0042
690.466	-0.0038
690.723	-0.0035
690.979	-0.0022
691.236	-0.0027
691.493	-0.002
691.75	-0.0021
692.006	-0.0033
692.263	-0.0033
692.519	-0.0031
692.775	-0.0026
693.032	-0.0029
693.288	-0.0011
693.544	-0.0012
693.8	-0.0017
694.056	-0.0008
694.313	-0.0019
694.568	-0.0022
694.824	-0.0023
695.08	-0.0025
695.336	-0.004
695.592	-0.0031
695.847	-0.0027
696.103	-0.0025
696.359	-0.0026
696.614	-0.0039
696.869	-0.003
697.125	-0.0031
697.38	-0.0032
697.635	-0.0018
697.891	-0.0014
698.146	-0.0013
698.401	-0.0018
698.656	-0.0028
698.911	-0.0023
699.166	-0.0019
699.42	-0.0018
699.675	-0.0015
699.93	-0.0018
700.185	-0.0022
700.439	-0.002
700.694	-0.0017
700.948	-0.0022
701.203	-0.0021
701.457	-0.0033
701.711	-0.0039
701.965	-0.0038
702.22	-0.0039
702.474	-0.0035
702.728	-0.0034
702.982	-0.0029
703.236	-0.002
703.49	-0.0015
703.743	-0.0026
703.997	-0.0017
704.251	-0.0032
704.504	-0.0024
704.758	-0.0034
705.012	-0.0027
705.265	-0.0019
705.518	-0.0011
705.772	-0.0015
706.025	-0.0016
706.278	-0.0027
706.531	-0.0029
706.785	-0.0023
707.038	-0.0037
707.291	-0.0031
707.543	-0.0027
707.796	-0.0038
708.049	-0.003
708.302	-0.0039
708.555	-0.0039
708.807	-0.0031
709.06	-0.0042
709.312	-0.0033
709.565	-0.0037
709.817	-0.0045
710.069	-0.0039
710.322	-0.0042
710.574	-0.0045
710.826	-0.0039
711.078	-0.0046
711.33	-0.0045
711.582	-0.0051
711.834	-0.0054
712.086	-0.0067
712.338	-0.006
712.59	-0.0053
712.841	-0.0061
713.093	-0.006
713.344	-0.006
713.596	-0.0057
713.847	-0.0043
714.099	-0.0047
714.35	-0.0045
714.601	-0.0044
714.853	-0.0034
715.104	-0.0036
715.355	-0.0029
715.606	-0.0042
715.857	-0.0032
716.108	-0.004
716.359	-0.004
716.609	-0.0046
716.86	-0.0039
717.111	-0.0035
717.361	-0.0033
717.612	-0.0013
717.863	-0.0014
718.113	-0.0005
718.363	-0.001
718.614	-0.001
718.864	-0.0008
719.114	-0.0015
719.364	-0.0001
719.614	-0.0008
719.865	-0.0007
720.114	0
720.364	0.0006
720.614	0.0018
720.864	0.0009
721.114	0.0005
721.364	0.0003
721.613	0.0008
721.863	-0.0003
722.112	-0.0006
722.362	-0.0016
722.611	-0.0017
722.86	-0.0019
723.11	-0.0015
723.359	-0.0022
723.608	-0.002
723.857	-0.0019
724.106	-0.0013
724.355	-0.001
724.604	-0.0021
724.853	-0.0017
725.102	-0.0034
725.351	-0.0025
725.599	-0.0039
725.848	-0.0033
726.097	-0.0031
726.345	-0.0044
726.594	-0.0048
726.842	-0.004
727.09	-0.0053
727.339	-0.0053
727.587	-0.0055
727.835	-0.005
728.083	-0.0045
728.331	-0.0046
728.579	-0.0046
728.827	-0.0034
729.075	-0.0034
729.323	-0.0038
729.571	-0.0041
729.818	-0.0039
730.066	-0.003
730.314	-0.0037
730.561	-0.0014
730.809	-0.0005
731.056	-0.001
731.303	-0.0009
731.551	-0.0011
731.798	-0.0013
732.045	-0.0018
732.292	-0.0007
732.539	0.0003
732.786	0.0009
733.033	-0.0003
733.28	0.0004
733.527	-0.0001
733.774	-0.0003
734.021	-0.0028
734.267	-0.0026
734.514	-0.0029
734.76	-0.0035
735.007	-0.0029
735.253	-0.0038
735.5	-0.0028
735.746	-0.0027
735.992	-0.0024
736.238	-0.003
736.485	-0.0022
736.731	-0.0025
736.977	-0.0023
737.223	-0.0024
737.469	-0.0018
737.715	-0.0013
737.96	-0.0028
738.206	-0.0026
738.452	-0.0027
738.697	-0.0026
738.943	-0.0021
739.189	-0.002
739.434	-0.0016
739.679	-0.0033
739.925	-0.0037
740.17	-0.005
740.415	-0.0055
740.66	-0.0062
740.906	-0.0059
741.151	-0.0049
741.396	-0.0056
741.641	-0.0066
741.886	-0.0053
742.13	-0.0036
742.375	-0.0037
742.62	-0.0026
742.865	-0.0036
743.109	-0.002
743.354	-0.001
743.598	-0.0006
743.843	-0.0001
744.087	0.0002
744.331	0.0005
744.576	0.0012
744.82	0.0016
745.064	0.0019
745.308	0.0017
745.552	0.0014
745.796	0.0001
746.04	0.0005
746.284	0.0003
746.528	0.0004
746.771	0.0014
747.015	0.002
747.259	0.0009
747.502	-0.0004
747.746	-0.0011
747.989	-0.0005
748.233	-0.0009
748.476	-0.0001
748.719	0.0006
748.963	0.0011
749.206	0.0017
749.449	0.0008
749.692	-0.0003
749.935	0.0006
750.178	-0.0003
750.421	-0.0013
750.664	-0.0009
750.906	0.0009
751.149	0.0005
751.392	-0.0002
751.635	-0.0005
751.877	-0.0008
752.12	-0.0007
752.362	-0.0008
752.604	-0.0012
752.847	0.0009
753.089	0.0006
753.331	0.0013
753.573	0.0009
753.816	-0.0011
754.058	-0.0018
754.3	-0.0037
754.542	-0.0026
754.783	-0.0031
755.025	-0.003
755.267	-0.002
755.509	-0.0027
755.75	-0.0032
755.992	-0.003
756.234	-0.0037
756.475	-0.0028
756.716	-0.0031
756.958	-0.0024
757.199	-0.0031
757.44	-0.0023
757.682	-0.0012
757.923	-0.0015
758.164	-0.001
758.405	-0.0019
758.646	0.0006
758.887	0.0003
759.128	0.0001
759.369	0
759.609	0.0008
759.85	0.0007
760.091	0.0008
760.331	0.0003
760.572	-0.001
760.812	-0.0005
761.053	-0.0009
761.293	-0.0007
761.533	-0.0006
761.774	0.0003
762.014	0.0008
762.254	0.0004
762.494	-0.0006
762.734	-0.0003
762.974	-0.0012
763.214	-0.0013
763.454	-0.0015
763.694	-0.0013
763.933	-0.0028
764.173	-0.0039
764.413	-0.0046
764.652	-0.0048
764.892	-0.0042
765.131	-0.0034
765.371	-0.0034
765.61	-0.0043
765.849	-0.0044
766.089	-0.0035
766.328	-0.0034
766.567	-0.0046
766.806	-0.0032
767.045	-0.0026
767.284	-0.003
767.523	-0.0035
767.762	-0.0043
768.001	-0.0027
768.239	-0.0033
768.478	-0.0023
768.717	-0.0017
768.955	-0.0017
769.194	-0.002
769.432	-0.0003
769.671	-0.0002
769.909	0
770.148	-0.0005
770.386	0.0005
770.624	0.0007
770.862	0.0011
771.1	0.0014
771.338	0.0015
771.576	-0.0005
771.814	0.0008
772.052	0.0009
772.29	0.0015
772.528	0.0028
772.765	0.0041
773.003	0.0032
773.24	0.0034
773.478	0.0021
773.716	0.0018
773.953	0.0012
774.19	0.0013
774.428	0.0023
774.665	0.0025
774.902	0.0031
775.139	0.0034
775.376	0.0028
775.613	0.0025
775.85	0.0015
776.087	0.0015
776.324	0.0019
776.561	0.0007
776.798	0.0005
777.034	0.0004
777.271	0.0009
777.508	0.0011
777.744	0.0026
777.981	0.0022
778.217	0.0031
778.454	0.0014
778.69	0.0006
778.926	-0.0005
779.162	-0.001
779.399	-0.0004
779.635	-0.001
779.871	-0.0007
780.107	-0.0005
780.343	-0.0014
780.579	-0.0008
780.814	-0.0022
781.05	-0.0011
781.286	-0.0025
781.522	-0.0016
781.757	-0.0016
781.993	-0.0024
782.228	-0.0028
782.464	-0.0018
782.699	-0.0022
782.934	-0.0032
783.17	-0.0032
783.405	-0.0028
783.64	-0.0033
783.875	-0.0044
784.11	-0.0035
784.345	-0.0029
784.58	-0.0025
784.815	-0.0017
785.05	-0.0028
785.285	-0.0032
785.52	-0.0025
785.754	-0.0042
785.989	-0.0039
786.223	-0.0054
786.458	-0.0048
786.692	-0.004
786.927	-0.0037
787.161	-0.003
787.396	-0.0037
787.63	-0.0041
787.864	-0.005
788.098	-0.0061
788.332	-0.005
788.566	-0.0035
788.8	-0.0043
789.034	-0.0035
789.268	-0.0034
789.502	-0.0026
789.736	-0.0029
789.969	-0.0032
790.203	-0.0039
790.437	-0.0051
790.67	-0.0061
790.904	-0.0074
791.137	-0.0075
791.37	-0.0072
791.604	-0.0086
791.837	-0.0077
792.07	-0.0065
792.303	-0.007
792.537	-0.0063
792.77	-0.0064
793.003	-0.0064
793.236	-0.0054
793.469	-0.0054
793.701	-0.0044
793.934	-0.0027
794.167	-0.0019
794.4	-0.0023
794.632	-0.0018
794.865	-0.0016
795.097	-0.0013
795.33	-0.0022
795.562	-0.0014
795.795	-0.0009
796.027	0.0003
796.259	0.0002
796.491	0.0001
796.724	-0.0003
796.956	0.0008
797.188	-0.0004
797.42	-0.0002
797.652	-0.0009
797.883	-0.0006
798.115	0.0001
798.347	-0.0002
798.579	0.001
798.81	0.0007
799.042	0.0013
799.274	0
799.505	-0.0006
799.737	-0.0004
799.968	-0.0004
800.199	-0.0013
800.431	-0.0016
800.662	-0.0021
800.893	-0.0027
801.124	-0.0033
801.355	-0.0026
801.586	-0.0024
801.817	-0.0029
802.048	-0.005
802.279	-0.0039
802.51	-0.0031
802.741	-0.0015
802.971	-0.001
803.202	-0.0006
803.433	-0.0009
803.663	-0.0026
803.894	-0.0034
804.124	-0.0042
804.354	-0.004
804.585	-0.0033
804.815	-0.002
805.045	-0.0025
805.275	-0.0032
805.506	-0.0707
805.736	0.1295
805.966	0.4122
806.196	0.1835
