Data from 03 0.5 mM K2Cr2O7 0.3 mM BQDS 1 M H2SO4 5 min_Absorbance_0022.txt Node
Date: Mon Dec 13 19:29:44 EST 2021
User: kwabilab-user
Spectrometer: HDX00518
Trigger mode: 0
Integration Time (sec): 5.000000E-2
Scans to average: 50
Nonlinearity correction enabled: false
Boxcar width: 0
Storing dark spectrum: false
XAxis mode: Wavelengths
Number of Pixels in Spectrum: 2068
>>>>>Begin Spectral Data<<<<<
195.27	0.1139
195.642	0.2387
196.014	0.2011
196.386	0.2033
196.758	0.0282
197.129	-0.0036
197.501	0.0102
197.872	0.0233
198.244	0.0436
198.615	0.0823
198.986	0.05
199.357	0.0726
199.728	0.0735
200.099	0.0569
200.47	0.0503
200.841	0.0445
201.212	0.0778
201.582	0.0715
201.953	0.0628
202.323	0.086
202.694	0.0578
203.064	0.0719
203.434	0.0665
203.804	0.0482
204.174	0.0623
204.544	0.0578
204.914	0.0363
205.284	0.0753
205.653	0.0632
206.023	0.0692
206.393	0.0459
206.762	0.0724
207.131	0.065
207.501	0.0514
207.87	0.0805
208.239	0.0736
208.608	0.0559
208.977	0.051
209.346	0.0665
209.715	0.0663
210.083	0.0613
210.452	0.0671
210.82	0.0722
211.189	0.0543
211.557	0.085
211.925	0.0299
212.294	0.0755
212.662	0.0717
213.03	0.0688
213.398	0.0971
213.766	0.0728
214.133	0.0716
214.501	0.0978
214.869	0.0725
215.236	0.0755
215.604	0.0967
215.971	0.0901
216.338	0.0976
216.705	0.1097
217.072	0.1257
217.439	0.0841
217.806	0.1198
218.173	0.0801
218.54	0.1289
218.907	0.1104
219.273	0.1185
219.64	0.1488
220.006	0.1594
220.373	0.1403
220.739	0.1551
221.105	0.1926
221.471	0.1875
221.837	0.2023
222.203	0.215
222.569	0.2305
222.935	0.2666
223.3	0.2515
223.666	0.295
224.031	0.3051
224.397	0.3472
224.762	0.3405
225.127	0.3784
225.493	0.4034
225.858	0.4277
226.223	0.4396
226.588	0.491
226.952	0.5001
227.317	0.5453
227.682	0.5364
228.046	0.5237
228.411	0.5688
228.775	0.573
229.14	0.5958
229.504	0.6314
229.868	0.6078
230.232	0.6281
230.596	0.6552
230.96	0.6709
231.324	0.6608
231.688	0.6722
232.052	0.6919
232.415	0.7198
232.779	0.7236
233.142	0.7195
233.505	0.7245
233.869	0.7462
234.232	0.7347
234.595	0.7295
234.958	0.739
235.321	0.7488
235.684	0.7652
236.047	0.7615
236.409	0.7473
236.772	0.7766
237.134	0.7611
237.497	0.7695
237.859	0.7569
238.222	0.7639
238.584	0.754
238.946	0.7584
239.308	0.7574
239.67	0.756
240.032	0.7597
240.393	0.7463
240.755	0.7514
241.117	0.7467
241.478	0.7499
241.84	0.7474
242.201	0.7536
242.562	0.7418
242.924	0.7366
243.285	0.7403
243.646	0.7455
244.007	0.7433
244.368	0.7443
244.728	0.7466
245.089	0.7484
245.45	0.7437
245.81	0.7364
246.171	0.7367
246.531	0.7347
246.891	0.7312
247.252	0.7375
247.612	0.7322
247.972	0.7329
248.332	0.7495
248.692	0.736
249.051	0.7433
249.411	0.7495
249.771	0.736
250.13	0.7271
250.49	0.7401
250.849	0.7355
251.208	0.747
251.568	0.7346
251.927	0.7338
252.286	0.7419
252.645	0.7383
253.004	0.7371
253.363	0.7365
253.721	0.7401
254.08	0.7412
254.439	0.7371
254.797	0.7322
255.155	0.7297
255.514	0.7324
255.872	0.7459
256.23	0.734
256.588	0.7435
256.946	0.7435
257.304	0.7408
257.662	0.7398
258.02	0.7398
258.377	0.7367
258.735	0.7337
259.093	0.7279
259.45	0.7344
259.807	0.7268
260.165	0.7296
260.522	0.7349
260.879	0.7337
261.236	0.7333
261.593	0.7236
261.95	0.7208
262.306	0.7182
262.663	0.7148
263.02	0.7228
263.376	0.716
263.733	0.7161
264.089	0.7138
264.445	0.712
264.802	0.7103
265.158	0.7153
265.514	0.7092
265.87	0.7008
266.226	0.7006
266.581	0.7087
266.937	0.7023
267.293	0.7085
267.648	0.6913
268.004	0.6982
268.359	0.6914
268.714	0.6836
269.07	0.686
269.425	0.6766
269.78	0.6812
270.135	0.6739
270.49	0.6781
270.844	0.6681
271.199	0.6697
271.554	0.661
271.908	0.6582
272.263	0.6608
272.617	0.6458
272.972	0.651
273.326	0.6444
273.68	0.6451
274.034	0.6399
274.388	0.638
274.742	0.6322
275.096	0.6319
275.45	0.6274
275.803	0.6224
276.157	0.6187
276.51	0.6085
276.864	0.6131
277.217	0.608
277.571	0.603
277.924	0.5945
278.277	0.5888
278.63	0.5888
278.983	0.5866
279.336	0.5754
279.688	0.5728
280.041	0.565
280.394	0.5641
280.746	0.5585
281.099	0.554
281.451	0.5473
281.803	0.5405
282.156	0.5346
282.508	0.5332
282.86	0.5269
283.212	0.5217
283.564	0.5162
283.916	0.5135
284.267	0.5098
284.619	0.5031
284.971	0.4945
285.322	0.4911
285.673	0.4862
286.025	0.4793
286.376	0.477
286.727	0.4725
287.078	0.4659
287.429	0.4611
287.78	0.4553
288.131	0.4486
288.482	0.4464
288.833	0.4397
289.183	0.4323
289.534	0.4273
289.884	0.4242
290.235	0.4179
290.585	0.4125
290.935	0.4095
291.285	0.4035
291.635	0.3976
291.985	0.3913
292.335	0.3871
292.685	0.3836
293.035	0.3786
293.384	0.3716
293.734	0.3671
294.083	0.3615
294.433	0.3574
294.782	0.3533
295.131	0.3486
295.48	0.3419
295.829	0.3366
296.179	0.3326
296.527	0.3282
296.876	0.3227
297.225	0.3176
297.574	0.314
297.922	0.3098
298.271	0.3041
298.619	0.3002
298.968	0.2954
299.316	0.2901
299.664	0.2865
300.012	0.2843
300.36	0.2796
300.708	0.2754
301.056	0.2715
301.404	0.2668
301.752	0.2645
302.099	0.2609
302.447	0.2582
302.794	0.2545
303.142	0.2522
303.489	0.2467
303.836	0.2461
304.183	0.2423
304.531	0.2384
304.878	0.2373
305.224	0.2346
305.571	0.2309
305.918	0.2297
306.265	0.2266
306.611	0.2236
306.958	0.2233
307.304	0.2204
307.651	0.2185
307.997	0.2166
308.343	0.2147
308.689	0.2134
309.035	0.2124
309.381	0.2113
309.727	0.2093
310.073	0.2075
310.419	0.207
310.764	0.2054
311.11	0.2048
311.455	0.2045
311.801	0.2026
312.146	0.2031
312.491	0.2022
312.837	0.2011
313.182	0.2009
313.527	0.2013
313.872	0.2008
314.216	0.2003
314.561	0.1998
314.906	0.1995
315.251	0.1997
315.595	0.2003
315.94	0.2003
316.284	0.2011
316.628	0.2012
316.972	0.2012
317.317	0.202
317.661	0.202
318.005	0.2025
318.348	0.2037
318.692	0.2043
319.036	0.2047
319.38	0.2051
319.723	0.2057
320.067	0.2071
320.41	0.2082
320.754	0.2093
321.097	0.211
321.44	0.2119
321.783	0.2132
322.126	0.2146
322.469	0.2149
322.812	0.2168
323.155	0.218
323.498	0.2191
323.84	0.2212
324.183	0.2233
324.525	0.2237
324.868	0.2266
325.21	0.2271
325.552	0.229
325.894	0.2307
326.236	0.2323
326.578	0.2328
326.92	0.2356
327.262	0.2378
327.604	0.2383
327.946	0.2409
328.287	0.2424
328.629	0.2449
328.97	0.2461
329.312	0.2478
329.653	0.2495
329.994	0.2521
330.335	0.2528
330.676	0.2557
331.017	0.2566
331.358	0.2595
331.699	0.2613
332.04	0.2631
332.38	0.2646
332.721	0.2668
333.061	0.2685
333.402	0.2715
333.742	0.2732
334.083	0.2747
334.423	0.2751
334.763	0.2779
335.103	0.2791
335.443	0.2808
335.783	0.2827
336.123	0.2843
336.462	0.2852
336.802	0.2885
337.141	0.2889
337.481	0.2897
337.82	0.2916
338.16	0.2932
338.499	0.2949
338.838	0.2963
339.177	0.2986
339.516	0.2998
339.855	0.3013
340.194	0.3021
340.533	0.3037
340.872	0.3047
341.21	0.3053
341.549	0.3076
341.887	0.308
342.226	0.3092
342.564	0.3109
342.902	0.3106
343.24	0.3114
343.578	0.311
343.916	0.3121
344.254	0.313
344.592	0.3133
344.93	0.3134
345.268	0.3138
345.605	0.3137
345.943	0.3153
346.28	0.3142
346.618	0.3153
346.955	0.3149
347.292	0.3146
347.629	0.3151
347.966	0.316
348.303	0.3163
348.64	0.3166
348.977	0.316
349.314	0.3165
349.65	0.316
349.987	0.3167
350.324	0.317
350.66	0.316
350.996	0.3149
351.333	0.3152
351.669	0.3148
352.005	0.3132
352.341	0.312
352.677	0.3118
353.013	0.3099
353.349	0.3091
353.685	0.3071
354.02	0.3059
354.356	0.3048
354.691	0.3033
355.027	0.302
355.362	0.3014
355.697	0.3009
356.033	0.2991
356.368	0.2985
356.703	0.2966
357.038	0.2961
357.373	0.2945
357.707	0.2934
358.042	0.2915
358.377	0.2913
358.711	0.2899
359.046	0.2888
359.38	0.2865
359.715	0.2855
360.049	0.2853
360.383	0.2832
360.717	0.2818
361.051	0.2801
361.385	0.2787
361.719	0.2753
362.053	0.2737
362.387	0.2716
362.72	0.2694
363.054	0.2668
363.387	0.2645
363.721	0.2631
364.054	0.2608
364.387	0.2587
364.721	0.2556
365.054	0.2541
365.387	0.2524
365.72	0.2496
366.053	0.2481
366.385	0.2451
366.718	0.2435
367.051	0.242
367.383	0.2403
367.716	0.2386
368.048	0.2375
368.381	0.2352
368.713	0.2336
369.045	0.2324
369.377	0.2309
369.709	0.2289
370.041	0.2267
370.373	0.2251
370.705	0.2232
371.037	0.2211
371.368	0.2193
371.7	0.2183
372.031	0.2152
372.363	0.2127
372.694	0.2099
373.025	0.2076
373.356	0.2055
373.688	0.203
374.019	0.2006
374.35	0.1986
374.68	0.1957
375.011	0.1933
375.342	0.1903
375.673	0.1887
376.003	0.1861
376.334	0.1837
376.664	0.1815
376.995	0.1794
377.325	0.1768
377.655	0.1761
377.985	0.1739
378.315	0.172
378.645	0.1709
378.975	0.169
379.305	0.167
379.635	0.1654
379.964	0.1646
380.294	0.162
380.623	0.1611
380.953	0.1588
381.282	0.1575
381.611	0.1556
381.941	0.1538
382.27	0.1522
382.599	0.1503
382.928	0.1477
383.257	0.1461
383.585	0.1441
383.914	0.1436
384.243	0.1411
384.571	0.1386
384.9	0.1358
385.228	0.1345
385.557	0.1319
385.885	0.1298
386.213	0.1277
386.541	0.1266
386.869	0.1245
387.197	0.1218
387.525	0.12
387.853	0.1185
388.181	0.1163
388.508	0.1143
388.836	0.1124
389.164	0.1111
389.491	0.1095
389.818	0.1084
390.146	0.1063
390.473	0.1052
390.8	0.1035
391.127	0.1016
391.454	0.1008
391.781	0.0992
392.108	0.0982
392.435	0.0961
392.761	0.0958
393.088	0.0941
393.415	0.093
393.741	0.0926
394.067	0.0912
394.394	0.0901
394.72	0.0883
395.046	0.088
395.372	0.0865
395.698	0.0862
396.024	0.0843
396.35	0.0831
396.676	0.0822
397.001	0.0812
397.327	0.0799
397.653	0.0784
397.978	0.0771
398.303	0.0765
398.629	0.0742
398.954	0.0735
399.279	0.0724
399.604	0.0724
399.929	0.0715
400.254	0.0696
400.579	0.0692
400.904	0.0687
401.229	0.0676
401.553	0.0667
401.878	0.0664
402.202	0.0652
402.527	0.0645
402.851	0.0642
403.175	0.0628
403.5	0.0631
403.824	0.062
404.148	0.0617
404.472	0.0607
404.796	0.0609
405.119	0.0599
405.443	0.0601
405.767	0.0585
406.09	0.0586
406.414	0.0585
406.737	0.0578
407.061	0.0579
407.384	0.0572
407.707	0.0573
408.03	0.0565
408.353	0.0571
408.676	0.0563
408.999	0.056
409.322	0.0554
409.645	0.0555
409.968	0.0553
410.29	0.0548
410.613	0.0556
410.935	0.0547
411.258	0.0545
411.58	0.0543
411.902	0.0545
412.224	0.0537
412.546	0.0535
412.868	0.0537
413.19	0.0537
413.512	0.0536
413.834	0.0524
414.156	0.0527
414.477	0.0532
414.799	0.0525
415.121	0.0535
415.442	0.0529
415.763	0.0521
416.085	0.0526
416.406	0.0529
416.727	0.0527
417.048	0.0525
417.369	0.0521
417.69	0.052
418.011	0.0519
418.331	0.0525
418.652	0.0524
418.973	0.0527
419.293	0.0528
419.614	0.0527
419.934	0.0528
420.254	0.0529
420.574	0.0529
420.895	0.0526
421.215	0.0523
421.535	0.0523
421.855	0.0519
422.174	0.0515
422.494	0.0512
422.814	0.0517
423.134	0.0521
423.453	0.0516
423.773	0.0518
424.092	0.0519
424.411	0.0516
424.731	0.0524
425.05	0.0516
425.369	0.052
425.688	0.0523
426.007	0.052
426.326	0.0523
426.644	0.0521
426.963	0.0528
427.282	0.0521
427.6	0.0518
427.919	0.0517
428.237	0.0517
428.556	0.0523
428.874	0.0523
429.192	0.0528
429.51	0.0528
429.828	0.052
430.146	0.0524
430.464	0.0518
430.782	0.0522
431.1	0.0517
431.418	0.0517
431.735	0.0518
432.053	0.0522
432.37	0.0518
432.688	0.0524
433.005	0.0514
433.322	0.0524
433.639	0.0521
433.957	0.0522
434.274	0.052
434.591	0.0516
434.907	0.0525
435.224	0.0516
435.541	0.0518
435.858	0.0522
436.174	0.0524
436.491	0.0521
436.807	0.0512
437.124	0.0509
437.44	0.0523
437.756	0.0518
438.072	0.0525
438.388	0.0524
438.704	0.0511
439.02	0.0521
439.336	0.0514
439.652	0.0508
439.968	0.0505
440.283	0.0509
440.599	0.0509
440.914	0.0518
441.23	0.0515
441.545	0.0504
441.86	0.0507
442.175	0.0502
442.491	0.0512
442.806	0.0504
443.121	0.0505
443.435	0.0504
443.75	0.0498
444.065	0.0507
444.38	0.0495
444.694	0.0503
445.009	0.0501
445.323	0.0502
445.638	0.0493
445.952	0.0501
446.266	0.0501
446.58	0.0499
446.894	0.0495
447.208	0.0492
447.522	0.0488
447.836	0.0494
448.15	0.0485
448.464	0.0495
448.777	0.0485
449.091	0.0485
449.404	0.0484
449.718	0.0473
450.031	0.0481
450.345	0.0474
450.658	0.0479
450.971	0.0481
451.284	0.0479
451.597	0.0475
451.91	0.0475
452.223	0.0472
452.535	0.0467
452.848	0.0474
453.161	0.0461
453.473	0.0469
453.786	0.0461
454.098	0.0463
454.411	0.0474
454.723	0.0454
455.035	0.0457
455.347	0.0449
455.659	0.0448
455.971	0.0454
456.283	0.0446
456.595	0.0447
456.907	0.0452
457.218	0.0446
457.53	0.0434
457.841	0.0438
458.153	0.0436
458.464	0.0439
458.776	0.0432
459.087	0.0428
459.398	0.0438
459.709	0.0427
460.02	0.0436
460.331	0.042
460.642	0.0426
460.953	0.0422
461.263	0.0414
461.574	0.0408
461.885	0.0412
462.195	0.041
462.506	0.0414
462.816	0.0399
463.126	0.0411
463.437	0.04
463.747	0.0393
464.057	0.04
464.367	0.0394
464.677	0.0394
464.987	0.0391
465.296	0.0387
465.606	0.0378
465.916	0.0382
466.225	0.0386
466.535	0.0377
466.844	0.0374
467.154	0.0373
467.463	0.0368
467.772	0.0372
468.081	0.0371
468.39	0.0366
468.699	0.0363
469.008	0.0351
469.317	0.0353
469.626	0.0343
469.935	0.0348
470.243	0.035
470.552	0.0349
470.86	0.0344
471.169	0.0343
471.477	0.0338
471.785	0.0335
472.093	0.0333
472.402	0.0323
472.71	0.0323
473.018	0.0324
473.326	0.0322
473.633	0.0329
473.941	0.0319
474.249	0.0315
474.556	0.0324
474.864	0.032
475.171	0.0315
475.479	0.0304
475.786	0.0308
476.094	0.0303
476.401	0.0299
476.708	0.0291
477.015	0.0289
477.322	0.0293
477.629	0.0289
477.936	0.0292
478.242	0.0282
478.549	0.0286
478.856	0.0289
479.162	0.0284
479.469	0.0279
479.775	0.0282
480.081	0.0274
480.388	0.0266
480.694	0.0261
481	0.0265
481.306	0.0262
481.612	0.0266
481.918	0.0258
482.224	0.0259
482.53	0.0249
482.835	0.0251
483.141	0.0249
483.446	0.0254
483.752	0.024
484.057	0.024
484.363	0.0233
484.668	0.0235
484.973	0.0224
485.278	0.0228
485.583	0.0229
485.888	0.0229
486.193	0.0221
486.498	0.0213
486.803	0.022
487.107	0.022
487.412	0.0209
487.717	0.0214
488.021	0.0207
488.325	0.0216
488.63	0.0211
488.934	0.0204
489.238	0.0201
489.542	0.0186
489.846	0.019
490.15	0.0198
490.454	0.018
490.758	0.0183
491.062	0.0183
491.366	0.019
491.669	0.0181
491.973	0.0189
492.276	0.0173
492.58	0.0183
492.883	0.0165
493.186	0.0165
493.489	0.0168
493.792	0.0155
494.096	0.016
494.399	0.0162
494.701	0.0166
495.004	0.0153
495.307	0.0157
495.61	0.0149
495.912	0.0149
496.215	0.0141
496.517	0.0138
496.82	0.0146
497.122	0.0133
497.424	0.014
497.727	0.0144
498.029	0.0129
498.331	0.014
498.633	0.0135
498.935	0.0141
499.237	0.0132
499.538	0.0121
499.84	0.0123
500.142	0.0116
500.443	0.012
500.745	0.0119
501.046	0.0117
501.348	0.0111
501.649	0.0107
501.95	0.0096
502.251	0.0103
502.552	0.011
502.853	0.0093
503.154	0.0097
503.455	0.0097
503.756	0.0099
504.057	0.0107
504.357	0.0087
504.658	0.0101
504.958	0.0098
505.259	0.0102
505.559	0.009
505.859	0.0098
506.16	0.0079
506.46	0.009
506.76	0.0086
507.06	0.0078
507.36	0.0081
507.66	0.008
507.96	0.0083
508.259	0.0078
508.559	0.0084
508.859	0.0072
509.158	0.0073
509.457	0.0065
509.757	0.0076
510.056	0.0069
510.355	0.0077
510.655	0.0067
510.954	0.0069
511.253	0.0064
511.552	0.0062
511.851	0.0064
512.149	0.0057
512.448	0.0067
512.747	0.0068
513.045	0.005
513.344	0.0052
513.642	0.0048
513.941	0.0047
514.239	0.0049
514.537	0.0041
514.836	0.0056
515.134	0.0034
515.432	0.0046
515.73	0.0048
516.028	0.0049
516.326	0.0052
516.623	0.0046
516.921	0.0032
517.219	0.0043
517.516	0.0051
517.814	0.0043
518.111	0.0045
518.409	0.0031
518.706	0.0041
519.003	0.0048
519.3	0.0033
519.597	0.0029
519.894	0.0037
520.191	0.0031
520.488	0.003
520.785	0.0026
521.082	0.0028
521.378	0.0018
521.675	0.0026
521.971	0.002
522.268	0.0028
522.564	0.0027
522.861	0.0025
523.157	0.0032
523.453	0.003
523.749	0.0028
524.045	0.0031
524.341	0.0028
524.637	0.0019
524.933	0.0017
525.229	0.0024
525.524	0.001
525.82	0.0008
526.115	0.0021
526.411	0.0022
526.706	0.0012
527.002	0.0017
527.297	0.0017
527.592	0.002
527.887	0.0038
528.182	0.0025
528.477	0.0017
528.772	0.0014
529.067	0.0015
529.362	0.001
529.657	0.0015
529.951	0.0007
530.246	0.0005
530.54	0.0018
530.835	0.0002
531.129	0.0009
531.423	0.0001
531.718	0.0007
532.012	0.0011
532.306	0.0003
532.6	-0.0002
532.894	0.0009
533.188	0.002
533.482	0.0004
533.775	0.0006
534.069	0.0005
534.363	-0.0008
534.656	-0.0008
534.95	-0.0001
535.243	-0.0007
535.536	-0.0001
535.83	-0.0009
536.123	-0.0004
536.416	0.0003
536.709	-0.0005
537.002	-0.0013
537.295	0.0002
537.588	-0.0009
537.881	-0.0008
538.173	0.0001
538.466	-0.0002
538.759	-0.0003
539.051	-0.0002
539.344	-0.0008
539.636	-0.0001
539.928	-0.0002
540.22	0.0009
540.513	-0.0006
540.805	0.0005
541.097	-0.0007
541.389	0.0001
541.681	0.0004
541.972	0.0012
542.264	0.0011
542.556	0.0003
542.847	0.0012
543.139	0.0002
543.431	0.0005
543.722	-0.0002
544.013	0.0014
544.305	-0.0003
544.596	-0.0008
544.887	0.0005
545.178	0.0012
545.469	-0.0008
545.76	-0.0003
546.051	0.0011
546.342	0.0001
546.632	-0.0008
546.923	0.0006
547.214	-0.0016
547.504	-0.001
547.795	-0.0009
548.085	-0.001
548.375	-0.0009
548.666	-0.0017
548.956	-0.001
549.246	-0.0008
549.536	0.0004
549.826	0
550.116	-0.0005
550.406	-0.0011
550.695	-0.0017
550.985	-0.0006
551.275	-0.001
551.564	-0.0006
551.854	-0.0001
552.143	-0.0007
552.433	-0.0009
552.722	-0.0024
553.011	-0.0009
553.3	0.0002
553.589	0.0006
553.879	-0.0002
554.167	-0.0012
554.456	0.0007
554.745	-0.0002
555.034	-0.0011
555.323	0.0002
555.611	-0
555.9	-0.0005
556.188	-0.0015
556.477	-0.0005
556.765	-0.0016
557.053	-0.0014
557.342	-0.0004
557.63	-0.0002
557.918	-0.0006
558.206	0.0005
558.494	-0.0003
558.782	0.0004
559.069	0.0004
559.357	0.0003
559.645	-0.0003
559.932	0.0004
560.22	-0.0007
560.507	-0.0019
560.795	-0.0015
561.082	-0.0018
561.37	-0.0005
561.657	-0.0008
561.944	-0.0012
562.231	-0.0003
562.518	-0.0004
562.805	-0.0009
563.092	0.0008
563.379	0
563.665	-0.0003
563.952	-0.0001
564.239	-0.0004
564.525	-0.0005
564.811	0.0005
565.098	0.0005
565.384	-0.0001
565.67	0.0001
565.957	0.0013
566.243	0.0016
566.529	0.0002
566.815	0.0006
567.101	0.0016
567.387	0.0009
567.672	-0.0002
567.958	0.0003
568.244	0.0002
568.529	0.0005
568.815	0.0002
569.1	-0.0011
569.386	-0.001
569.671	0.0005
569.956	-0.0006
570.242	-0.0003
570.527	0.0001
570.812	0.0004
571.097	-0.0004
571.382	-0.0004
571.666	0.0005
571.951	0.0003
572.236	0.0007
572.521	-0.0001
572.805	-0.0002
573.09	-0.0004
573.374	-0.0004
573.659	-0.0002
573.943	-0.0007
574.227	0.0001
574.511	-0.0012
574.795	0.0001
575.079	0.0005
575.363	-0.0006
575.647	-0.0002
575.931	-0.0001
576.215	-0.0013
576.499	-0.0009
576.782	-0.0011
577.066	-0.0011
577.349	0.0001
577.633	-0.0008
577.916	-0.001
578.2	-0.0003
578.483	-0.0007
578.766	0.0001
579.049	0.0002
579.332	0.0002
579.615	-0.0002
579.898	-0.0001
580.181	0.0001
580.464	0.0003
580.746	0.0001
581.029	-0.0002
581.312	-0.0002
581.594	-0.0005
581.877	-0.0004
582.159	-0.0011
582.441	-0.0004
582.724	-0.0004
583.006	-0.0002
583.288	0
583.57	0.0007
583.852	0.0001
584.134	0.0007
584.416	0.0003
584.697	0.0002
584.979	-0.0003
585.261	-0.0008
585.542	-0.001
585.824	-0.0007
586.105	-0.0014
586.387	-0.0007
586.668	-0.0004
586.949	0.0004
587.231	0.0007
587.512	-0.0004
587.793	-0
588.074	-0.0008
588.355	0.0001
588.636	-0.001
588.916	-0.0012
589.197	-0.0003
589.478	-0.0005
589.758	-0.0004
590.039	-0.0001
590.319	-0
590.6	0.0003
590.88	0.0006
591.16	0.0001
591.441	0.0002
591.721	-0.0002
592.001	-0.0001
592.281	-0.0004
592.561	-0.0001
592.841	-0.0008
593.12	-0.0018
593.4	-0.0011
593.68	-0.002
593.959	-0.0017
594.239	-0.0013
594.518	-0.0005
594.798	-0.0001
595.077	-0.0014
595.356	-0.0012
595.636	-0.0008
595.915	-0.0011
596.194	-0.0008
596.473	-0.0006
596.752	0.0001
597.031	-0.0009
597.31	-0.0001
597.588	-0.0005
597.867	-0.0008
598.146	-0.0011
598.424	-0.0007
598.703	0.0003
598.981	-0.0012
599.259	-0.0017
599.538	-0.0014
599.816	-0.0005
600.094	-0.0003
600.372	-0.002
600.65	-0.0021
600.928	-0.0009
601.206	-0.0008
601.484	-0.0006
601.762	-0.0008
602.04	-0.0001
602.317	-0.0004
602.595	-0.0003
602.872	0.0003
603.15	0.0008
603.427	-0.0002
603.704	-0.0012
603.982	-0.0006
604.259	-0.0008
604.536	-0.0007
604.813	-0.001
605.09	-0.001
605.367	-0.001
605.644	-0.0017
605.921	-0.001
606.197	-0.0009
606.474	-0.0009
606.751	-0.0004
607.027	-0.001
607.304	0.0001
607.58	-0.0006
607.856	-0.0013
608.133	-0.0018
608.409	-0.001
608.685	-0.0005
608.961	-0.0006
609.237	-0.0013
609.513	-0.0015
609.789	-0.0004
610.065	-0.0011
610.341	-0.0012
610.616	-0.0005
610.892	0.0003
611.167	0.0012
611.443	0.0002
611.718	-0.0002
611.994	-0.0001
612.269	-0.0012
612.544	-0.0007
612.819	-0.0014
613.095	-0.0009
613.37	0
613.645	-0.0006
613.919	-0.0009
614.194	0.0001
614.469	0.0012
614.744	-0.0002
615.019	-0.001
615.293	-0.0005
615.568	-0.0008
615.842	-0.0007
616.116	-0.0001
616.391	0.001
616.665	0.0008
616.939	0.0003
617.213	0.0012
617.488	0.0006
617.762	-0.0014
618.035	-0.0003
618.309	-0.0016
618.583	-0.0003
618.857	0.0007
619.131	0.0008
619.404	0.0011
619.678	0.0001
619.951	-0.0006
620.225	-0.0004
620.498	-0.0007
620.771	-0.0001
621.045	-0.0014
621.318	-0.0016
621.591	-0.0019
621.864	-0.0019
622.137	-0.002
622.41	-0.0017
622.683	-0.0013
622.956	-0.0011
623.228	-0.0003
623.501	0.0003
623.774	-0.0012
624.046	-0.0002
624.319	-0.0014
624.591	-0.0015
624.863	-0.0004
625.136	0.0001
625.408	0.0007
625.68	0.0005
625.952	0.0006
626.224	-0.0004
626.496	-0.0001
626.768	0.0001
627.04	-0.0018
627.311	-0.0004
627.583	-0.0001
627.855	0.0005
628.126	0.0006
628.398	0.0014
628.669	0.0026
628.941	0.0021
629.212	0.0018
629.483	0.0007
629.755	-0.0001
630.026	0.0002
630.297	0.0014
630.568	0.0003
630.839	0.001
631.11	0.001
631.38	0.0007
631.651	0.0019
631.922	0.0011
632.192	-0.0007
632.463	0.0002
632.733	-0.0012
633.004	0.0001
633.274	-0.0009
633.545	0.0003
633.815	0.0002
634.085	-0.0011
634.355	-0.0014
634.625	-0.0022
634.895	-0.0015
635.165	-0.0008
635.435	-0.0023
635.705	-0.0011
635.974	-0.003
636.244	-0.001
636.514	-0.0002
636.783	-0.0007
637.053	-0.0014
637.322	-0.0004
637.591	-0.0009
637.861	-0.0025
638.13	-0.0016
638.399	-0.0022
638.668	-0.0029
638.937	-0.0021
639.206	-0.0032
639.475	-0.0029
639.744	-0.0032
640.013	-0.002
640.281	-0.0035
640.55	-0.0023
640.819	-0.0021
641.087	-0.0026
641.356	-0.0015
641.624	-0.0025
641.892	-0.0004
642.161	-0.0009
642.429	-0.0021
642.697	-0.0018
642.965	-0.0008
643.233	-0.0013
643.501	-0.0012
643.769	-0.0011
644.037	-0.001
644.305	-0.0019
644.572	-0.0021
644.84	-0.0019
645.108	-0.003
645.375	-0.0035
645.643	-0.0032
645.91	-0.0021
646.177	-0.0013
646.445	-0.0015
646.712	0.0006
646.979	-0.0002
647.246	0.001
647.513	0.0019
647.78	0.0002
648.047	-0.0013
648.314	-0.0025
648.58	-0.0025
648.847	-0.0026
649.114	-0.0011
649.38	-0.0011
649.647	-0.0017
649.913	-0.0012
650.18	-0.0017
650.446	-0.0014
650.712	-0.0026
650.978	-0.0026
651.245	-0.0026
651.511	-0.0019
651.777	-0.0022
652.043	-0.0026
652.309	-0.001
652.574	-0.0002
652.84	-0.0002
653.106	-0.0001
653.371	-0.0003
653.637	0.0006
653.903	-0.0002
654.168	0.0006
654.433	0.0008
654.699	0.0011
654.964	0.0026
655.229	0.0011
655.494	0.0003
655.759	-0.0016
656.024	-0.0002
656.289	-0
656.554	-0.002
656.819	-0.002
657.084	-0.001
657.349	-0.0006
657.613	0.0003
657.878	-0.0005
658.142	-0.0012
658.407	-0.0008
658.671	0.0003
658.936	-0.0007
659.2	-0.0011
659.464	-0.0004
659.728	-0.0004
659.992	-0.0015
660.256	-0.001
660.52	-0.0014
660.784	-0.0011
661.048	-0.0006
661.312	0.0003
661.575	-0
661.839	0.0009
662.103	-0.0009
662.366	-0.0009
662.63	-0.0013
662.893	-0.0014
663.156	-0.0012
663.42	-0.0029
663.683	-0.0022
663.946	-0.0033
664.209	-0.0028
664.472	-0.0033
664.735	-0.0025
664.998	-0.0019
665.261	-0.002
665.524	-0.0021
665.786	-0.0018
666.049	-0.0016
666.312	-0.0012
666.574	-0.0019
666.837	-0.002
667.099	-0.0009
667.361	-0.0014
667.624	-0.0019
667.886	-0.0025
668.148	-0.0024
668.41	-0.0019
668.672	-0.0032
668.934	-0.0012
669.196	-0.0016
669.458	-0.0002
669.72	0.0007
669.982	0.0005
670.243	0.0004
670.505	-0.0001
670.766	-0.0001
671.028	-0.001
671.289	-0.0025
671.551	-0.0021
671.812	-0.0022
672.073	-0.0021
672.334	-0.0026
672.596	-0.0027
672.857	-0.0027
673.118	-0.0018
673.379	-0.0029
673.639	-0.0032
673.9	-0.0032
674.161	-0.0023
674.422	-0.0033
674.682	-0.0027
674.943	-0.0032
675.203	-0.0026
675.464	-0.0035
675.724	-0.0048
675.985	-0.004
676.245	-0.0047
676.505	-0.0035
676.765	-0.0038
677.025	-0.0037
677.285	-0.0038
677.545	-0.0028
677.805	-0.0022
678.065	-0.0019
678.325	-0.0017
678.585	-0.0024
678.844	-0.0037
679.104	-0.0037
679.363	-0.0039
679.623	-0.0031
679.882	-0.0031
680.142	-0.0033
680.401	-0.0036
680.66	-0.0017
680.919	-0.0007
681.178	-0.0011
681.437	-0.0016
681.696	-0.0012
681.955	-0.0017
682.214	-0.0015
682.473	-0.0024
682.732	-0.0027
682.99	-0.0019
683.249	-0.0015
683.508	-0.0015
683.766	-0.0023
684.024	-0.0026
684.283	-0.0007
684.541	-0.0013
684.799	-0.0021
685.058	-0.0015
685.316	-0.0026
685.574	-0.0023
685.832	-0.0032
686.09	-0.0037
686.348	-0.0045
686.606	-0.0038
686.863	-0.0039
687.121	-0.0029
687.379	-0.0021
687.636	-0.0026
687.894	-0.0021
688.151	-0.0015
688.409	-0.002
688.666	-0.0024
688.923	-0.0032
689.181	-0.0034
689.438	-0.0036
689.695	-0.004
689.952	-0.0048
690.209	-0.0039
690.466	-0.0045
690.723	-0.0024
690.979	-0.0038
691.236	-0.0028
691.493	-0.0022
691.75	-0.0018
692.006	-0.0025
692.263	-0.0025
692.519	-0.0029
692.775	-0.0032
693.032	-0.0037
693.288	-0.0021
693.544	-0.0011
693.8	-0.0017
694.056	-0.0016
694.313	-0.002
694.568	-0.0014
694.824	-0.0021
695.08	-0.0024
695.336	-0.0041
695.592	-0.0033
695.847	-0.0023
696.103	-0.0027
696.359	-0.0028
696.614	-0.0032
696.869	-0.0029
697.125	-0.004
697.38	-0.0037
697.635	-0.0032
697.891	-0.0018
698.146	-0.0021
698.401	-0.0022
698.656	-0.0024
698.911	-0.0019
699.166	-0.0019
699.42	-0.0014
699.675	-0.0018
699.93	-0.0015
700.185	-0.0026
700.439	-0.0019
700.694	-0.0024
700.948	-0.0022
701.203	-0.0026
701.457	-0.0032
701.711	-0.0036
701.965	-0.0052
702.22	-0.0042
702.474	-0.0042
702.728	-0.0033
702.982	-0.0032
703.236	-0.0021
703.49	-0.0012
703.743	-0.0022
703.997	-0.0018
704.251	-0.0026
704.504	-0.0018
704.758	-0.0028
705.012	-0.0022
705.265	-0.002
705.518	-0.0016
705.772	-0.0017
706.025	-0.0014
706.278	-0.002
706.531	-0.0019
706.785	-0.002
707.038	-0.003
707.291	-0.0029
707.543	-0.002
707.796	-0.0034
708.049	-0.0036
708.302	-0.004
708.555	-0.0045
708.807	-0.0043
709.06	-0.0048
709.312	-0.004
709.565	-0.004
709.817	-0.0047
710.069	-0.004
710.322	-0.0055
710.574	-0.0059
710.826	-0.0055
711.078	-0.0046
711.33	-0.0045
711.582	-0.005
711.834	-0.005
712.086	-0.0062
712.338	-0.0067
712.59	-0.0059
712.841	-0.0064
713.093	-0.0061
713.344	-0.0056
713.596	-0.0055
713.847	-0.0048
714.099	-0.0045
714.35	-0.005
714.601	-0.0042
714.853	-0.0043
715.104	-0.0034
715.355	-0.0036
715.606	-0.0047
715.857	-0.0038
716.108	-0.0048
716.359	-0.0044
716.609	-0.0046
716.86	-0.0045
717.111	-0.0043
717.361	-0.0037
717.612	-0.0034
717.863	-0.0023
718.113	-0.0015
718.363	-0.002
718.614	-0.0012
718.864	-0.0013
719.114	-0.0015
719.364	-0.0002
719.614	-0.0014
719.865	-0.0008
720.114	-0.0013
720.364	0.0002
720.614	-0.0003
720.864	0.0002
721.114	-0.0002
721.364	-0.0007
721.613	-0.0009
721.863	-0.0014
722.112	-0.0017
722.362	-0.002
722.611	-0.003
722.86	-0.0033
723.11	-0.0026
723.359	-0.0028
723.608	-0.0024
723.857	-0.0019
724.106	-0.0016
724.355	-0.001
724.604	-0.002
724.853	-0.0019
725.102	-0.0039
725.351	-0.0029
725.599	-0.0036
725.848	-0.0036
726.097	-0.0027
726.345	-0.0035
726.594	-0.0046
726.842	-0.004
727.09	-0.0051
727.339	-0.0053
727.587	-0.0057
727.835	-0.0052
728.083	-0.0048
728.331	-0.0053
728.579	-0.0046
728.827	-0.0037
729.075	-0.0033
729.323	-0.0034
729.571	-0.004
729.818	-0.0034
730.066	-0.0034
730.314	-0.0033
730.561	-0.0014
730.809	-0.0014
731.056	-0.0012
731.303	-0.001
731.551	-0.0018
731.798	-0.0019
732.045	-0.0014
732.292	-0
732.539	-0.0008
732.786	-0.0002
733.033	-0.0006
733.28	-0.0001
733.527	-0.0006
733.774	-0.0006
734.021	-0.0029
734.267	-0.0035
734.514	-0.0031
734.76	-0.0036
735.007	-0.0034
735.253	-0.0036
735.5	-0.0034
735.746	-0.0031
735.992	-0.0026
736.238	-0.0028
736.485	-0.0022
736.731	-0.0022
736.977	-0.0027
737.223	-0.0023
737.469	-0.0023
737.715	-0.0016
737.96	-0.0021
738.206	-0.0034
738.452	-0.0026
738.697	-0.0023
738.943	-0.0027
739.189	-0.002
739.434	-0.0016
739.679	-0.003
739.925	-0.0032
740.17	-0.004
740.415	-0.0045
740.66	-0.0063
740.906	-0.0057
741.151	-0.0045
741.396	-0.0054
741.641	-0.0057
741.886	-0.0049
742.13	-0.0032
742.375	-0.0027
742.62	-0.0033
742.865	-0.0037
743.109	-0.002
743.354	-0.0007
743.598	0.0001
743.843	0.0006
744.087	0.0001
744.331	0.0001
744.576	0.0003
744.82	0.0011
745.064	0.0014
745.308	0.0019
745.552	0.002
745.796	0.0008
746.04	0.0011
746.284	-0.0002
746.528	0.0005
746.771	0.0024
747.015	0.0013
747.259	0.0013
747.502	-0.0006
747.746	-0.0016
747.989	-0.0012
748.233	-0.0019
748.476	-0.0002
748.719	0.0005
748.963	0.0016
749.206	0.0013
749.449	-0.0002
749.692	-0
749.935	0.0006
750.178	-0
750.421	-0.001
750.664	-0.0004
750.906	0.001
751.149	0.0008
751.392	0.0007
751.635	-0.0008
751.877	-0.0003
752.12	-0.0013
752.362	-0.0015
752.604	-0.0011
752.847	0.0004
753.089	0.0014
753.331	0.0011
753.573	0.0011
753.816	-0.0008
754.058	-0.0021
754.3	-0.0035
754.542	-0.0032
754.783	-0.0037
755.025	-0.0033
755.267	-0.003
755.509	-0.0033
755.75	-0.0033
755.992	-0.0027
756.234	-0.0039
756.475	-0.0039
756.716	-0.0035
756.958	-0.003
757.199	-0.0024
757.44	-0.0014
757.682	-0.0016
757.923	-0.0014
758.164	-0.0003
758.405	-0.0005
758.646	0.0017
758.887	0.0007
759.128	0.0011
759.369	0.0008
759.609	0.001
759.85	0.0004
760.091	0.0005
760.331	0.0002
760.572	-0.0007
760.812	-0.001
761.053	-0.0019
761.293	-0.0004
761.533	-0.0007
761.774	0.0011
762.014	0.0006
762.254	0.0014
762.494	0
762.734	0.0004
762.974	-0.0001
763.214	-0.0007
763.454	-0.0005
763.694	-0.0011
763.933	-0.0023
764.173	-0.0036
764.413	-0.0049
764.652	-0.0042
764.892	-0.0038
765.131	-0.0039
765.371	-0.0036
765.61	-0.0044
765.849	-0.0039
766.089	-0.0033
766.328	-0.0035
766.567	-0.0032
766.806	-0.0037
767.045	-0.0027
767.284	-0.0033
767.523	-0.0036
767.762	-0.0041
768.001	-0.0028
768.239	-0.0035
768.478	-0.0024
768.717	-0.0018
768.955	-0.0023
769.194	-0.0024
769.432	-0.0007
769.671	-0.0003
769.909	-0.0009
770.148	-0.0002
770.386	0.0003
770.624	0.0007
770.862	0.0015
771.1	0.0012
771.338	0.001
771.576	0.0001
771.814	0.0012
772.052	0.0012
772.29	0.0027
772.528	0.003
772.765	0.0044
773.003	0.0046
773.24	0.004
773.478	0.0029
773.716	0.0021
773.953	0.0018
774.19	0.0013
774.428	0.0027
774.665	0.0023
774.902	0.0032
775.139	0.0027
775.376	0.0023
775.613	0.0024
775.85	0.0025
776.087	0.001
776.324	0.0017
776.561	0.0009
776.798	0.0007
777.034	0.001
777.271	0.0012
777.508	0.0016
777.744	0.0029
777.981	0.0031
778.217	0.0032
778.454	0.0024
778.69	0.0014
778.926	0.0003
779.162	0.0001
779.399	0.0004
779.635	-0.0001
779.871	0.0003
780.107	-0.0003
780.343	-0.0009
780.579	0.0002
780.814	-0.0008
781.05	-0.0009
781.286	-0.0013
781.522	-0.0018
781.757	-0.0012
781.993	-0.0013
782.228	-0.0021
782.464	-0.0005
782.699	-0.0017
782.934	-0.0023
783.17	-0.0021
783.405	-0.0026
783.64	-0.0027
783.875	-0.003
784.11	-0.004
784.345	-0.0026
784.58	-0.0015
784.815	-0.001
785.05	-0.0019
785.285	-0.0029
785.52	-0.0034
785.754	-0.0032
785.989	-0.0033
786.223	-0.0045
786.458	-0.0041
786.692	-0.0041
786.927	-0.003
787.161	-0.0026
787.396	-0.0036
787.63	-0.0041
787.864	-0.0059
788.098	-0.0066
788.332	-0.0059
788.566	-0.0053
788.8	-0.0045
789.034	-0.0035
789.268	-0.0032
789.502	-0.0031
789.736	-0.0031
789.969	-0.0028
790.203	-0.0034
790.437	-0.0054
790.67	-0.0061
790.904	-0.0063
791.137	-0.0074
791.37	-0.0075
791.604	-0.008
791.837	-0.0079
792.07	-0.0066
792.303	-0.0066
792.537	-0.0064
792.77	-0.0064
793.003	-0.0048
793.236	-0.004
793.469	-0.0044
793.701	-0.0034
793.934	-0.0025
794.167	-0.0015
794.4	-0.002
794.632	-0.0009
794.865	-0.0008
795.097	-0.0011
795.33	-0.0023
795.562	-0.0009
795.795	-0.0003
796.027	0.0003
796.259	-0.0002
796.491	-0.0003
796.724	-0.0001
796.956	0.0007
797.188	-0.0009
797.42	-0.0006
797.652	-0.0007
797.883	-0.0005
798.115	0.0002
798.347	-0.001
798.579	0.0004
798.81	0.0003
799.042	0.0011
799.274	0.0001
799.505	-0.0003
799.737	0.0001
799.968	-0.0013
800.199	-0.0019
800.431	-0.002
800.662	-0.0028
800.893	-0.0031
801.124	-0.003
801.355	-0.0033
801.586	-0.0026
801.817	-0.0037
802.048	-0.0046
802.279	-0.004
802.51	-0.0019
802.741	-0.0009
802.971	-0.0001
803.202	-0.0011
803.433	-0.0011
803.663	-0.0028
803.894	-0.0037
804.124	-0.004
804.354	-0.0041
804.585	-0.0041
804.815	-0.0033
805.045	-0.0032
805.275	-0.0029
805.506	-0.0881
805.736	0.1357
805.966	0.2126
806.196	0.0763
