Data from 03 0.5 mM K2Cr2O7 0.3 mM BQDS 1 M H2SO4 5 min_Absorbance_0201.txt Node
Date: Tue Dec 14 10:24:45 EST 2021
User: kwabilab-user
Spectrometer: HDX00518
Trigger mode: 0
Integration Time (sec): 5.000000E-2
Scans to average: 50
Nonlinearity correction enabled: false
Boxcar width: 0
Storing dark spectrum: false
XAxis mode: Wavelengths
Number of Pixels in Spectrum: 2068
>>>>>Begin Spectral Data<<<<<
195.27	0.0576
195.642	0.0126
196.014	0.0845
196.386	0.2311
196.758	0.0025
197.129	0.0192
197.501	0.007
197.872	0.0122
198.244	0.0287
198.615	0.0341
198.986	0.0402
199.357	0.0501
199.728	0.0619
200.099	0.0392
200.47	0.0313
200.841	0.058
201.212	0.056
201.582	0.0591
201.953	0.0526
202.323	0.0645
202.694	0.0547
203.064	0.0452
203.434	0.0557
203.804	0.0179
204.174	0.0533
204.544	0.0558
204.914	0.054
205.284	0.0543
205.653	0.0313
206.023	0.0622
206.393	0.0195
206.762	0.0443
207.131	0.0467
207.501	0.0385
207.87	0.0603
208.239	0.0575
208.608	0.0595
208.977	0.0396
209.346	0.0258
209.715	0.0393
210.083	0.0385
210.452	0.035
210.82	0.0575
211.189	0.0537
211.557	0.0812
211.925	0.0094
212.294	0.0528
212.662	0.0586
213.03	0.0412
213.398	0.0812
213.766	0.0703
214.133	0.0375
214.501	0.0758
214.869	0.0779
215.236	0.0672
215.604	0.0551
215.971	0.0642
216.338	0.0669
216.705	0.0809
217.072	0.0906
217.439	0.0756
217.806	0.079
218.173	0.0655
218.54	0.0718
218.907	0.0849
219.273	0.0967
219.64	0.0977
220.006	0.1289
220.373	0.1115
220.739	0.1398
221.105	0.1419
221.471	0.1522
221.837	0.1928
222.203	0.1987
222.569	0.237
222.935	0.2597
223.3	0.2294
223.666	0.2696
224.031	0.2966
224.397	0.2774
224.762	0.3277
225.127	0.3475
225.493	0.375
225.858	0.3771
226.223	0.4187
226.588	0.4513
226.952	0.4673
227.317	0.4812
227.682	0.4872
228.046	0.4936
228.411	0.5282
228.775	0.5477
229.14	0.557
229.504	0.5699
229.868	0.5775
230.232	0.5848
230.596	0.5862
230.96	0.6148
231.324	0.6124
231.688	0.6243
232.052	0.642
232.415	0.6332
232.779	0.642
233.142	0.6599
233.505	0.66
233.869	0.6641
234.232	0.6608
234.595	0.6536
234.958	0.6515
235.321	0.6711
235.684	0.6672
236.047	0.6676
236.409	0.6509
236.772	0.6638
237.134	0.6645
237.497	0.6555
237.859	0.6667
238.222	0.6659
238.584	0.6635
238.946	0.6509
239.308	0.6506
239.67	0.642
240.032	0.6507
240.393	0.6462
240.755	0.6307
241.117	0.6436
241.478	0.6333
241.84	0.6385
242.201	0.6282
242.562	0.6164
242.924	0.6182
243.285	0.6177
243.646	0.6197
244.007	0.6112
244.368	0.6147
244.728	0.6159
245.089	0.6067
245.45	0.6038
245.81	0.6057
246.171	0.6086
246.531	0.6051
246.891	0.6027
247.252	0.5943
247.612	0.599
247.972	0.5963
248.332	0.5972
248.692	0.5936
249.051	0.595
249.411	0.5903
249.771	0.5885
250.13	0.5873
250.49	0.5832
250.849	0.5806
251.208	0.5839
251.568	0.5891
251.927	0.5896
252.286	0.5836
252.645	0.5799
253.004	0.5847
253.363	0.5726
253.721	0.5768
254.08	0.5817
254.439	0.5766
254.797	0.5721
255.155	0.5687
255.514	0.5743
255.872	0.5692
256.23	0.5612
256.588	0.5679
256.946	0.5636
257.304	0.567
257.662	0.5627
258.02	0.5653
258.377	0.5676
258.735	0.5566
259.093	0.5612
259.45	0.5544
259.807	0.5572
260.165	0.5571
260.522	0.5532
260.879	0.5461
261.236	0.5481
261.593	0.5466
261.95	0.5383
262.306	0.5408
262.663	0.5382
263.02	0.5376
263.376	0.5314
263.733	0.5331
264.089	0.5292
264.445	0.529
264.802	0.5321
265.158	0.5234
265.514	0.527
265.87	0.5182
266.226	0.5203
266.581	0.518
266.937	0.5123
267.293	0.5064
267.648	0.5021
268.004	0.5034
268.359	0.501
268.714	0.4966
269.07	0.4986
269.425	0.4928
269.78	0.4873
270.135	0.4913
270.49	0.4871
270.844	0.485
271.199	0.4798
271.554	0.4776
271.908	0.4704
272.263	0.4712
272.617	0.4677
272.972	0.468
273.326	0.4601
273.68	0.4586
274.034	0.4534
274.388	0.4508
274.742	0.4491
275.096	0.4459
275.45	0.4409
275.803	0.4391
276.157	0.4378
276.51	0.4319
276.864	0.4308
277.217	0.4225
277.571	0.421
277.924	0.4178
278.277	0.41
278.63	0.4078
278.983	0.4032
279.336	0.4057
279.688	0.3972
280.041	0.3955
280.394	0.3892
280.746	0.3868
281.099	0.3805
281.451	0.379
281.803	0.3724
282.156	0.3674
282.508	0.3644
282.86	0.3606
283.212	0.3542
283.564	0.3516
283.916	0.3491
284.267	0.3449
284.619	0.3401
284.971	0.3391
285.322	0.3329
285.673	0.3306
286.025	0.3243
286.376	0.3225
286.727	0.3187
287.078	0.3161
287.429	0.3108
287.78	0.3087
288.131	0.304
288.482	0.2997
288.833	0.2941
289.183	0.2907
289.534	0.2858
289.884	0.2841
290.235	0.2789
290.585	0.2749
290.935	0.2728
291.285	0.2665
291.635	0.265
291.985	0.261
292.335	0.2578
292.685	0.2548
293.035	0.251
293.384	0.2474
293.734	0.2436
294.083	0.2401
294.433	0.2348
294.782	0.2329
295.131	0.2301
295.48	0.2238
295.829	0.2222
296.179	0.2193
296.527	0.2159
296.876	0.2128
297.225	0.2107
297.574	0.2055
297.922	0.2038
298.271	0.1995
298.619	0.1963
298.968	0.1929
299.316	0.191
299.664	0.188
300.012	0.1853
300.36	0.1819
300.708	0.1803
301.056	0.1782
301.404	0.1748
301.752	0.1726
302.099	0.1698
302.447	0.1682
302.794	0.1658
303.142	0.1634
303.489	0.1612
303.836	0.1595
304.183	0.1579
304.531	0.1564
304.878	0.1537
305.224	0.1531
305.571	0.1501
305.918	0.1489
306.265	0.1481
306.611	0.1459
306.958	0.1461
307.304	0.1441
307.651	0.1434
307.997	0.1424
308.343	0.1414
308.689	0.1401
309.035	0.1389
309.381	0.1393
309.727	0.1374
310.073	0.1375
310.419	0.1375
310.764	0.1356
311.11	0.1349
311.455	0.1352
311.801	0.1352
312.146	0.1341
312.491	0.1342
312.837	0.1338
313.182	0.1336
313.527	0.1342
313.872	0.1341
314.216	0.1346
314.561	0.134
314.906	0.1339
315.251	0.1347
315.595	0.135
315.94	0.1352
316.284	0.1363
316.628	0.1367
316.972	0.1375
317.317	0.1376
317.661	0.1381
318.005	0.138
318.348	0.1403
318.692	0.1408
319.036	0.1404
319.38	0.1419
319.723	0.1426
320.067	0.1442
320.41	0.1445
320.754	0.1463
321.097	0.1473
321.44	0.1479
321.783	0.149
322.126	0.1506
322.469	0.1513
322.812	0.1525
323.155	0.1545
323.498	0.1555
323.84	0.1569
324.183	0.1589
324.525	0.1607
324.868	0.1616
325.21	0.1623
325.552	0.1651
325.894	0.1654
326.236	0.1671
326.578	0.169
326.92	0.1704
327.262	0.1719
327.604	0.1739
327.946	0.1747
328.287	0.176
328.629	0.1787
328.97	0.181
329.312	0.1812
329.653	0.1828
329.994	0.1842
330.335	0.1856
330.676	0.1883
331.017	0.1896
331.358	0.1919
331.699	0.1937
332.04	0.1954
332.38	0.1967
332.721	0.1981
333.061	0.2006
333.402	0.2015
333.742	0.2035
334.083	0.2056
334.423	0.2065
334.763	0.2074
335.103	0.2092
335.443	0.2106
335.783	0.2123
336.123	0.2136
336.462	0.2145
336.802	0.216
337.141	0.2181
337.481	0.2192
337.82	0.2204
338.16	0.2216
338.499	0.2236
338.838	0.2236
339.177	0.2269
339.516	0.2276
339.855	0.2288
340.194	0.2298
340.533	0.2309
340.872	0.2319
341.21	0.2325
341.549	0.2339
341.887	0.2346
342.226	0.2357
342.564	0.2366
342.902	0.2378
343.24	0.2384
343.578	0.2383
343.916	0.2395
344.254	0.2395
344.592	0.2393
344.93	0.2403
345.268	0.2409
345.605	0.2403
345.943	0.2404
346.28	0.2418
346.618	0.2427
346.955	0.2428
347.292	0.2425
347.629	0.2428
347.966	0.2434
348.303	0.2434
348.64	0.2447
348.977	0.2437
349.314	0.2441
349.65	0.2442
349.987	0.2441
350.324	0.2444
350.66	0.244
350.996	0.2429
351.333	0.2432
351.669	0.2427
352.005	0.2425
352.341	0.2412
352.677	0.2397
353.013	0.2395
353.349	0.2388
353.685	0.2381
354.02	0.2363
354.356	0.2353
354.691	0.2343
355.027	0.2338
355.362	0.2329
355.697	0.2331
356.033	0.2316
356.368	0.2306
356.703	0.2294
357.038	0.2288
357.373	0.2278
357.707	0.2265
358.042	0.2255
358.377	0.2257
358.711	0.224
359.046	0.2226
359.38	0.2224
359.715	0.2213
360.049	0.2204
360.383	0.2193
360.717	0.2177
361.051	0.2164
361.385	0.2158
361.719	0.213
362.053	0.2113
362.387	0.2098
362.72	0.2087
363.054	0.2065
363.387	0.2048
363.721	0.203
364.054	0.2008
364.387	0.1992
364.721	0.1976
365.054	0.1957
365.387	0.1941
365.72	0.1929
366.053	0.1917
366.385	0.1893
366.718	0.1872
367.051	0.1869
367.383	0.1855
367.716	0.1839
368.048	0.1834
368.381	0.1803
368.713	0.1804
369.045	0.1797
369.377	0.1771
369.709	0.1763
370.041	0.1752
370.373	0.1732
370.705	0.1715
371.037	0.1702
371.368	0.1682
371.7	0.1676
372.031	0.1651
372.363	0.1624
372.694	0.1609
373.025	0.1589
373.356	0.1566
373.688	0.155
374.019	0.1534
374.35	0.1512
374.68	0.1491
375.011	0.1472
375.342	0.1445
375.673	0.1439
376.003	0.1408
376.334	0.1396
376.664	0.1384
376.995	0.1364
377.325	0.1338
377.655	0.1333
377.985	0.1315
378.315	0.1302
378.645	0.1294
378.975	0.1273
379.305	0.126
379.635	0.1254
379.964	0.1246
380.294	0.1217
380.623	0.1217
380.953	0.1201
381.282	0.1181
381.611	0.1163
381.941	0.1157
382.27	0.114
382.599	0.1124
382.928	0.1108
383.257	0.1097
383.585	0.1078
383.914	0.107
384.243	0.1054
384.571	0.1036
384.9	0.1017
385.228	0.1001
385.557	0.0978
385.885	0.0967
386.213	0.0948
386.541	0.0938
386.869	0.0925
387.197	0.0897
387.525	0.0882
387.853	0.0871
388.181	0.0856
388.508	0.0837
388.836	0.0824
389.164	0.0816
389.491	0.08
389.818	0.079
390.146	0.0782
390.473	0.0771
390.8	0.0761
391.127	0.0742
391.454	0.0733
391.781	0.0727
392.108	0.0717
392.435	0.0699
392.761	0.0696
393.088	0.0681
393.415	0.0675
393.741	0.0669
394.067	0.0657
394.394	0.0654
394.72	0.064
395.046	0.0633
395.372	0.0623
395.698	0.0623
396.024	0.0611
396.35	0.0601
396.676	0.0587
397.001	0.0585
397.327	0.0572
397.653	0.0561
397.978	0.0545
398.303	0.0539
398.629	0.0523
398.954	0.0515
399.279	0.0512
399.604	0.0515
399.929	0.0506
400.254	0.0499
400.579	0.0493
400.904	0.0486
401.229	0.0478
401.553	0.0475
401.878	0.0467
402.202	0.0459
402.527	0.0455
402.851	0.0458
403.175	0.0443
403.5	0.0442
403.824	0.0442
404.148	0.0437
404.472	0.0425
404.796	0.0426
405.119	0.0422
405.443	0.0415
405.767	0.0407
406.09	0.041
406.414	0.0407
406.737	0.0411
407.061	0.04
407.384	0.0405
407.707	0.0405
408.03	0.04
408.353	0.0401
408.676	0.0392
408.999	0.0392
409.322	0.0394
409.645	0.0392
409.968	0.0391
410.29	0.0389
410.613	0.0394
410.935	0.0394
411.258	0.0384
411.58	0.0383
411.902	0.0386
412.224	0.038
412.546	0.0382
412.868	0.0379
413.19	0.0382
413.512	0.0385
413.834	0.038
414.156	0.0375
414.477	0.038
414.799	0.0371
415.121	0.0381
415.442	0.0377
415.763	0.0374
416.085	0.0375
416.406	0.0383
416.727	0.0379
417.048	0.0381
417.369	0.0375
417.69	0.0368
418.011	0.0368
418.331	0.0376
418.652	0.0378
418.973	0.038
419.293	0.0377
419.614	0.038
419.934	0.0382
420.254	0.0377
420.574	0.0377
420.895	0.0379
421.215	0.0371
421.535	0.0377
421.855	0.037
422.174	0.0373
422.494	0.0369
422.814	0.0375
423.134	0.0374
423.453	0.0374
423.773	0.0379
424.092	0.038
424.411	0.0377
424.731	0.0382
425.05	0.0372
425.369	0.037
425.688	0.038
426.007	0.0375
426.326	0.0378
426.644	0.0375
426.963	0.0379
427.282	0.0378
427.6	0.0378
427.919	0.0378
428.237	0.0382
428.556	0.0387
428.874	0.038
429.192	0.0382
429.51	0.0384
429.828	0.0381
430.146	0.038
430.464	0.0374
430.782	0.038
431.1	0.0384
431.418	0.0378
431.735	0.0378
432.053	0.038
432.37	0.0382
432.688	0.0379
433.005	0.0382
433.322	0.0385
433.639	0.0384
433.957	0.0386
434.274	0.0383
434.591	0.0383
434.907	0.0375
435.224	0.038
435.541	0.0379
435.858	0.0379
436.174	0.0389
436.491	0.0377
436.807	0.037
437.124	0.0377
437.44	0.0383
437.756	0.0379
438.072	0.0388
438.388	0.038
438.704	0.0375
439.02	0.0379
439.336	0.0376
439.652	0.0376
439.968	0.0374
440.283	0.0366
440.599	0.0368
440.914	0.0378
441.23	0.0379
441.545	0.0378
441.86	0.0373
442.175	0.037
442.491	0.0377
442.806	0.0372
443.121	0.0374
443.435	0.0372
443.75	0.0369
444.065	0.0365
444.38	0.037
444.694	0.0368
445.009	0.0361
445.323	0.0366
445.638	0.0354
445.952	0.0369
446.266	0.0366
446.58	0.0369
446.894	0.0362
447.208	0.0363
447.522	0.0364
447.836	0.0363
448.15	0.0357
448.464	0.0362
448.777	0.0359
449.091	0.0355
449.404	0.0354
449.718	0.036
450.031	0.0349
450.345	0.035
450.658	0.0354
450.971	0.0353
451.284	0.0347
451.597	0.0344
451.91	0.0345
452.223	0.0342
452.535	0.0343
452.848	0.0346
453.161	0.0336
453.473	0.0339
453.786	0.0334
454.098	0.0335
454.411	0.0343
454.723	0.0335
455.035	0.0332
455.347	0.0322
455.659	0.0326
455.971	0.0336
456.283	0.0328
456.595	0.0325
456.907	0.0324
457.218	0.0324
457.53	0.0317
457.841	0.0323
458.153	0.0322
458.464	0.0321
458.776	0.0317
459.087	0.0319
459.398	0.0321
459.709	0.0311
460.02	0.0315
460.331	0.0298
460.642	0.0306
460.953	0.0304
461.263	0.0294
461.574	0.03
461.885	0.0297
462.195	0.0298
462.506	0.0292
462.816	0.0292
463.126	0.0297
463.437	0.0294
463.747	0.0288
464.057	0.0282
464.367	0.0283
464.677	0.0281
464.987	0.0279
465.296	0.0278
465.606	0.0265
465.916	0.0273
466.225	0.0273
466.535	0.0267
466.844	0.0274
467.154	0.0271
467.463	0.0264
467.772	0.0262
468.081	0.0262
468.39	0.0258
468.699	0.0261
469.008	0.025
469.317	0.0249
469.626	0.0244
469.935	0.0246
470.243	0.0244
470.552	0.0248
470.86	0.0245
471.169	0.0247
471.477	0.024
471.785	0.0244
472.093	0.024
472.402	0.023
472.71	0.0243
473.018	0.0226
473.326	0.0222
473.633	0.0229
473.941	0.0225
474.249	0.0226
474.556	0.0228
474.864	0.0222
475.171	0.0215
475.479	0.0215
475.786	0.021
476.094	0.021
476.401	0.0207
476.708	0.0203
477.015	0.021
477.322	0.0208
477.629	0.0199
477.936	0.0202
478.242	0.0191
478.549	0.0193
478.856	0.0197
479.162	0.0192
479.469	0.0194
479.775	0.0201
480.081	0.0196
480.388	0.0184
480.694	0.018
481	0.017
481.306	0.0183
481.612	0.0173
481.918	0.0175
482.224	0.0175
482.53	0.0171
482.835	0.0176
483.141	0.0163
483.446	0.017
483.752	0.0159
484.057	0.0162
484.363	0.0155
484.668	0.0154
484.973	0.0149
485.278	0.0146
485.583	0.0144
485.888	0.0142
486.193	0.0136
486.498	0.014
486.803	0.014
487.107	0.0138
487.412	0.0144
487.717	0.0132
488.021	0.0135
488.325	0.0146
488.63	0.0139
488.934	0.0142
489.238	0.0129
489.542	0.0118
489.846	0.0125
490.15	0.0127
490.454	0.0116
490.758	0.0118
491.062	0.0114
491.366	0.0117
491.669	0.0122
491.973	0.0127
492.276	0.0115
492.58	0.0113
492.883	0.0106
493.186	0.0118
493.489	0.0105
493.792	0.0093
494.096	0.0092
494.399	0.0102
494.701	0.0105
495.004	0.0091
495.307	0.0103
495.61	0.0084
495.912	0.009
496.215	0.008
496.517	0.0081
496.82	0.0086
497.122	0.0082
497.424	0.0088
497.727	0.0079
498.029	0.008
498.331	0.0085
498.633	0.0085
498.935	0.0082
499.237	0.0072
499.538	0.0071
499.84	0.007
500.142	0.0068
500.443	0.0057
500.745	0.0069
501.046	0.0066
501.348	0.0065
501.649	0.0058
501.95	0.0055
502.251	0.005
502.552	0.0057
502.853	0.0047
503.154	0.0051
503.455	0.0061
503.756	0.005
504.057	0.0054
504.357	0.0047
504.658	0.0048
504.958	0.0054
505.259	0.0052
505.559	0.0042
505.859	0.004
506.16	0.0045
506.46	0.0038
506.76	0.0044
507.06	0.0045
507.36	0.0036
507.66	0.0037
507.96	0.0051
508.259	0.0039
508.559	0.0044
508.859	0.0035
509.158	0.0028
509.457	0.0031
509.757	0.0036
510.056	0.0035
510.355	0.0031
510.655	0.0029
510.954	0.0038
511.253	0.0027
511.552	0.0035
511.851	0.0029
512.149	0.0021
512.448	0.003
512.747	0.0031
513.045	0.0023
513.344	0.0012
513.642	0.0013
513.941	0.0022
514.239	0.0012
514.537	0.0008
514.836	0.0025
515.134	0.0004
515.432	0.0025
515.73	0.0012
516.028	0.0021
516.326	0.0016
516.623	0.0013
516.921	-0
517.219	0.0011
517.516	0.0009
517.814	0.0012
518.111	0.0018
518.409	-0.0001
518.706	-0.0003
519.003	0.0013
519.3	0.0006
519.597	-0
519.894	0.0022
520.191	0.0012
520.488	0.0014
520.785	0.0005
521.082	0.0009
521.378	0.0005
521.675	0.0001
521.971	-0.0003
522.268	0.0011
522.564	0.0003
522.861	0.0007
523.157	0.0003
523.453	0.0011
523.749	0.0004
524.045	0.002
524.341	0.0005
524.637	-0
524.933	0.0001
525.229	0.0004
525.524	-0.0003
525.82	-0.0007
526.115	-0.001
526.411	0
526.706	-0.0005
527.002	0.0002
527.297	-0.0002
527.592	0.0008
527.887	0.0013
528.182	0.0001
528.477	0.001
528.772	0.0005
529.067	0.0005
529.362	-0.001
529.657	-0.0004
529.951	-0.0003
530.246	-0.0005
530.54	-0.0009
530.835	-0.0005
531.129	-0.0004
531.423	-0.0003
531.718	0.0009
532.012	-0.0007
532.306	-0.0012
532.6	-0.0013
532.894	-0.0001
533.188	0.0001
533.482	0.0006
533.775	0.0001
534.069	-0.0006
534.363	-0.0021
534.656	-0.0018
534.95	-0.0007
535.243	-0.001
535.536	-0.0008
535.83	-0.0023
536.123	-0.001
536.416	-0.0011
536.709	-0.0013
537.002	-0.0017
537.295	-0.002
537.588	-0.0017
537.881	-0.0014
538.173	-0.0016
538.466	-0.0016
538.759	-0
539.051	-0.0015
539.344	-0.0015
539.636	-0.0011
539.928	-0.0014
540.22	-0.0017
540.513	-0.0005
540.805	-0.0006
541.097	-0.0021
541.389	-0.0014
541.681	-0.0008
541.972	-0.0007
542.264	-0.0006
542.556	-0.001
542.847	-0.0007
543.139	-0.0004
543.431	-0.0016
543.722	-0.002
544.013	-0.0009
544.305	-0.0014
544.596	-0.0029
544.887	-0.0019
545.178	-0.0012
545.469	-0.0024
545.76	-0.001
546.051	-0.0009
546.342	-0.002
546.632	-0.0012
546.923	-0.0015
547.214	-0.0017
547.504	-0.0019
547.795	-0.0017
548.085	-0.002
548.375	-0.0027
548.666	-0.0021
548.956	-0.0009
549.246	-0.0017
549.536	-0.0012
549.826	-0.0006
550.116	-0.0011
550.406	-0.0014
550.695	-0.0023
550.985	-0.0011
551.275	-0.0017
551.564	-0.0015
551.854	-0
552.143	-0.0017
552.433	-0.0024
552.722	-0.0024
553.011	-0.0001
553.3	0.0004
553.589	-0.0006
553.879	-0.0011
554.167	-0.0013
554.456	0.0001
554.745	0.0005
555.034	-0.0013
555.323	0.0002
555.611	-0.0001
555.9	-0
556.188	-0.0012
556.477	-0.0004
556.765	-0.0015
557.053	-0.001
557.342	-0
557.63	-0
557.918	0.0004
558.206	0.0005
558.494	0.0004
558.782	-0.0004
559.069	0.0015
559.357	0.0014
559.645	-0.0003
559.932	0
560.22	-0.0008
560.507	-0.0014
560.795	-0.0005
561.082	-0.0015
561.37	0.0003
561.657	-0.0013
561.944	-0.0007
562.231	-0
562.518	-0.0007
562.805	0.0001
563.092	0.0007
563.379	0.0001
563.665	0.0002
563.952	-0.0004
564.239	0.0014
564.525	0.0007
564.811	0.0011
565.098	0.0007
565.384	-0.0001
565.67	0.0014
565.957	0.0016
566.243	0.0019
566.529	0.0001
566.815	0.001
567.101	0.002
567.387	0.0011
567.672	0.0002
567.958	0.0009
568.244	-0.0001
568.529	0.0008
568.815	-0.0004
569.1	-0.0007
569.386	-0.0013
569.671	0.0004
569.956	-0.0001
570.242	0.0002
570.527	-0.0006
570.812	0.0005
571.097	-0.0004
571.382	-0.0005
571.666	0.0004
571.951	-0.0007
572.236	-0.0005
572.521	0.0006
572.805	-0.0006
573.09	0
573.374	-0.0019
573.659	-0.0004
573.943	-0.0009
574.227	-0.0012
574.511	-0.0015
574.795	-0.0003
575.079	-0.0004
575.363	-0.0011
575.647	-0.0005
575.931	-0.0006
576.215	-0.0004
576.499	-0.0016
576.782	-0.0016
577.066	-0.0006
577.349	-0
577.633	-0.0007
577.916	-0.0015
578.2	-0.0012
578.483	-0.0007
578.766	-0.0003
579.049	-0.0002
579.332	0.0005
579.615	0.0001
579.898	-0.0005
580.181	-0.0001
580.464	0.0006
580.746	-0.0004
581.029	-0.0006
581.312	-0.0015
581.594	-0.0018
581.877	-0.0017
582.159	-0.0018
582.441	-0.0012
582.724	-0.0007
583.006	-0.0002
583.288	0.0002
583.57	0.0006
583.852	0.0007
584.134	0
584.416	-0.0011
584.697	-0.0005
584.979	-0.0023
585.261	-0.0025
585.542	-0.0021
585.824	-0.0018
586.105	-0.0022
586.387	-0.0014
586.668	-0.0008
586.949	-0.0007
587.231	-0.0002
587.512	-0.0006
587.793	-0.0008
588.074	-0.0016
588.355	-0.0003
588.636	-0.0013
588.916	-0.0014
589.197	-0.0008
589.478	-0.0002
589.758	0
590.039	0.0002
590.319	-0
590.6	0.0011
590.88	0.0008
591.16	0.0011
591.441	0.0005
591.721	-0.0005
592.001	-0.0006
592.281	-0.0002
592.561	0.0004
592.841	-0.0019
593.12	-0.0029
593.4	-0.0016
593.68	-0.0027
593.959	-0.0017
594.239	-0.0007
594.518	-0.0005
594.798	0.0007
595.077	-0.0009
595.356	-0.0002
595.636	-0.0003
595.915	-0.0006
596.194	0.0006
596.473	0.0015
596.752	0.0008
597.031	0.0004
597.31	0.0002
597.588	-0.0007
597.867	-0.0001
598.146	-0.0017
598.424	-0.0001
598.703	-0.0008
598.981	-0.0018
599.259	-0.0018
599.538	-0.0012
599.816	-0.0003
600.094	-0.0015
600.372	-0.0018
600.65	-0.0021
600.928	-0.001
601.206	-0.0014
601.484	-0.0003
601.762	0.0003
602.04	0.0005
602.317	0.0006
602.595	0.0001
602.872	-0.0001
603.15	0.0009
603.427	-0.0019
603.704	-0.001
603.982	-0.0006
604.259	-0.0007
604.536	-0.0003
604.813	-0.0006
605.09	-0.0007
605.367	-0.0007
605.644	-0.0016
605.921	-0.0008
606.197	-0.0017
606.474	-0.0008
606.751	-0.0008
607.027	-0.0013
607.304	-0.0007
607.58	-0.0009
607.856	-0.0014
608.133	-0.0019
608.409	-0.0005
608.685	-0.0007
608.961	-0.0003
609.237	-0.0004
609.513	-0.0003
609.789	-0.0009
610.065	-0.0007
610.341	-0.0012
610.616	-0.0006
610.892	0.0005
611.167	0.0006
611.443	-0.0005
611.718	-0.001
611.994	-0.0007
612.269	0.0003
612.544	-0.0003
612.819	0
613.095	-0.0006
613.37	0.0004
613.645	-0.0005
613.919	-0.0003
614.194	0.0002
614.469	0.0008
614.744	-0.0003
615.019	-0.0009
615.293	-0.0015
615.568	0
615.842	0.0005
616.116	0.0013
616.391	0.0015
616.665	0.0013
616.939	0.0004
617.213	0.0007
617.488	0.0019
617.762	0.0002
618.035	0.0003
618.309	-0.0006
618.583	0.0011
618.857	0.002
619.131	0.0024
619.404	0.0019
619.678	0.0014
619.951	0
620.225	0.0007
620.498	0.0001
620.771	0.0007
621.045	0
621.318	0.0001
621.591	-0.001
621.864	-0.0006
622.137	-0.0015
622.41	-0.001
622.683	0.0002
622.956	0.0003
623.228	0.0008
623.501	0.0013
623.774	0.0013
624.046	0.0016
624.319	0.0005
624.591	-0.0005
624.863	0.0001
625.136	0.0009
625.408	0.0015
625.68	0.0012
625.952	0.0017
626.224	0.0026
626.496	0.0022
626.768	0.0022
627.04	0.0013
627.311	-0.0003
627.583	0.0006
627.855	0.0025
628.126	0.0029
628.398	0.0031
628.669	0.0035
628.941	0.0041
629.212	0.0027
629.483	0.0022
629.755	0.0023
630.026	0.0023
630.297	0.0029
630.568	0.0023
630.839	0.0026
631.11	0.0025
631.38	0.0031
631.651	0.004
631.922	0.0029
632.192	0.0024
632.463	0.0022
632.733	0.0019
633.004	0.0029
633.274	0.0037
633.545	0.0038
633.815	0.0027
634.085	0.0014
634.355	0.0004
634.625	-0.0003
634.895	0.0003
635.165	0.0009
635.435	0.0006
635.705	0.0009
635.974	0.0002
636.244	0.0013
636.514	0.0017
636.783	0.0011
637.053	0.0018
637.322	0.0022
637.591	0.0032
637.861	0.0011
638.13	0.0017
638.399	0.0012
638.668	0.0012
638.937	0.0008
639.206	0.0002
639.475	0.0003
639.744	0.0008
640.013	0.002
640.281	0.0023
640.55	0.0019
640.819	0.0026
641.087	0.0029
641.356	0.0033
641.624	0.0035
641.892	0.0053
642.161	0.0041
642.429	0.0028
642.697	0.0025
642.965	0.003
643.233	0.0014
643.501	0.0017
643.769	0.0019
644.037	0.0022
644.305	0.0015
644.572	0.0016
644.84	0.0011
645.108	0
645.375	0.0003
645.643	0.0008
645.91	0.0028
646.177	0.003
646.445	0.0038
646.712	0.0042
646.979	0.0052
647.246	0.005
647.513	0.005
647.78	0.0033
648.047	0.0022
648.314	0.0002
648.58	0.0009
648.847	0.0017
649.114	0.0019
649.38	0.0021
649.647	0.0006
649.913	0.002
650.18	0.0032
650.446	0.0037
650.712	0.0022
650.978	0.0018
651.245	0.0006
651.511	0.0022
651.777	0.002
652.043	0.002
652.309	0.0027
652.574	0.0042
652.84	0.0036
653.106	0.0033
653.371	0.0036
653.637	0.0038
653.903	0.0039
654.168	0.0056
654.433	0.0066
654.699	0.0063
654.964	0.0062
655.229	0.0044
655.494	0.0016
655.759	-0.004
656.024	0.0003
656.289	-0
656.554	-0.0006
656.819	0.0005
657.084	0.0024
657.349	0.0027
657.613	0.0019
657.878	0.0025
658.142	0.0017
658.407	0.0018
658.671	0.003
658.936	0.0027
659.2	0.0028
659.464	0.0027
659.728	0.0033
659.992	0.003
660.256	0.0031
660.52	0.0029
660.784	0.0026
661.048	0.0017
661.312	0.0031
661.575	0.0034
661.839	0.0029
662.103	0.0019
662.366	0.0027
662.63	0.0015
662.893	0.0017
663.156	0.0018
663.42	0.0009
663.683	0.0004
663.946	-0.0002
664.209	-0
664.472	-0.0012
664.735	0.0002
664.998	0.0009
665.261	0.0008
665.524	0.0013
665.786	0.0015
666.049	0.001
666.312	0.0016
666.574	0.0007
666.837	0.0022
667.099	0.0023
667.361	0.0023
667.624	0.0016
667.886	0.0007
668.148	0.0012
668.41	0.0004
668.672	-0.0002
668.934	0.0018
669.196	0.0013
669.458	0.002
669.72	0.0022
669.982	0.0019
670.243	0.0034
670.505	0.0022
670.766	0.0035
671.028	0.0025
671.289	0.001
671.551	0.0012
671.812	-0.0009
672.073	0.0009
672.334	0.0013
672.596	0.0002
672.857	-0.0001
673.118	0.0008
673.379	0.0005
673.639	-0
673.9	0.0006
674.161	0.0003
674.422	-0.0001
674.682	0.0004
674.943	0.001
675.203	0.0009
675.464	0.001
675.724	-0.001
675.985	-0.0006
676.245	-0.0009
676.505	0.0003
676.765	-0.0001
677.025	0.0002
677.285	0.0008
677.545	0.0019
677.805	0.0013
678.065	0.0008
678.325	0.0022
678.585	0.0015
678.844	0.0001
679.104	0.0008
679.363	-0.0007
679.623	-0.0003
679.882	-0.0001
680.142	0.0014
680.401	0.0006
680.66	0.0031
680.919	0.0044
681.178	0.0041
681.437	0.0029
681.696	0.0016
681.955	0.0017
682.214	0.0027
682.473	0.0019
682.732	0.0011
682.99	0.0012
683.249	0.0026
683.508	0.0011
683.766	0.0007
684.024	0.0004
684.283	0.0018
684.541	0.0005
684.799	0.0008
685.058	0.0021
685.316	0.0001
685.574	-0.0001
685.832	-0.0003
686.09	0.0005
686.348	-0.001
686.606	-0.0008
686.863	-0.0005
687.121	0.0013
687.379	0.0019
687.636	0.0011
687.894	0.002
688.151	0.0023
688.409	0.0016
688.666	0.0011
688.923	-0
689.181	0.0001
689.438	0.0002
689.695	-0.0002
689.952	-0.0009
690.209	0.0001
690.466	-0.0002
690.723	0.0018
690.979	0.0015
691.236	0.0005
691.493	0.0004
691.75	0.0014
692.006	0.0013
692.263	0.0011
692.519	0.0013
692.775	0.0017
693.032	0.0019
693.288	0.0012
693.544	0.0006
693.8	0.0006
694.056	0.0013
694.313	0.0016
694.568	0.0018
694.824	0.0012
695.08	0.0004
695.336	-0.0013
695.592	-0.0017
695.847	0.0003
696.103	0.0008
696.359	0.0013
696.614	0.0008
696.869	-0
697.125	-0.0025
697.38	-0.0021
697.635	-0.0004
697.891	0.0009
698.146	0.0017
698.401	0.0017
698.656	0.0011
698.911	0.0021
699.166	0.0017
699.42	0.0033
699.675	0.0021
699.93	0.0029
700.185	0.0016
700.439	0.002
700.694	0.002
700.948	0.0017
701.203	0.0007
701.457	0.0009
701.711	0.001
701.965	0.0001
702.22	-0.0007
702.474	-0.0008
702.728	-0.0003
702.982	-0.0008
703.236	0.0003
703.49	0.0005
703.743	0.0001
703.997	0.0007
704.251	0.001
704.504	0.0007
704.758	-0.0007
705.012	0.0009
705.265	0.0017
705.518	0.0024
705.772	0.0023
706.025	0.002
706.278	0.0019
706.531	0.0003
706.785	-0.0005
707.038	-0.0015
707.291	-0.0006
707.543	-0.0012
707.796	-0.0009
708.049	-0.0018
708.302	-0.0019
708.555	-0.0021
708.807	-0.0007
709.06	-0.0017
709.312	-0.0015
709.565	-0.001
709.817	-0.0012
710.069	-0.0011
710.322	-0.0021
710.574	-0.0029
710.826	-0.0022
711.078	-0.0016
711.33	-0.0014
711.582	-0.0026
711.834	-0.0024
712.086	-0.0022
712.338	-0.0025
712.59	-0.0016
712.841	-0.0035
713.093	-0.0026
713.344	-0.0029
713.596	-0.0029
713.847	-0.0014
714.099	-0.0008
714.35	-0.001
714.601	-0.0014
714.853	-0.0004
715.104	-0.0008
715.355	-0.0008
715.606	-0.001
715.857	0.0003
716.108	-0.0003
716.359	0.0007
716.609	-0.0003
716.86	0.0006
717.111	0.0003
717.361	-0.0002
717.612	0.0012
717.863	0.0027
718.113	0.0032
718.363	0.0014
718.614	0.003
718.864	0.0032
719.114	0.0021
719.364	0.0028
719.614	0.0024
719.865	0.0034
720.114	0.0043
720.364	0.0046
720.614	0.0047
720.864	0.0033
721.114	0.0033
721.364	0.0024
721.613	0.0026
721.863	0.002
722.112	0.0024
722.362	0.0009
722.611	0.0009
722.86	0.0006
723.11	0.0016
723.359	0.0004
723.608	0.0008
723.857	0.0007
724.106	0.0012
724.355	0.0022
724.604	0.0024
724.853	0.002
725.102	-0.0001
725.351	0.0003
725.599	-0.0005
725.848	-0.0002
726.097	0.0001
726.345	0.0007
726.594	-0.0007
726.842	-0.0007
727.09	-0.0019
727.339	-0.003
727.587	-0.003
727.835	-0.0021
728.083	-0.0011
728.331	-0.002
728.579	0
728.827	-0
729.075	0.0011
729.323	0.0002
729.571	0.0002
729.818	0.0004
730.066	0.0002
730.314	0.0005
730.561	0.0017
730.809	0.0013
731.056	-0.0004
731.303	0.0014
731.551	0.0015
731.798	0.0008
732.045	0.0011
732.292	0.0023
732.539	0.0022
732.786	0.0024
733.033	0.0014
733.28	0.0014
733.527	0.002
733.774	0.0004
734.021	-0.002
734.267	-0.0018
734.514	-0.0021
734.76	-0.0018
735.007	-0.002
735.253	-0.0015
735.5	-0.0014
735.746	-0.0023
735.992	-0.0009
736.238	-0.0002
736.485	0.0009
736.731	0.0015
736.977	-0.0001
737.223	0.0002
737.469	0.0003
737.715	0.002
737.96	0.002
738.206	0.0005
738.452	0.0018
738.697	0.0009
738.943	0.0004
739.189	-0.0005
739.434	-0.0006
739.679	-0.0003
739.925	0.0003
740.17	-0.0004
740.415	-0.0009
740.66	-0.0019
740.906	-0.0021
741.151	-0.0011
741.396	-0.0019
741.641	-0.0022
741.886	-0.0023
742.13	-0.0005
742.375	0.0001
742.62	-0.0014
742.865	-0.0018
743.109	0.0003
743.354	0.0015
743.598	0.0032
743.843	0.003
744.087	0.0036
744.331	0.0046
744.576	0.0049
744.82	0.006
745.064	0.0054
745.308	0.0068
745.552	0.006
745.796	0.0039
746.04	0.0042
746.284	0.003
746.528	0.0041
746.771	0.006
747.015	0.0063
747.259	0.0043
747.502	0.0035
747.746	0.0029
747.989	0.0037
748.233	0.0027
748.476	0.0052
748.719	0.0052
748.963	0.0062
749.206	0.0056
749.449	0.0044
749.692	0.0043
749.935	0.0047
750.178	0.0036
750.421	0.0024
750.664	0.0036
750.906	0.0041
751.149	0.0048
751.392	0.0042
751.635	0.0024
751.877	0.0028
752.12	0.0022
752.362	0.0017
752.604	0.0025
752.847	0.004
753.089	0.0043
753.331	0.0055
753.573	0.004
753.816	0.0025
754.058	0.0012
754.3	0.0006
754.542	0.0002
754.783	-0.0008
755.025	-0.0003
755.267	0.0003
755.509	-0.0002
755.75	-0.0001
755.992	0.0002
756.234	0.0006
756.475	-0.0001
756.716	-0.0016
756.958	-0.0013
757.199	-0.0005
757.44	0.0001
757.682	-0.0012
757.923	0.0003
758.164	0.0023
758.405	0.0016
758.646	0.0034
758.887	0.0036
759.128	0.0034
759.369	0.0017
759.609	0.0029
759.85	0.0028
760.091	0.0034
760.331	0.0035
760.572	0.0005
760.812	0.0008
761.053	-0.0005
761.293	0.0002
761.533	-0.0001
761.774	0.0022
762.014	0.0028
762.254	0.0022
762.494	0.0007
762.734	0.0015
762.974	0.0002
763.214	0.0003
763.454	-0.0001
763.694	-0.0001
763.933	-0.0009
764.173	-0.0026
764.413	-0.0035
764.652	-0.0044
764.892	-0.0037
765.131	-0.0034
765.371	-0.0026
765.61	-0.002
765.849	-0.0019
766.089	-0.001
766.328	0.0003
766.567	-0
766.806	-0.0005
767.045	0.0002
767.284	-0.001
767.523	-0.0005
767.762	-0.0013
768.001	-0.0015
768.239	-0.0019
768.478	-0.0004
768.717	-0.0005
768.955	-0.0004
769.194	-0.0008
769.432	0.0013
769.671	0.0021
769.909	0.003
770.148	0.002
770.386	0.0029
770.624	0.0036
770.862	0.0037
771.1	0.0049
771.338	0.0046
771.576	0.0031
771.814	0.0044
772.052	0.0045
772.29	0.0057
772.528	0.0058
772.765	0.0064
773.003	0.0066
773.24	0.0066
773.478	0.0055
773.716	0.0056
773.953	0.0046
774.19	0.0048
774.428	0.0066
774.665	0.006
774.902	0.007
775.139	0.0069
775.376	0.0052
775.613	0.0052
775.85	0.0039
776.087	0.0032
776.324	0.0035
776.561	0.0032
776.798	0.0022
777.034	0.0023
777.271	0.0038
777.508	0.0038
777.744	0.0052
777.981	0.0054
778.217	0.0052
778.454	0.0046
778.69	0.0035
778.926	0.003
779.162	0.0027
779.399	0.0038
779.635	0.0028
779.871	0.0036
780.107	0.0028
780.343	0.0026
780.579	0.0034
780.814	0.0034
781.05	0.0026
781.286	0.0015
781.522	0.0018
781.757	0.0021
781.993	0.0027
782.228	0.0019
782.464	0.003
782.699	0.0016
782.934	0.0009
783.17	0.0022
783.405	0.0015
783.64	0.0011
783.875	0.0006
784.11	0.0006
784.345	0.0019
784.58	0.0029
784.815	0.0035
785.05	0.0021
785.285	0.0007
785.52	0.0009
785.754	0.0005
785.989	-0.0009
786.223	-0.0023
786.458	-0.0024
786.692	-0.0011
786.927	-0.0008
787.161	0.0015
787.396	-0
787.63	-0
787.864	-0.0006
788.098	-0.0017
788.332	-0.0017
788.566	-0.0012
788.8	-0.0015
789.034	-0.0013
789.268	-0.0008
789.502	0.0001
789.736	0.0011
789.969	0.0003
790.203	0.0003
790.437	-0.0002
790.67	-0.001
790.904	-0.002
791.137	-0.0028
791.37	-0.0029
791.604	-0.0041
791.837	-0.0041
792.07	-0.0033
792.303	-0.0032
792.537	-0.0026
792.77	-0.0023
793.003	-0.0026
793.236	-0.0023
793.469	-0.0025
793.701	-0.0011
793.934	-0.001
794.167	-0.0001
794.4	-0.0006
794.632	0.0002
794.865	0.0013
795.097	0.0019
795.33	-0.0002
795.562	0.0009
795.795	0.0016
796.027	0.0021
796.259	0.0022
796.491	0.0025
796.724	0.0016
796.956	0.003
797.188	0.0023
797.42	0.0029
797.652	0.0019
797.883	0.0023
798.115	0.0039
798.347	0.0039
798.579	0.0059
798.81	0.0067
799.042	0.0065
799.274	0.0051
799.505	0.004
799.737	0.0047
799.968	0.0027
800.199	0.0025
800.431	0.0017
800.662	0.0015
800.893	0.0019
801.124	0.0024
801.355	0.0014
801.586	0.0022
801.817	0.0016
802.048	0.0006
802.279	0.0011
802.51	0.0023
802.741	0.0023
802.971	0.0031
803.202	0.0031
803.433	0.0031
803.663	0.0012
803.894	0.0016
804.124	0.0017
804.354	0.0022
804.585	0.0018
804.815	0.0024
805.045	0.0019
805.275	0.0027
805.506	-0.03
805.736	0.0069
805.966	0.2483
806.196	0.2651
