Data from 03 0.5 mM K2Cr2O7 0.3 mM BQDS 1 M H2SO4 5 min_Absorbance_0045.txt Node
Date: Mon Dec 13 21:24:46 EST 2021
User: kwabilab-user
Spectrometer: HDX00518
Trigger mode: 0
Integration Time (sec): 5.000000E-2
Scans to average: 50
Nonlinearity correction enabled: false
Boxcar width: 0
Storing dark spectrum: false
XAxis mode: Wavelengths
Number of Pixels in Spectrum: 2068
>>>>>Begin Spectral Data<<<<<
195.27	-0.0013
195.642	0.2563
196.014	-0.0201
196.386	0.1152
196.758	0.0135
197.129	-0.0024
197.501	0.0051
197.872	0.0133
198.244	0.0178
198.615	0.0527
198.986	0.0346
199.357	0.0508
199.728	0.042
200.099	0.0487
200.47	0.0478
200.841	0.0469
201.212	0.0554
201.582	0.0634
201.953	0.0322
202.323	0.0513
202.694	0.0374
203.064	0.0332
203.434	0.0647
203.804	0.0364
204.174	0.0504
204.544	0.0531
204.914	0.0486
205.284	0.0522
205.653	0.0319
206.023	0.0502
206.393	0.0145
206.762	0.0627
207.131	0.0346
207.501	0.0254
207.87	0.0696
208.239	0.0494
208.608	0.0362
208.977	0.03
209.346	0.052
209.715	0.0275
210.083	0.0139
210.452	0.0269
210.82	0.0582
211.189	0.0309
211.557	0.052
211.925	0.0063
212.294	0.0423
212.662	0.0591
213.03	0.0529
213.398	0.051
213.766	0.0602
214.133	0.0516
214.501	0.069
214.869	0.0613
215.236	0.0533
215.604	0.049
215.971	0.0458
216.338	0.0897
216.705	0.0698
217.072	0.0663
217.439	0.0467
217.806	0.0695
218.173	0.0595
218.54	0.0937
218.907	0.0604
219.273	0.0912
219.64	0.0996
220.006	0.0881
220.373	0.0997
220.739	0.1145
221.105	0.1284
221.471	0.1543
221.837	0.1542
222.203	0.1744
222.569	0.1898
222.935	0.2284
223.3	0.2327
223.666	0.279
224.031	0.2767
224.397	0.301
224.762	0.3033
225.127	0.3276
225.493	0.3651
225.858	0.4055
226.223	0.4119
226.588	0.4466
226.952	0.4663
227.317	0.4778
227.682	0.4974
228.046	0.511
228.411	0.5457
228.775	0.5448
229.14	0.5696
229.504	0.5822
229.868	0.5986
230.232	0.5998
230.596	0.6111
230.96	0.6336
231.324	0.641
231.688	0.6474
232.052	0.6845
232.415	0.6724
232.779	0.6817
233.142	0.7001
233.505	0.6878
233.869	0.6899
234.232	0.7033
234.595	0.6987
234.958	0.7164
235.321	0.7013
235.684	0.7135
236.047	0.7208
236.409	0.7018
236.772	0.7057
237.134	0.726
237.497	0.7209
237.859	0.7317
238.222	0.7268
238.584	0.7074
238.946	0.709
239.308	0.7057
239.67	0.7096
240.032	0.7025
240.393	0.7154
240.755	0.7068
241.117	0.7137
241.478	0.712
241.84	0.7105
242.201	0.7042
242.562	0.6948
242.924	0.6934
243.285	0.701
243.646	0.7052
244.007	0.6964
244.368	0.6961
244.728	0.692
245.089	0.6986
245.45	0.6977
245.81	0.699
246.171	0.6931
246.531	0.6842
246.891	0.6965
247.252	0.6858
247.612	0.6898
247.972	0.6974
248.332	0.6916
248.692	0.6917
249.051	0.6939
249.411	0.6913
249.771	0.6838
250.13	0.6888
250.49	0.684
250.849	0.6895
251.208	0.6917
251.568	0.6881
251.927	0.6944
252.286	0.6934
252.645	0.6904
253.004	0.6963
253.363	0.6919
253.721	0.6874
254.08	0.6846
254.439	0.6816
254.797	0.682
255.155	0.6871
255.514	0.6878
255.872	0.6928
256.23	0.6888
256.588	0.6908
256.946	0.6862
257.304	0.6859
257.662	0.6868
258.02	0.6816
258.377	0.6803
258.735	0.6865
259.093	0.6811
259.45	0.6814
259.807	0.6771
260.165	0.6766
260.522	0.677
260.879	0.6755
261.236	0.6674
261.593	0.6627
261.95	0.6657
262.306	0.6641
262.663	0.6594
263.02	0.6637
263.376	0.6608
263.733	0.66
264.089	0.6613
264.445	0.6542
264.802	0.6517
265.158	0.6588
265.514	0.6483
265.87	0.6441
266.226	0.6465
266.581	0.6434
266.937	0.6393
267.293	0.6297
267.648	0.6295
268.004	0.6322
268.359	0.6263
268.714	0.6253
269.07	0.6263
269.425	0.6192
269.78	0.6106
270.135	0.6153
270.49	0.6121
270.844	0.6081
271.199	0.6096
271.554	0.602
271.908	0.5965
272.263	0.6003
272.617	0.5898
272.972	0.5929
273.326	0.5833
273.68	0.5798
274.034	0.5785
274.388	0.5787
274.742	0.5713
275.096	0.573
275.45	0.5597
275.803	0.5624
276.157	0.5544
276.51	0.5472
276.864	0.5477
277.217	0.5418
277.571	0.5418
277.924	0.5291
278.277	0.5287
278.63	0.5274
278.983	0.5222
279.336	0.5124
279.688	0.5122
280.041	0.5079
280.394	0.5058
280.746	0.4982
281.099	0.4937
281.451	0.4919
281.803	0.4836
282.156	0.4787
282.508	0.4756
282.86	0.4697
283.212	0.4623
283.564	0.4582
283.916	0.4543
284.267	0.45
284.619	0.4454
284.971	0.4447
285.322	0.436
285.673	0.4306
286.025	0.426
286.376	0.4222
286.727	0.4172
287.078	0.4119
287.429	0.4071
287.78	0.4037
288.131	0.3969
288.482	0.3949
288.833	0.3867
289.183	0.3824
289.534	0.377
289.884	0.375
290.235	0.3687
290.585	0.3644
290.935	0.3609
291.285	0.3549
291.635	0.3514
291.985	0.3468
292.335	0.3426
292.685	0.3399
293.035	0.3342
293.384	0.3287
293.734	0.3264
294.083	0.3196
294.433	0.3142
294.782	0.3102
295.131	0.3073
295.48	0.3019
295.829	0.298
296.179	0.2935
296.527	0.2889
296.876	0.2856
297.225	0.2817
297.574	0.2762
297.922	0.2735
298.271	0.2683
298.619	0.2641
298.968	0.2614
299.316	0.2572
299.664	0.2541
300.012	0.2501
300.36	0.2467
300.708	0.2443
301.056	0.2395
301.404	0.2362
301.752	0.2345
302.099	0.2296
302.447	0.2279
302.794	0.2241
303.142	0.2214
303.489	0.2185
303.836	0.2166
304.183	0.2138
304.531	0.2111
304.878	0.2086
305.224	0.2071
305.571	0.2039
305.918	0.2023
306.265	0.2004
306.611	0.1979
306.958	0.198
307.304	0.1948
307.651	0.1937
307.997	0.192
308.343	0.1896
308.689	0.1891
309.035	0.1874
309.381	0.1882
309.727	0.1851
310.073	0.1851
310.419	0.1841
310.764	0.1817
311.11	0.1818
311.455	0.1812
311.801	0.1815
312.146	0.1803
312.491	0.1798
312.837	0.179
313.182	0.179
313.527	0.1789
313.872	0.1776
314.216	0.1785
314.561	0.1779
314.906	0.1779
315.251	0.179
315.595	0.1786
315.94	0.1789
316.284	0.1794
316.628	0.1806
316.972	0.1809
317.317	0.1811
317.661	0.1814
318.005	0.1818
318.348	0.1838
318.692	0.1838
319.036	0.1842
319.38	0.1843
319.723	0.1855
320.067	0.1874
320.41	0.1881
320.754	0.1897
321.097	0.1906
321.44	0.1912
321.783	0.1933
322.126	0.1939
322.469	0.1952
322.812	0.1962
323.155	0.1982
323.498	0.1988
323.84	0.2008
324.183	0.2035
324.525	0.2046
324.868	0.2067
325.21	0.2064
325.552	0.2089
325.894	0.2102
326.236	0.2125
326.578	0.2134
326.92	0.2158
327.262	0.2175
327.604	0.2187
327.946	0.2206
328.287	0.2221
328.629	0.2248
328.97	0.2258
329.312	0.2272
329.653	0.2289
329.994	0.2311
330.335	0.2325
330.676	0.2344
331.017	0.2372
331.358	0.2388
331.699	0.2417
332.04	0.2428
332.38	0.2448
332.721	0.2458
333.061	0.2487
333.402	0.2504
333.742	0.2521
334.083	0.2541
334.423	0.255
334.763	0.2567
335.103	0.2582
335.443	0.2596
335.783	0.2618
336.123	0.2631
336.462	0.2643
336.802	0.2672
337.141	0.2684
337.481	0.2698
337.82	0.2709
338.16	0.2713
338.499	0.2739
338.838	0.2753
339.177	0.2777
339.516	0.2784
339.855	0.2803
340.194	0.2807
340.533	0.2822
340.872	0.2834
341.21	0.2838
341.549	0.2847
341.887	0.287
342.226	0.2874
342.564	0.2893
342.902	0.2892
343.24	0.2892
343.578	0.2902
343.916	0.2915
344.254	0.2919
344.592	0.2918
344.93	0.2921
345.268	0.2928
345.605	0.2926
345.943	0.2932
346.28	0.2943
346.618	0.2932
346.955	0.293
347.292	0.2944
347.629	0.294
347.966	0.2944
348.303	0.2948
348.64	0.2955
348.977	0.2956
349.314	0.2947
349.65	0.2945
349.987	0.2948
350.324	0.2946
350.66	0.2943
350.996	0.2937
351.333	0.2938
351.669	0.2932
352.005	0.2926
352.341	0.2915
352.677	0.2899
353.013	0.2896
353.349	0.2886
353.685	0.2869
354.02	0.2861
354.356	0.2837
354.691	0.2832
355.027	0.2825
355.362	0.2819
355.697	0.2802
356.033	0.2795
356.368	0.2782
356.703	0.2774
357.038	0.2768
357.373	0.2741
357.707	0.2734
358.042	0.2726
358.377	0.2723
358.711	0.2702
359.046	0.2696
359.38	0.2677
359.715	0.2675
360.049	0.2655
360.383	0.2646
360.717	0.2629
361.051	0.2605
361.385	0.2595
361.719	0.2566
362.053	0.2552
362.387	0.2534
362.72	0.2516
363.054	0.2483
363.387	0.2474
363.721	0.2458
364.054	0.2418
364.387	0.2407
364.721	0.2394
365.054	0.2363
365.387	0.2352
365.72	0.2326
366.053	0.231
366.385	0.2289
366.718	0.2267
367.051	0.2258
367.383	0.2244
367.716	0.2218
368.048	0.2213
368.381	0.2181
368.713	0.2174
369.045	0.2166
369.377	0.2145
369.709	0.2138
370.041	0.2117
370.373	0.21
370.705	0.2076
371.037	0.2062
371.368	0.2041
371.7	0.2029
372.031	0.2
372.363	0.1982
372.694	0.1952
373.025	0.1929
373.356	0.1907
373.688	0.1891
374.019	0.1859
374.35	0.184
374.68	0.1821
375.011	0.1792
375.342	0.1771
375.673	0.1751
376.003	0.1724
376.334	0.171
376.664	0.1685
376.995	0.1664
377.325	0.1639
377.655	0.163
377.985	0.1613
378.315	0.159
378.645	0.1578
378.975	0.156
379.305	0.1546
379.635	0.1534
379.964	0.1522
380.294	0.1501
380.623	0.1488
380.953	0.1472
381.282	0.1456
381.611	0.1439
381.941	0.1418
382.27	0.1405
382.599	0.1383
382.928	0.137
383.257	0.1356
383.585	0.1332
383.914	0.1323
384.243	0.1297
384.571	0.1276
384.9	0.1258
385.228	0.1247
385.557	0.1219
385.885	0.1196
386.213	0.1184
386.541	0.1164
386.869	0.1149
387.197	0.1129
387.525	0.1113
387.853	0.1087
388.181	0.1075
388.508	0.1051
388.836	0.1036
389.164	0.1019
389.491	0.1015
389.818	0.0995
390.146	0.0983
390.473	0.0969
390.8	0.0955
391.127	0.0938
391.454	0.0926
391.781	0.0911
392.108	0.09
392.435	0.0891
392.761	0.0877
393.088	0.0867
393.415	0.0857
393.741	0.0851
394.067	0.0842
394.394	0.0831
394.72	0.0813
395.046	0.0804
395.372	0.08
395.698	0.0789
396.024	0.0775
396.35	0.0766
396.676	0.0751
397.001	0.0746
397.327	0.0735
397.653	0.0721
397.978	0.0703
398.303	0.0695
398.629	0.0684
398.954	0.067
399.279	0.0666
399.604	0.066
399.929	0.0651
400.254	0.0643
400.579	0.0634
400.904	0.0625
401.229	0.0621
401.553	0.061
401.878	0.0605
402.202	0.0593
402.527	0.0589
402.851	0.0582
403.175	0.0575
403.5	0.0576
403.824	0.0565
404.148	0.0562
404.472	0.0554
404.796	0.0557
405.119	0.0548
405.443	0.0544
405.767	0.0535
406.09	0.0535
406.414	0.0527
406.737	0.0527
407.061	0.0526
407.384	0.0519
407.707	0.0524
408.03	0.0517
408.353	0.0521
408.676	0.0511
408.999	0.0509
409.322	0.051
409.645	0.0507
409.968	0.0499
410.29	0.0504
410.613	0.0506
410.935	0.0503
411.258	0.0496
411.58	0.0493
411.902	0.0496
412.224	0.0494
412.546	0.0499
412.868	0.0488
413.19	0.0491
413.512	0.0488
413.834	0.0483
414.156	0.0487
414.477	0.0493
414.799	0.0483
415.121	0.0493
415.442	0.0488
415.763	0.0478
416.085	0.0487
416.406	0.0491
416.727	0.0486
417.048	0.0481
417.369	0.0479
417.69	0.0474
418.011	0.0477
418.331	0.0481
418.652	0.0487
418.973	0.0475
419.293	0.0479
419.614	0.0486
419.934	0.0487
420.254	0.0482
420.574	0.0482
420.895	0.0484
421.215	0.0482
421.535	0.0481
421.855	0.0474
422.174	0.0477
422.494	0.0476
422.814	0.0479
423.134	0.0473
423.453	0.0478
423.773	0.0478
424.092	0.0477
424.411	0.0479
424.731	0.0481
425.05	0.0477
425.369	0.0473
425.688	0.0483
426.007	0.0472
426.326	0.0475
426.644	0.048
426.963	0.0485
427.282	0.0485
427.6	0.0478
427.919	0.0474
428.237	0.0478
428.556	0.0482
428.874	0.0483
429.192	0.0487
429.51	0.0484
429.828	0.0488
430.146	0.0484
430.464	0.0479
430.782	0.048
431.1	0.0488
431.418	0.048
431.735	0.0481
432.053	0.0484
432.37	0.0483
432.688	0.0486
433.005	0.0486
433.322	0.0482
433.639	0.0488
433.957	0.0491
434.274	0.0486
434.591	0.0484
434.907	0.0479
435.224	0.0478
435.541	0.0473
435.858	0.0481
436.174	0.0482
436.491	0.0482
436.807	0.0474
437.124	0.0477
437.44	0.0482
437.756	0.0473
438.072	0.0483
438.388	0.0485
438.704	0.0476
439.02	0.0477
439.336	0.0472
439.652	0.0473
439.968	0.0466
440.283	0.0469
440.599	0.0468
440.914	0.0482
441.23	0.048
441.545	0.0471
441.86	0.047
442.175	0.0473
442.491	0.0469
442.806	0.0471
443.121	0.0475
443.435	0.0464
443.75	0.0466
444.065	0.0463
444.38	0.0466
444.694	0.0465
445.009	0.0468
445.323	0.0461
445.638	0.0455
445.952	0.0456
446.266	0.0465
446.58	0.0463
446.894	0.0462
447.208	0.046
447.522	0.0462
447.836	0.0456
448.15	0.0448
448.464	0.045
448.777	0.0456
449.091	0.0446
449.404	0.0448
449.718	0.045
450.031	0.0445
450.345	0.0446
450.658	0.0447
450.971	0.0449
451.284	0.0444
451.597	0.0435
451.91	0.0439
452.223	0.0433
452.535	0.0434
452.848	0.0442
453.161	0.0428
453.473	0.0437
453.786	0.0419
454.098	0.0425
454.411	0.0432
454.723	0.0414
455.035	0.0424
455.347	0.0419
455.659	0.0411
455.971	0.0422
456.283	0.0416
456.595	0.0417
456.907	0.0413
457.218	0.0414
457.53	0.0405
457.841	0.0405
458.153	0.0409
458.464	0.04
458.776	0.0404
459.087	0.0404
459.398	0.0401
459.709	0.04
460.02	0.0399
460.331	0.0388
460.642	0.0394
460.953	0.0395
461.263	0.0383
461.574	0.0379
461.885	0.0383
462.195	0.0379
462.506	0.038
462.816	0.0372
463.126	0.0374
463.437	0.0374
463.747	0.0373
464.057	0.0365
464.367	0.0364
464.677	0.0356
464.987	0.0358
465.296	0.036
465.606	0.0351
465.916	0.0357
466.225	0.0352
466.535	0.0356
466.844	0.0349
467.154	0.0353
467.463	0.0343
467.772	0.0339
468.081	0.0341
468.39	0.0334
468.699	0.0329
469.008	0.033
469.317	0.033
469.626	0.0321
469.935	0.0316
470.243	0.0321
470.552	0.032
470.86	0.0318
471.169	0.0314
471.477	0.0315
471.785	0.0315
472.093	0.0317
472.402	0.0307
472.71	0.0309
473.018	0.0301
473.326	0.0297
473.633	0.0302
473.941	0.0296
474.249	0.0295
474.556	0.0299
474.864	0.0293
475.171	0.0283
475.479	0.0285
475.786	0.0277
476.094	0.0281
476.401	0.0278
476.708	0.0274
477.015	0.0277
477.322	0.0268
477.629	0.0263
477.936	0.0271
478.242	0.0258
478.549	0.0259
478.856	0.0261
479.162	0.0256
479.469	0.026
479.775	0.0256
480.081	0.025
480.388	0.024
480.694	0.0244
481	0.024
481.306	0.0243
481.612	0.024
481.918	0.0235
482.224	0.0229
482.53	0.0235
482.835	0.0232
483.141	0.0231
483.446	0.0227
483.752	0.0225
484.057	0.0222
484.363	0.0218
484.668	0.0211
484.973	0.021
485.278	0.0209
485.583	0.0201
485.888	0.0205
486.193	0.0196
486.498	0.0197
486.803	0.0192
487.107	0.0193
487.412	0.0192
487.717	0.0194
488.021	0.0192
488.325	0.0202
488.63	0.0197
488.934	0.0187
489.238	0.0186
489.542	0.017
489.846	0.0184
490.15	0.0176
490.454	0.017
490.758	0.0164
491.062	0.0165
491.366	0.0167
491.669	0.016
491.973	0.0161
492.276	0.0156
492.58	0.0162
492.883	0.0152
493.186	0.0152
493.489	0.0154
493.792	0.0148
494.096	0.0145
494.399	0.0139
494.701	0.0149
495.004	0.0138
495.307	0.0145
495.61	0.0138
495.912	0.0139
496.215	0.0129
496.517	0.0121
496.82	0.013
497.122	0.0119
497.424	0.0132
497.727	0.0115
498.029	0.0108
498.331	0.0133
498.633	0.0126
498.935	0.0128
499.237	0.0116
499.538	0.011
499.84	0.0109
500.142	0.0108
500.443	0.01
500.745	0.01
501.046	0.0082
501.348	0.0094
501.649	0.0086
501.95	0.0091
502.251	0.0088
502.552	0.0092
502.853	0.0085
503.154	0.0088
503.455	0.0091
503.756	0.0093
504.057	0.0091
504.357	0.0078
504.658	0.009
504.958	0.0093
505.259	0.0077
505.559	0.0083
505.859	0.0077
506.16	0.0076
506.46	0.0082
506.76	0.0076
507.06	0.0076
507.36	0.0076
507.66	0.0074
507.96	0.0077
508.259	0.0074
508.559	0.0077
508.859	0.0076
509.158	0.0064
509.457	0.0065
509.757	0.0066
510.056	0.0065
510.355	0.0063
510.655	0.0066
510.954	0.0062
511.253	0.0058
511.552	0.0053
511.851	0.0059
512.149	0.0035
512.448	0.0059
512.747	0.0054
513.045	0.0042
513.344	0.005
513.642	0.0044
513.941	0.0044
514.239	0.0043
514.537	0.0037
514.836	0.0038
515.134	0.003
515.432	0.0044
515.73	0.0042
516.028	0.0036
516.326	0.0046
516.623	0.0041
516.921	0.0026
517.219	0.004
517.516	0.0034
517.814	0.0033
518.111	0.0034
518.409	0.0021
518.706	0.0025
519.003	0.0031
519.3	0.0023
519.597	0.002
519.894	0.0033
520.191	0.0024
520.488	0.003
520.785	0.0022
521.082	0.0033
521.378	0.0022
521.675	0.0018
521.971	0.0013
522.268	0.0018
522.564	0.0025
522.861	0.0025
523.157	0.0029
523.453	0.0023
523.749	0.0021
524.045	0.002
524.341	0.0023
524.637	0.0014
524.933	0.001
525.229	0.0016
525.524	0.0006
525.82	0.0007
526.115	0.001
526.411	0.002
526.706	0.0012
527.002	0.0019
527.297	-0.0002
527.592	0.0016
527.887	0.0019
528.182	0.0011
528.477	0.0013
528.772	0.0018
529.067	0.0008
529.362	0.001
529.657	0.0017
529.951	0.0017
530.246	-0
530.54	0.001
530.835	0.0002
531.129	0.0008
531.423	0.0005
531.718	0.0009
532.012	0.0011
532.306	0.0009
532.6	-0.0013
532.894	0.0012
533.188	0.0013
533.482	-0
533.775	0.0005
534.069	0.0002
534.363	-0.0011
534.656	-0.0023
534.95	-0.0001
535.243	-0.0004
535.536	0.0005
535.83	-0.0014
536.123	0.0003
536.416	-0
536.709	0.0001
537.002	-0.0007
537.295	-0.0003
537.588	-0.001
537.881	-0.0007
538.173	-0.0003
538.466	-0.0008
538.759	-0.0008
539.051	-0.0002
539.344	-0.0007
539.636	-0.0001
539.928	-0.0004
540.22	-0.0002
540.513	0.0003
540.805	-0.0001
541.097	-0.001
541.389	-0.001
541.681	-0.0007
541.972	-0.0005
542.264	-0.0005
542.556	-0.001
542.847	0.0001
543.139	-0.0003
543.431	-0.0009
543.722	-0.0011
544.013	-0.0002
544.305	-0.0012
544.596	-0.0009
544.887	0.0001
545.178	-0.001
545.469	-0.0013
545.76	-0.0009
546.051	-0.0005
546.342	-0.0014
546.632	-0.0016
546.923	-0.0011
547.214	-0.0002
547.504	-0.0011
547.795	-0.0008
548.085	-0.0015
548.375	-0.001
548.666	-0.0019
548.956	-0.001
549.246	-0.0012
549.536	-0.0006
549.826	-0.0007
550.116	-0.0011
550.406	-0.0008
550.695	-0.0024
550.985	-0.0009
551.275	-0.0008
551.564	-0.0011
551.854	-0.0006
552.143	-0.0019
552.433	-0.0015
552.722	-0.0017
553.011	-0
553.3	-0.0011
553.589	-0.0007
553.879	-0.0005
554.167	-0.0007
554.456	0.0006
554.745	-0.001
555.034	-0.001
555.323	-0
555.611	0.0001
555.9	-0.0003
556.188	-0.0019
556.477	-0.0013
556.765	-0.0025
557.053	-0.0026
557.342	-0.0002
557.63	-0.001
557.918	-0.001
558.206	0.0008
558.494	-0.001
558.782	-0.0008
559.069	0.0002
559.357	-0.0002
559.645	-0.0001
559.932	-0.0008
560.22	-0.0002
560.507	-0.0015
560.795	-0.0011
561.082	-0.0022
561.37	0.0003
561.657	-0.0002
561.944	-0.0006
562.231	-0.0001
562.518	-0.0006
562.805	-0.0002
563.092	0.0004
563.379	0.0005
563.665	0.0002
563.952	0.0002
564.239	0.0006
564.525	-0.0008
564.811	0.0006
565.098	0.0004
565.384	-0.0007
565.67	0.0004
565.957	-0.0001
566.243	0.0007
566.529	-0.0001
566.815	0.0004
567.101	0.001
567.387	0.0008
567.672	0.0006
567.958	0.0018
568.244	0.0002
568.529	-0.0001
568.815	-0.0006
569.1	-0.0012
569.386	-0.0006
569.671	0.0008
569.956	0.0009
570.242	-0.0002
570.527	-0.0004
570.812	0
571.097	0.0005
571.382	-0.0002
571.666	0.0011
571.951	0.0003
572.236	0.0001
572.521	0.0001
572.805	0
573.09	-0.0003
573.374	-0.0005
573.659	-0.0002
573.943	-0.0001
574.227	-0.0007
574.511	-0.0012
574.795	0.0004
575.079	-0.0001
575.363	-0.0008
575.647	-0.0001
575.931	0.0006
576.215	-0.001
576.499	-0.0007
576.782	-0.0013
577.066	-0.0004
577.349	0.0001
577.633	-0.0008
577.916	-0.0002
578.2	-0.0002
578.483	-0.0005
578.766	0.0006
579.049	-0.0006
579.332	0.0004
579.615	0.0003
579.898	-0
580.181	0
580.464	0.0008
580.746	-0.0001
581.029	-0.0002
581.312	-0.0006
581.594	-0.0007
581.877	-0.0008
582.159	-0.0009
582.441	-0.001
582.724	-0.0005
583.006	0.0003
583.288	-0.0002
583.57	0.0003
583.852	0.0004
584.134	0.0008
584.416	-0.0001
584.697	0.0004
584.979	-0.001
585.261	-0.0009
585.542	-0.0003
585.824	-0.0009
586.105	-0.0014
586.387	-0.0012
586.668	-0.0003
586.949	0.0002
587.231	-0.0002
587.512	-0.0002
587.793	-0.0002
588.074	-0.0004
588.355	0.0006
588.636	-0.0005
588.916	-0.0002
589.197	-0.0003
589.478	-0.0008
589.758	-0.0001
590.039	-0
590.319	-0.0001
590.6	0.0011
590.88	-0.0002
591.16	0.0009
591.441	0.0011
591.721	-0.0004
592.001	-0
592.281	-0.0006
592.561	-0.0003
592.841	-0.001
593.12	-0.0012
593.4	-0.0009
593.68	-0.0012
593.959	-0.001
594.239	-0.001
594.518	-0.0002
594.798	0.0001
595.077	-0.0005
595.356	-0.0009
595.636	-0.0004
595.915	-0.0006
596.194	-0.0001
596.473	-0.0008
596.752	-0
597.031	0.0004
597.31	0
597.588	-0.0008
597.867	-0.0001
598.146	-0.0009
598.424	-0.0004
598.703	-0.0001
598.981	-0.0013
599.259	-0.0012
599.538	-0.0007
599.816	0.0002
600.094	-0.0007
600.372	-0.0015
600.65	-0.0012
600.928	-0.0008
601.206	0
601.484	0.0001
601.762	0
602.04	0.0001
602.317	0.0006
602.595	-0.0007
602.872	-0.0005
603.15	0.0004
603.427	-0.0016
603.704	-0.0008
603.982	-0.0006
604.259	-0.0006
604.536	-0
604.813	-0.0003
605.09	-0.001
605.367	-0.0015
605.644	-0.0011
605.921	-0.0004
606.197	-0.0014
606.474	-0.0003
606.751	-0.001
607.027	-0.0008
607.304	-0.0002
607.58	0.0002
607.856	-0.0008
608.133	-0.0006
608.409	-0.0003
608.685	-0.0008
608.961	-0.0007
609.237	0.0001
609.513	-0.0009
609.789	-0.001
610.065	-0.0006
610.341	-0.0009
610.616	-0.0002
610.892	-0.0001
611.167	-0.0001
611.443	-0.0012
611.718	-0.0013
611.994	-0.0005
612.269	-0.0007
612.544	-0.0007
612.819	-0.0012
613.095	-0.002
613.37	0.0002
613.645	-0.0004
613.919	-0.0014
614.194	-0.0003
614.469	0.0009
614.744	-0.0006
615.019	-0.0011
615.293	-0.0009
615.568	-0.0012
615.842	0.0001
616.116	0.0009
616.391	0.0009
616.665	0.0011
616.939	-0.0001
617.213	0.0012
617.488	0.0001
617.762	-0.0007
618.035	-0.0006
618.309	-0.0018
618.583	0
618.857	0.0002
619.131	-0.0004
619.404	0.001
619.678	-0
619.951	-0.0006
620.225	-0.0004
620.498	-0.0005
620.771	-0.0006
621.045	-0.001
621.318	-0.0026
621.591	-0.0026
621.864	-0.0022
622.137	-0.0024
622.41	-0.0017
622.683	-0.0015
622.956	-0.0012
623.228	-0.0008
623.501	-0.0005
623.774	-0.0008
624.046	-0.0006
624.319	-0.0017
624.591	-0.0017
624.863	-0.0013
625.136	-0.0008
625.408	0.0009
625.68	0.0003
625.952	-0
626.224	-0.0001
626.496	0.0002
626.768	-0.0008
627.04	-0.0005
627.311	-0.0014
627.583	-0.0019
627.855	-0.0003
628.126	0.0005
628.398	0.0006
628.669	0.0026
628.941	0.0023
629.212	0.0017
629.483	0.0006
629.755	-0.0003
630.026	0.0006
630.297	0.0006
630.568	-0.0002
630.839	-0.0002
631.11	-0.0011
631.38	-0.0004
631.651	0.0002
631.922	0.0002
632.192	-0.0006
632.463	-0.0013
632.733	-0.0009
633.004	-0.0012
633.274	-0.0003
633.545	0.0001
633.815	-0
634.085	-0.0026
634.355	-0.0014
634.625	-0.0009
634.895	-0.0008
635.165	-0.0013
635.435	-0.0024
635.705	-0.0014
635.974	-0.0021
636.244	-0.0015
636.514	-0.0009
636.783	-0.0024
637.053	-0.0011
637.322	-0.0007
637.591	-0.002
637.861	-0.0028
638.13	-0.0017
638.399	-0.0025
638.668	-0.0026
638.937	-0.003
639.206	-0.0036
639.475	-0.003
639.744	-0.0032
640.013	-0.0029
640.281	-0.0028
640.55	-0.0027
640.819	-0.0029
641.087	-0.0022
641.356	-0.0027
641.624	-0.0017
641.892	-0.0011
642.161	-0.0015
642.429	-0.0011
642.697	-0.0016
642.965	-0.0011
643.233	-0.0016
643.501	-0.0021
643.769	-0.0003
644.037	-0.0003
644.305	-0.0008
644.572	-0.0012
644.84	-0.0021
645.108	-0.0023
645.375	-0.0032
645.643	-0.0018
645.91	-0.0004
646.177	0.0005
646.445	-0.0002
646.712	0.0025
646.979	0.0019
647.246	0.0029
647.513	0.0023
647.78	0.0011
648.047	-0
648.314	-0.0021
648.58	-0.0011
648.847	-0.0013
649.114	-0.0001
649.38	-0.0006
649.647	-0.0007
649.913	-0.001
650.18	-0.0008
650.446	-0.0011
650.712	-0.0022
650.978	-0.0014
651.245	-0.0015
651.511	-0.0014
651.777	-0.0012
652.043	-0.0017
652.309	-0.0002
652.574	0.0014
652.84	0.0005
653.106	0.0013
653.371	0.0012
653.637	0.0008
653.903	0.0011
654.168	0.0014
654.433	0.0017
654.699	0.002
654.964	0.0025
655.229	0.0017
655.494	0.0001
655.759	-0.0018
656.024	-0.0002
656.289	-0
656.554	0.0006
656.819	0.0001
657.084	0.0002
657.349	-0.0004
657.613	-0.0002
657.878	-0.0003
658.142	-0.0006
658.407	-0.0001
658.671	-0.0002
658.936	-0.0002
659.2	-0.0001
659.464	0.0006
659.728	0.0002
659.992	-0.001
660.256	-0.0001
660.52	-0.0007
660.784	0.0001
661.048	0.0004
661.312	0.0009
661.575	0.0003
661.839	0.0009
662.103	-0.0002
662.366	-0.0011
662.63	-0.0019
662.893	-0.0012
663.156	-0.0012
663.42	-0.002
663.683	-0.0022
663.946	-0.0037
664.209	-0.0031
664.472	-0.0029
664.735	-0.0019
664.998	-0.001
665.261	-0.0009
665.524	-0.0017
665.786	-0.0014
666.049	-0.0011
666.312	-0.0012
666.574	-0.001
666.837	-0.0005
667.099	-0.0011
667.361	-0.0018
667.624	-0.0015
667.886	-0.0023
668.148	-0.0029
668.41	-0.0015
668.672	-0.0018
668.934	0.0002
669.196	-0.0003
669.458	0.0007
669.72	0.0016
669.982	0.0011
670.243	0.0004
670.505	-0.0006
670.766	-0.0002
671.028	-0.0004
671.289	-0.0017
671.551	-0.0019
671.812	-0.0024
672.073	-0.0012
672.334	-0.0014
672.596	-0.002
672.857	-0.0016
673.118	-0.0023
673.379	-0.0033
673.639	-0.0031
673.9	-0.0026
674.161	-0.0029
674.422	-0.0032
674.682	-0.0029
674.943	-0.0026
675.203	-0.0028
675.464	-0.0031
675.724	-0.0045
675.985	-0.0037
676.245	-0.0035
676.505	-0.0035
676.765	-0.0031
677.025	-0.0033
677.285	-0.0029
677.545	-0.0019
677.805	-0.0016
678.065	-0.0021
678.325	-0.0019
678.585	-0.0027
678.844	-0.0045
679.104	-0.0036
679.363	-0.0055
679.623	-0.0042
679.882	-0.0034
680.142	-0.0026
680.401	-0.003
680.66	-0.0016
680.919	-0.0005
681.178	-0.0012
681.437	-0.0021
681.696	-0.0017
681.955	-0.0009
682.214	-0.0009
682.473	-0.0022
682.732	-0.0033
682.99	-0.0033
683.249	-0.0024
683.508	-0.0026
683.766	-0.0023
684.024	-0.0024
684.283	-0.0015
684.541	-0.0011
684.799	-0.0014
685.058	-0.0007
685.316	-0.0015
685.574	-0.0018
685.832	-0.0029
686.09	-0.0026
686.348	-0.0033
686.606	-0.0032
686.863	-0.0036
687.121	-0.0027
687.379	-0.002
687.636	-0.0029
687.894	-0.0014
688.151	-0.0011
688.409	-0.0011
688.666	-0.0026
688.923	-0.0039
689.181	-0.0037
689.438	-0.0041
689.695	-0.0033
689.952	-0.0046
690.209	-0.0034
690.466	-0.0044
690.723	-0.0034
690.979	-0.0028
691.236	-0.0036
691.493	-0.0019
691.75	-0.002
692.006	-0.0029
692.263	-0.0028
692.519	-0.0029
692.775	-0.0024
693.032	-0.0023
693.288	-0.0027
693.544	-0.0009
693.8	-0.0014
694.056	-0.0013
694.313	-0.0017
694.568	-0.0008
694.824	-0.0029
695.08	-0.0021
695.336	-0.003
695.592	-0.0029
695.847	-0.0022
696.103	-0.0022
696.359	-0.0025
696.614	-0.003
696.869	-0.003
697.125	-0.004
697.38	-0.0021
697.635	-0.0022
697.891	-0.0018
698.146	-0.0012
698.401	-0.0019
698.656	-0.0035
698.911	-0.0025
699.166	-0.0016
699.42	-0.0011
699.675	-0.0014
699.93	-0.002
700.185	-0.0021
700.439	-0.0014
700.694	-0.0018
700.948	-0.0021
701.203	-0.0017
701.457	-0.0027
701.711	-0.0028
701.965	-0.0031
702.22	-0.003
702.474	-0.0031
702.728	-0.0023
702.982	-0.0024
703.236	-0.0017
703.49	-0.0012
703.743	-0.0027
703.997	-0.0018
704.251	-0.0029
704.504	-0.0026
704.758	-0.003
705.012	-0.0023
705.265	-0.0018
705.518	-0.0013
705.772	-0.0019
706.025	-0.0008
706.278	-0.0029
706.531	-0.0031
706.785	-0.0033
707.038	-0.0039
707.291	-0.0034
707.543	-0.0033
707.796	-0.0033
708.049	-0.0039
708.302	-0.0034
708.555	-0.0039
708.807	-0.0027
709.06	-0.0029
709.312	-0.0022
709.565	-0.0028
709.817	-0.0039
710.069	-0.0038
710.322	-0.0037
710.574	-0.0042
710.826	-0.0041
711.078	-0.0039
711.33	-0.0038
711.582	-0.0049
711.834	-0.0049
712.086	-0.0057
712.338	-0.0055
712.59	-0.005
712.841	-0.0063
713.093	-0.0055
713.344	-0.0058
713.596	-0.0056
713.847	-0.0038
714.099	-0.0047
714.35	-0.0042
714.601	-0.004
714.853	-0.0034
715.104	-0.0042
715.355	-0.0036
715.606	-0.0036
715.857	-0.0035
716.108	-0.0047
716.359	-0.0035
716.609	-0.0044
716.86	-0.0036
717.111	-0.0038
717.361	-0.0023
717.612	-0.0003
717.863	-0.0002
718.113	0.001
718.363	-0.0004
718.614	0.0007
718.864	-0
719.114	-0.0007
719.364	0.0002
719.614	-0.0001
719.865	0.0003
720.114	0.001
720.364	0.0005
720.614	0.0013
720.864	0.0003
721.114	0.001
721.364	0.0011
721.613	0.0001
721.863	-0.0002
722.112	0.0002
722.362	-0.0012
722.611	-0.0014
722.86	-0.0024
723.11	-0.0017
723.359	-0.0023
723.608	-0.0024
723.857	-0.0024
724.106	-0.0026
724.355	-0.0011
724.604	-0.0021
724.853	-0.0021
725.102	-0.0041
725.351	-0.0026
725.599	-0.0038
725.848	-0.0042
726.097	-0.0037
726.345	-0.0036
726.594	-0.0043
726.842	-0.0038
727.09	-0.0047
727.339	-0.0055
727.587	-0.0056
727.835	-0.0058
728.083	-0.0046
728.331	-0.0055
728.579	-0.0039
728.827	-0.0031
729.075	-0.0029
729.323	-0.0039
729.571	-0.0039
729.818	-0.0027
730.066	-0.0031
730.314	-0.0034
730.561	-0.0015
730.809	-0.0018
731.056	-0.0019
731.303	-0.0006
731.551	-0.0015
731.798	-0.0019
732.045	-0.0013
732.292	-0.0001
732.539	-0.0003
732.786	0.001
733.033	-0.0001
733.28	0.0005
733.527	0.0003
733.774	-0.0006
734.021	-0.002
734.267	-0.0025
734.514	-0.0032
734.76	-0.0034
735.007	-0.0029
735.253	-0.0042
735.5	-0.0038
735.746	-0.0038
735.992	-0.0029
736.238	-0.0035
736.485	-0.003
736.731	-0.0024
736.977	-0.0032
737.223	-0.003
737.469	-0.0024
737.715	-0.0023
737.96	-0.0026
738.206	-0.0034
738.452	-0.0031
738.697	-0.0028
738.943	-0.0024
739.189	-0.0027
739.434	-0.0024
739.679	-0.0031
739.925	-0.0038
740.17	-0.0056
740.415	-0.0058
740.66	-0.0064
740.906	-0.0066
741.151	-0.0062
741.396	-0.0066
741.641	-0.0073
741.886	-0.007
742.13	-0.0045
742.375	-0.0036
742.62	-0.0045
742.865	-0.0031
743.109	-0.002
743.354	-0.0016
743.598	-0.0007
743.843	-0.0003
744.087	0.0011
744.331	0.0011
744.576	0.0013
744.82	0.003
745.064	0.0021
745.308	0.0021
745.552	0.0009
745.796	0.0009
746.04	0.0003
746.284	0.0009
746.528	0.0008
746.771	0.0019
747.015	0.0023
747.259	0.0005
747.502	0
747.746	-0.0006
747.989	-0.0007
748.233	-0.0015
748.476	0.0004
748.719	0.0009
748.963	0.0015
749.206	0.0016
749.449	0.0007
749.692	0.0002
749.935	0
750.178	-0.001
750.421	-0.0014
750.664	-0.0008
750.906	0.0004
751.149	0.0001
751.392	-0.0007
751.635	-0.0014
751.877	-0.0015
752.12	-0.0013
752.362	-0.0022
752.604	-0.0014
752.847	0.0002
753.089	0
753.331	0.0009
753.573	0.0002
753.816	-0.0017
754.058	-0.0016
754.3	-0.0034
754.542	-0.0024
754.783	-0.0034
755.025	-0.0022
755.267	-0.0015
755.509	-0.0024
755.75	-0.0023
755.992	-0.0022
756.234	-0.0026
756.475	-0.0034
756.716	-0.0032
756.958	-0.0026
757.199	-0.0025
757.44	-0.0028
757.682	-0.0023
757.923	-0.0014
758.164	-0.0011
758.405	-0.0011
758.646	0.0001
758.887	-0.0005
759.128	0.0007
759.369	-0.0009
759.609	0.0007
759.85	0.0005
760.091	0.001
760.331	-0.0001
760.572	-0.0015
760.812	-0.0008
761.053	-0.001
761.293	-0.0009
761.533	-0.0015
761.774	0.0001
762.014	-0.0001
762.254	-0.0012
762.494	-0.0023
762.734	-0.0016
762.974	-0.0033
763.214	-0.0027
763.454	-0.0026
763.694	-0.003
763.933	-0.0035
764.173	-0.0056
764.413	-0.0062
764.652	-0.0055
764.892	-0.0051
765.131	-0.0037
765.371	-0.004
765.61	-0.0043
765.849	-0.0035
766.089	-0.0027
766.328	-0.0038
766.567	-0.0035
766.806	-0.0033
767.045	-0.003
767.284	-0.0031
767.523	-0.0028
767.762	-0.004
768.001	-0.0032
768.239	-0.0026
768.478	-0.002
768.717	-0.0011
768.955	-0.0015
769.194	-0.0006
769.432	0.0005
769.671	0.0007
769.909	-0.0004
770.148	-0.0001
770.386	-0.0003
770.624	0.0001
770.862	0.0001
771.1	0.0006
771.338	0.0005
771.576	-0.0002
771.814	0.0004
772.052	0.001
772.29	0.0018
772.528	0.0021
772.765	0.0037
773.003	0.0027
773.24	0.0034
773.478	0.0008
773.716	0.001
773.953	0.0005
774.19	0.0001
774.428	0.0019
774.665	0.0017
774.902	0.0029
775.139	0.0025
775.376	0.0012
775.613	0.0024
775.85	0.0013
776.087	0.0002
776.324	0.0014
776.561	-0
776.798	-0.0001
777.034	0.0001
777.271	0.0014
777.508	0.0008
777.744	0.0016
777.981	0.0023
778.217	0.0023
778.454	0.0008
778.69	-0.0005
778.926	-0.0022
779.162	-0.0018
779.399	-0.0014
779.635	-0.0024
779.871	-0.0014
780.107	-0.002
780.343	-0.0029
780.579	-0.0024
780.814	-0.0027
781.05	-0.0021
781.286	-0.0025
781.522	-0.0021
781.757	-0.0017
781.993	-0.0023
782.228	-0.0023
782.464	-0.0021
782.699	-0.0029
782.934	-0.0035
783.17	-0.0032
783.405	-0.0029
783.64	-0.0037
783.875	-0.0037
784.11	-0.0037
784.345	-0.0035
784.58	-0.002
784.815	-0.0019
785.05	-0.0027
785.285	-0.0036
785.52	-0.0042
785.754	-0.0044
785.989	-0.0053
786.223	-0.0063
786.458	-0.0065
786.692	-0.005
786.927	-0.005
787.161	-0.0048
787.396	-0.0052
787.63	-0.0053
787.864	-0.0063
788.098	-0.0054
788.332	-0.0057
788.566	-0.0041
788.8	-0.004
789.034	-0.0028
789.268	-0.003
789.502	-0.0034
789.736	-0.0037
789.969	-0.0037
790.203	-0.004
790.437	-0.0053
790.67	-0.0058
790.904	-0.0067
791.137	-0.0073
791.37	-0.0069
791.604	-0.0087
791.837	-0.0082
792.07	-0.0069
792.303	-0.0077
792.537	-0.0067
792.77	-0.0071
793.003	-0.0068
793.236	-0.0053
793.469	-0.0066
793.701	-0.0057
793.934	-0.0041
794.167	-0.0029
794.4	-0.0035
794.632	-0.0021
794.865	-0.0017
795.097	-0.0021
795.33	-0.0032
795.562	-0.0021
795.795	-0.0012
796.027	-0.0009
796.259	-0.0015
796.491	-0.001
796.724	-0.001
796.956	0.0003
797.188	-0.0004
797.42	-0.0007
797.652	-0.0008
797.883	-0.001
798.115	-0.0008
798.347	-0.0002
798.579	0.0011
798.81	0.002
799.042	0.0018
799.274	0.0005
799.505	0.0005
799.737	0.0001
799.968	-0.0005
800.199	-0.0019
800.431	-0.0014
800.662	-0.0022
800.893	-0.0023
801.124	-0.0029
801.355	-0.0034
801.586	-0.0025
801.817	-0.004
802.048	-0.0047
802.279	-0.0047
802.51	-0.0037
802.741	-0.002
802.971	-0.0005
803.202	-0.0006
803.433	-0.0004
803.663	-0.0016
803.894	-0.0021
804.124	-0.0028
804.354	-0.0022
804.585	-0.0015
804.815	-0.0015
805.045	-0.0014
805.275	-0.0009
805.506	-0.044
805.736	-0.0486
805.966	0.0023
806.196	0.1455
