Data from 03 0.5 mM K2Cr2O7 0.3 mM BQDS 1 M H2SO4 5 min_Absorbance_0094.txt Node
Date: Tue Dec 14 01:29:44 EST 2021
User: kwabilab-user
Spectrometer: HDX00518
Trigger mode: 0
Integration Time (sec): 5.000000E-2
Scans to average: 50
Nonlinearity correction enabled: false
Boxcar width: 0
Storing dark spectrum: false
XAxis mode: Wavelengths
Number of Pixels in Spectrum: 2068
>>>>>Begin Spectral Data<<<<<
195.27	-0.1577
195.642	-0.0623
196.014	-0.0428
196.386	-0.0609
196.758	-0.0649
197.129	-0.0568
197.501	-0.0497
197.872	-0.0199
198.244	-0.0016
198.615	0.02
198.986	0.0054
199.357	0.0188
199.728	-0.0022
200.099	0.0161
200.47	-0.0059
200.841	0.0042
201.212	0.0199
201.582	0.0039
201.953	0.0158
202.323	0.0111
202.694	0.0043
203.064	0.005
203.434	0.0089
203.804	-0.0278
204.174	0.0132
204.544	-0.0096
204.914	0.0034
205.284	0.0008
205.653	-0.017
206.023	0.0002
206.393	-0.0306
206.762	0.0139
207.131	0.0019
207.501	-0.0047
207.87	-0.0014
208.239	0.0134
208.608	-0.0098
208.977	-0.0024
209.346	-0.0171
209.715	-0.0265
210.083	-0.0223
210.452	-0.0135
210.82	0.0035
211.189	-0.0221
211.557	0.012
211.925	-0.0321
212.294	0.0013
212.662	0.005
213.03	-0.0187
213.398	0.004
213.766	0.0156
214.133	-0.002
214.501	0.017
214.869	0.002
215.236	-0.0128
215.604	0.0031
215.971	0.0111
216.338	0.0177
216.705	0.0188
217.072	0.0281
217.439	0.0052
217.806	0.0174
218.173	0.017
218.54	0.0079
218.907	0.0332
219.273	0.0427
219.64	0.0321
220.006	0.0563
220.373	0.0565
220.739	0.0732
221.105	0.08
221.471	0.0901
221.837	0.1094
222.203	0.1415
222.569	0.1473
222.935	0.1668
223.3	0.1763
223.666	0.2144
224.031	0.2233
224.397	0.2468
224.762	0.2728
225.127	0.3043
225.493	0.3266
225.858	0.3428
226.223	0.3668
226.588	0.3821
226.952	0.4084
227.317	0.4275
227.682	0.437
228.046	0.466
228.411	0.4859
228.775	0.4988
229.14	0.508
229.504	0.5225
229.868	0.5353
230.232	0.5474
230.596	0.5494
230.96	0.5738
231.324	0.5773
231.688	0.5797
232.052	0.6035
232.415	0.6112
232.779	0.6237
233.142	0.6306
233.505	0.6379
233.869	0.654
234.232	0.6428
234.595	0.6454
234.958	0.6468
235.321	0.6401
235.684	0.6462
236.047	0.6508
236.409	0.6487
236.772	0.6593
237.134	0.6639
237.497	0.6563
237.859	0.6607
238.222	0.6593
238.584	0.6491
238.946	0.6378
239.308	0.657
239.67	0.6411
240.032	0.646
240.393	0.6601
240.755	0.6429
241.117	0.6509
241.478	0.6495
241.84	0.6456
242.201	0.6397
242.562	0.6281
242.924	0.6275
243.285	0.6325
243.646	0.6372
244.007	0.6312
244.368	0.6378
244.728	0.6343
245.089	0.6357
245.45	0.6375
245.81	0.6243
246.171	0.6214
246.531	0.6222
246.891	0.6291
247.252	0.6225
247.612	0.6255
247.972	0.6212
248.332	0.6276
248.692	0.6229
249.051	0.6185
249.411	0.6252
249.771	0.6203
250.13	0.6252
250.49	0.6207
250.849	0.6208
251.208	0.621
251.568	0.6198
251.927	0.6191
252.286	0.6217
252.645	0.6176
253.004	0.6222
253.363	0.626
253.721	0.6258
254.08	0.6246
254.439	0.6177
254.797	0.6182
255.155	0.613
255.514	0.6176
255.872	0.6183
256.23	0.6121
256.588	0.6209
256.946	0.6158
257.304	0.6195
257.662	0.6175
258.02	0.6134
258.377	0.6095
258.735	0.614
259.093	0.6083
259.45	0.6082
259.807	0.6098
260.165	0.6074
260.522	0.6007
260.879	0.6003
261.236	0.6003
261.593	0.6015
261.95	0.5955
262.306	0.5966
262.663	0.5913
263.02	0.5896
263.376	0.5869
263.733	0.5892
264.089	0.5879
264.445	0.5781
264.802	0.5851
265.158	0.5805
265.514	0.5779
265.87	0.5691
266.226	0.5747
266.581	0.573
266.937	0.5712
267.293	0.5673
267.648	0.561
268.004	0.5585
268.359	0.5568
268.714	0.552
269.07	0.5539
269.425	0.55
269.78	0.5417
270.135	0.542
270.49	0.5441
270.844	0.5365
271.199	0.5364
271.554	0.5331
271.908	0.5262
272.263	0.5265
272.617	0.5227
272.972	0.5194
273.326	0.5163
273.68	0.5155
274.034	0.508
274.388	0.5073
274.742	0.5033
275.096	0.4996
275.45	0.4972
275.803	0.4926
276.157	0.488
276.51	0.4808
276.864	0.4801
277.217	0.4772
277.571	0.4754
277.924	0.4723
278.277	0.4673
278.63	0.465
278.983	0.4568
279.336	0.4503
279.688	0.4505
280.041	0.4439
280.394	0.4446
280.746	0.438
281.099	0.4305
281.451	0.4293
281.803	0.423
282.156	0.4193
282.508	0.4145
282.86	0.4113
283.212	0.4057
283.564	0.4007
283.916	0.3992
284.267	0.3912
284.619	0.3892
284.971	0.385
285.322	0.3804
285.673	0.376
286.025	0.3734
286.376	0.367
286.727	0.365
287.078	0.3623
287.429	0.3542
287.78	0.3534
288.131	0.3494
288.482	0.3439
288.833	0.3373
289.183	0.3346
289.534	0.3304
289.884	0.328
290.235	0.3221
290.585	0.3183
290.935	0.3137
291.285	0.3097
291.635	0.3056
291.985	0.302
292.335	0.2979
292.685	0.2955
293.035	0.2912
293.384	0.2852
293.734	0.2831
294.083	0.2777
294.433	0.2734
294.782	0.2718
295.131	0.2665
295.48	0.2602
295.829	0.2591
296.179	0.2547
296.527	0.2514
296.876	0.2485
297.225	0.2436
297.574	0.2402
297.922	0.2378
298.271	0.2321
298.619	0.2292
298.968	0.2264
299.316	0.2223
299.664	0.2199
300.012	0.2173
300.36	0.2142
300.708	0.2106
301.056	0.2077
301.404	0.2054
301.752	0.2033
302.099	0.1993
302.447	0.1975
302.794	0.1946
303.142	0.1918
303.489	0.1894
303.836	0.1878
304.183	0.185
304.531	0.1839
304.878	0.18
305.224	0.18
305.571	0.1779
305.918	0.1753
306.265	0.1743
306.611	0.1715
306.958	0.1718
307.304	0.169
307.651	0.1689
307.997	0.1672
308.343	0.1667
308.689	0.1644
309.035	0.1633
309.381	0.1625
309.727	0.1616
310.073	0.1609
310.419	0.1605
310.764	0.1595
311.11	0.1585
311.455	0.1592
311.801	0.1578
312.146	0.1575
312.491	0.1575
312.837	0.1561
313.182	0.1565
313.527	0.1571
313.872	0.1567
314.216	0.1569
314.561	0.1569
314.906	0.1572
315.251	0.1567
315.595	0.1579
315.94	0.1583
316.284	0.1588
316.628	0.1591
316.972	0.1596
317.317	0.1606
317.661	0.161
318.005	0.1616
318.348	0.1625
318.692	0.1634
319.036	0.1632
319.38	0.1642
319.723	0.1655
320.067	0.1668
320.41	0.1666
320.754	0.1692
321.097	0.1707
321.44	0.1714
321.783	0.1728
322.126	0.1742
322.469	0.1747
322.812	0.1753
323.155	0.1773
323.498	0.1786
323.84	0.181
324.183	0.1821
324.525	0.1841
324.868	0.1855
325.21	0.1856
325.552	0.1884
325.894	0.1894
326.236	0.1913
326.578	0.1925
326.92	0.1947
327.262	0.1961
327.604	0.1977
327.946	0.1999
328.287	0.2014
328.629	0.2032
328.97	0.2049
329.312	0.206
329.653	0.2077
329.994	0.2091
330.335	0.211
330.676	0.2139
331.017	0.2159
331.358	0.2171
331.699	0.2193
332.04	0.2211
332.38	0.2224
332.721	0.2243
333.061	0.2267
333.402	0.2277
333.742	0.2303
334.083	0.2319
334.423	0.2326
334.763	0.2351
335.103	0.2363
335.443	0.2374
335.783	0.2394
336.123	0.2403
336.462	0.2423
336.802	0.2446
337.141	0.2456
337.481	0.2463
337.82	0.2479
338.16	0.2492
338.499	0.2511
338.838	0.2519
339.177	0.255
339.516	0.2556
339.855	0.2568
340.194	0.2578
340.533	0.2587
340.872	0.26
341.21	0.2606
341.549	0.2629
341.887	0.2631
342.226	0.2642
342.564	0.2652
342.902	0.266
343.24	0.2662
343.578	0.2668
343.916	0.2673
344.254	0.2681
344.592	0.2684
344.93	0.2693
345.268	0.2697
345.605	0.2692
345.943	0.2697
346.28	0.2705
346.618	0.2704
346.955	0.2715
347.292	0.271
347.629	0.2713
347.966	0.2716
348.303	0.2719
348.64	0.2722
348.977	0.2723
349.314	0.2725
349.65	0.2719
349.987	0.2727
350.324	0.2719
350.66	0.2721
350.996	0.2708
351.333	0.2716
351.669	0.2708
352.005	0.2707
352.341	0.2694
352.677	0.2686
353.013	0.2672
353.349	0.2665
353.685	0.2656
354.02	0.2644
354.356	0.2633
354.691	0.2611
355.027	0.2611
355.362	0.2603
355.697	0.2595
356.033	0.2578
356.368	0.2562
356.703	0.2563
357.038	0.2557
357.373	0.2536
357.707	0.2531
358.042	0.2515
358.377	0.2511
358.711	0.2496
359.046	0.2482
359.38	0.2476
359.715	0.2464
360.049	0.2453
360.383	0.244
360.717	0.2431
361.051	0.2414
361.385	0.2402
361.719	0.2371
362.053	0.2366
362.387	0.2338
362.72	0.2321
363.054	0.2306
363.387	0.2283
363.721	0.2264
364.054	0.2244
364.387	0.2227
364.721	0.221
365.054	0.2185
365.387	0.2173
365.72	0.2149
366.053	0.2138
366.385	0.2115
366.718	0.2096
367.051	0.2082
367.383	0.2076
367.716	0.2055
368.048	0.2044
368.381	0.2022
368.713	0.2011
369.045	0.2009
369.377	0.1978
369.709	0.1966
370.041	0.195
370.373	0.1935
370.705	0.1912
371.037	0.1905
371.368	0.1883
371.7	0.1877
372.031	0.1849
372.363	0.1821
372.694	0.1803
373.025	0.1773
373.356	0.176
373.688	0.1744
374.019	0.172
374.35	0.1701
374.68	0.1679
375.011	0.1657
375.342	0.1628
375.673	0.1618
376.003	0.1591
376.334	0.1574
376.664	0.1555
376.995	0.1542
377.325	0.1513
377.655	0.1502
377.985	0.1484
378.315	0.1473
378.645	0.1457
378.975	0.1445
379.305	0.1427
379.635	0.1421
379.964	0.1403
380.294	0.1383
380.623	0.1377
380.953	0.1357
381.282	0.1339
381.611	0.1326
381.941	0.1312
382.27	0.1295
382.599	0.1279
382.928	0.1259
383.257	0.1249
383.585	0.1226
383.914	0.1219
384.243	0.1201
384.571	0.118
384.9	0.1157
385.228	0.1144
385.557	0.1123
385.885	0.1098
386.213	0.109
386.541	0.1076
386.869	0.1057
387.197	0.1032
387.525	0.102
387.853	0.1001
388.181	0.0984
388.508	0.0975
388.836	0.0955
389.164	0.0939
389.491	0.0934
389.818	0.0907
390.146	0.0899
390.473	0.0887
390.8	0.0877
391.127	0.0857
391.454	0.0848
391.781	0.0837
392.108	0.0829
392.435	0.0814
392.761	0.0801
393.088	0.0797
393.415	0.0782
393.741	0.0772
394.067	0.0772
394.394	0.0758
394.72	0.0749
395.046	0.074
395.372	0.0733
395.698	0.0718
396.024	0.0711
396.35	0.0697
396.676	0.0691
397.001	0.0685
397.327	0.0672
397.653	0.0661
397.978	0.064
398.303	0.0636
398.629	0.0623
398.954	0.0618
399.279	0.0607
399.604	0.0605
399.929	0.0595
400.254	0.0588
400.579	0.0585
400.904	0.0573
401.229	0.0562
401.553	0.0556
401.878	0.0552
402.202	0.0543
402.527	0.0537
402.851	0.054
403.175	0.0533
403.5	0.0523
403.824	0.052
404.148	0.0517
404.472	0.0507
404.796	0.0504
405.119	0.0504
405.443	0.0499
405.767	0.0485
406.09	0.0489
406.414	0.0487
406.737	0.0484
407.061	0.0479
407.384	0.0485
407.707	0.0478
408.03	0.0471
408.353	0.0471
408.676	0.0466
408.999	0.0464
409.322	0.0469
409.645	0.0463
409.968	0.0465
410.29	0.046
410.613	0.0465
410.935	0.0459
411.258	0.0455
411.58	0.0449
411.902	0.0459
412.224	0.0444
412.546	0.0452
412.868	0.0449
413.19	0.0448
413.512	0.0451
413.834	0.0443
414.156	0.0449
414.477	0.045
414.799	0.0445
415.121	0.0448
415.442	0.0437
415.763	0.0439
416.085	0.0437
416.406	0.0443
416.727	0.0446
417.048	0.044
417.369	0.0438
417.69	0.0434
418.011	0.0437
418.331	0.044
418.652	0.0442
418.973	0.044
419.293	0.044
419.614	0.044
419.934	0.0447
420.254	0.044
420.574	0.0441
420.895	0.044
421.215	0.0438
421.535	0.0439
421.855	0.0436
422.174	0.044
422.494	0.0434
422.814	0.0442
423.134	0.0436
423.453	0.0442
423.773	0.0435
424.092	0.0441
424.411	0.0436
424.731	0.0442
425.05	0.0438
425.369	0.0435
425.688	0.0444
426.007	0.0441
426.326	0.044
426.644	0.0445
426.963	0.0449
427.282	0.0447
427.6	0.0444
427.919	0.0437
428.237	0.0443
428.556	0.0446
428.874	0.0446
429.192	0.0448
429.51	0.0445
429.828	0.0445
430.146	0.0444
430.464	0.0442
430.782	0.0441
431.1	0.0448
431.418	0.044
431.735	0.0441
432.053	0.0446
432.37	0.0444
432.688	0.0442
433.005	0.0444
433.322	0.0454
433.639	0.0444
433.957	0.045
434.274	0.0445
434.591	0.044
434.907	0.0439
435.224	0.0445
435.541	0.0447
435.858	0.0448
436.174	0.0445
436.491	0.0441
436.807	0.0431
437.124	0.0438
437.44	0.0446
437.756	0.0442
438.072	0.0442
438.388	0.0447
438.704	0.0435
439.02	0.0445
439.336	0.0434
439.652	0.0441
439.968	0.0435
440.283	0.0429
440.599	0.043
440.914	0.0445
441.23	0.044
441.545	0.0432
441.86	0.0426
442.175	0.0431
442.491	0.0437
442.806	0.0435
443.121	0.0427
443.435	0.0431
443.75	0.043
444.065	0.0431
444.38	0.0432
444.694	0.0434
445.009	0.0433
445.323	0.0429
445.638	0.0414
445.952	0.0426
446.266	0.0427
446.58	0.0423
446.894	0.0425
447.208	0.0418
447.522	0.0426
447.836	0.0419
448.15	0.0411
448.464	0.0422
448.777	0.0418
449.091	0.0414
449.404	0.0413
449.718	0.041
450.031	0.0409
450.345	0.0411
450.658	0.0411
450.971	0.0402
451.284	0.0409
451.597	0.0406
451.91	0.0409
452.223	0.0404
452.535	0.0399
452.848	0.0405
453.161	0.0399
453.473	0.0401
453.786	0.0387
454.098	0.0391
454.411	0.0399
454.723	0.0389
455.035	0.0386
455.347	0.0383
455.659	0.0385
455.971	0.0393
456.283	0.0384
456.595	0.0374
456.907	0.0388
457.218	0.0377
457.53	0.0375
457.841	0.0377
458.153	0.0376
458.464	0.0371
458.776	0.0377
459.087	0.0368
459.398	0.0374
459.709	0.0367
460.02	0.0376
460.331	0.0361
460.642	0.0361
460.953	0.0359
461.263	0.0357
461.574	0.0353
461.885	0.0352
462.195	0.0353
462.506	0.0345
462.816	0.0342
463.126	0.0345
463.437	0.0348
463.747	0.0342
464.057	0.0331
464.367	0.0342
464.677	0.0328
464.987	0.0329
465.296	0.0332
465.606	0.032
465.916	0.0329
466.225	0.0325
466.535	0.0321
466.844	0.0321
467.154	0.032
467.463	0.0315
467.772	0.0315
468.081	0.031
468.39	0.0307
468.699	0.0311
469.008	0.0307
469.317	0.0297
469.626	0.029
469.935	0.029
470.243	0.0296
470.552	0.029
470.86	0.0289
471.169	0.0286
471.477	0.0292
471.785	0.0295
472.093	0.0281
472.402	0.0281
472.71	0.0288
473.018	0.0276
473.326	0.027
473.633	0.0274
473.941	0.0274
474.249	0.0268
474.556	0.0278
474.864	0.0269
475.171	0.0264
475.479	0.0258
475.786	0.0258
476.094	0.026
476.401	0.025
476.708	0.0248
477.015	0.0257
477.322	0.0242
477.629	0.0243
477.936	0.0251
478.242	0.0232
478.549	0.0239
478.856	0.0238
479.162	0.0225
479.469	0.0233
479.775	0.0235
480.081	0.0222
480.388	0.0222
480.694	0.0222
481	0.0218
481.306	0.0223
481.612	0.0221
481.918	0.0212
482.224	0.0217
482.53	0.0208
482.835	0.0209
483.141	0.0202
483.446	0.0205
483.752	0.0197
484.057	0.0202
484.363	0.0197
484.668	0.0191
484.973	0.0183
485.278	0.0189
485.583	0.0184
485.888	0.0182
486.193	0.0178
486.498	0.0181
486.803	0.0177
487.107	0.0181
487.412	0.0173
487.717	0.0173
488.021	0.0171
488.325	0.0184
488.63	0.0175
488.934	0.0175
489.238	0.0166
489.542	0.0163
489.846	0.0165
490.15	0.0164
490.454	0.0155
490.758	0.0153
491.062	0.015
491.366	0.0145
491.669	0.0151
491.973	0.0142
492.276	0.0139
492.58	0.0139
492.883	0.0145
493.186	0.0146
493.489	0.014
493.792	0.0127
494.096	0.0125
494.399	0.0135
494.701	0.0136
495.004	0.0121
495.307	0.0127
495.61	0.0115
495.912	0.0126
496.215	0.0116
496.517	0.0116
496.82	0.0118
497.122	0.0108
497.424	0.0106
497.727	0.0111
498.029	0.0104
498.331	0.0112
498.633	0.0113
498.935	0.0108
499.237	0.01
499.538	0.0099
499.84	0.0097
500.142	0.0094
500.443	0.0091
500.745	0.0094
501.046	0.0091
501.348	0.0088
501.649	0.0078
501.95	0.0078
502.251	0.0088
502.552	0.0088
502.853	0.0076
503.154	0.0076
503.455	0.0081
503.756	0.0076
504.057	0.0085
504.357	0.0071
504.658	0.0075
504.958	0.0075
505.259	0.0072
505.559	0.0063
505.859	0.0064
506.16	0.0063
506.46	0.0067
506.76	0.0064
507.06	0.0059
507.36	0.0061
507.66	0.0052
507.96	0.0062
508.259	0.0055
508.559	0.0073
508.859	0.0063
509.158	0.0052
509.457	0.0044
509.757	0.0056
510.056	0.0061
510.355	0.0062
510.655	0.0053
510.954	0.0054
511.253	0.0045
511.552	0.0057
511.851	0.0045
512.149	0.0032
512.448	0.0045
512.747	0.0052
513.045	0.0039
513.344	0.0035
513.642	0.0032
513.941	0.0035
514.239	0.0039
514.537	0.0023
514.836	0.0034
515.134	0.0022
515.432	0.0044
515.73	0.0031
516.028	0.0027
516.326	0.0035
516.623	0.0028
516.921	0.0017
517.219	0.0031
517.516	0.0026
517.814	0.0029
518.111	0.0023
518.409	0.0012
518.706	0.0021
519.003	0.0015
519.3	0.002
519.597	0.0012
519.894	0.0027
520.191	0.002
520.488	0.0016
520.785	0.0011
521.082	0.002
521.378	0.0015
521.675	0.0018
521.971	0.0015
522.268	0.0014
522.564	0.0015
522.861	0.0012
523.157	0.002
523.453	0.0024
523.749	0.0018
524.045	0.0023
524.341	0.0017
524.637	0.0006
524.933	0.0007
525.229	0.0013
525.524	0.0004
525.82	-0.0007
526.115	-0.0005
526.411	0.0007
526.706	0.0003
527.002	0.0004
527.297	-0
527.592	0.0004
527.887	0.0012
528.182	-0.0002
528.477	0.0016
528.772	0.0014
529.067	0.0006
529.362	0.0012
529.657	0.0011
529.951	0.0009
530.246	-0.0003
530.54	0.0005
530.835	0.0001
531.129	0.0001
531.423	0.0003
531.718	0.0003
532.012	0.0004
532.306	-0.0008
532.6	-0.0009
532.894	0.0004
533.188	0.001
533.482	-0.0001
533.775	0.0008
534.069	0.0001
534.363	-0.0008
534.656	-0.0009
534.95	0.0006
535.243	-0.0001
535.536	0.0009
535.83	-0.0011
536.123	0.0011
536.416	0.0006
536.709	-0.0003
537.002	-0.0003
537.295	-0
537.588	-0.0006
537.881	-0.0004
538.173	0.0002
538.466	-0.0008
538.759	-0.0001
539.051	-0.0001
539.344	-0.0002
539.636	-0.0011
539.928	0.0002
540.22	-0.0001
540.513	-0.0001
540.805	0.0006
541.097	-0.0006
541.389	0.0003
541.681	0.0009
541.972	0.0006
542.264	0.0008
542.556	-0.0001
542.847	0.0008
543.139	-0.0003
543.431	-0
543.722	0.0004
544.013	0.0004
544.305	-0.0004
544.596	0.0001
544.887	0.0004
545.178	0.0016
545.469	-0.0007
545.76	0.0004
546.051	0.0008
546.342	-0.0002
546.632	-0.0008
546.923	-0.0005
547.214	-0.0007
547.504	-0.0002
547.795	-0.0005
548.085	-0.0008
548.375	-0.001
548.666	-0.001
548.956	-0.0011
549.246	-0.0008
549.536	-0.0004
549.826	-0.0005
550.116	-0.0006
550.406	-0.0006
550.695	-0.0019
550.985	-0.0007
551.275	-0.0015
551.564	-0.0016
551.854	-0.0006
552.143	-0.0023
552.433	-0.0018
552.722	-0.0025
553.011	-0.0004
553.3	-0.0009
553.589	-0.0002
553.879	-0.0006
554.167	-0.0002
554.456	0.0001
554.745	0.001
555.034	-0.0004
555.323	0.0002
555.611	-0.0001
555.9	-0.0007
556.188	-0.0012
556.477	-0.0008
556.765	-0.003
557.053	-0.0015
557.342	-0.0008
557.63	-0.0005
557.918	-0.0011
558.206	0.0003
558.494	-0.0002
558.782	-0.0009
559.069	0.0012
559.357	-0
559.645	-0.0004
559.932	-0.0012
560.22	-0.0008
560.507	-0.002
560.795	-0.0012
561.082	-0.0007
561.37	-0.0005
561.657	-0.0007
561.944	-0.0009
562.231	-0.0003
562.518	0.0002
562.805	0
563.092	-0
563.379	0.0005
563.665	0.0007
563.952	-0.0005
564.239	0.0009
564.525	-0.0004
564.811	0.0013
565.098	-0.0001
565.384	-0.0013
565.67	0
565.957	0.0004
566.243	0.0003
566.529	-0.0009
566.815	-0.0008
567.101	0.0004
567.387	-0
567.672	-0.0005
567.958	0.0006
568.244	0.0011
568.529	0.0002
568.815	-0.0002
569.1	-0.0012
569.386	-0.0012
569.671	-0.0001
569.956	-0.0011
570.242	-0.0002
570.527	-0.0006
570.812	-0.0001
571.097	-0.0004
571.382	-0.0007
571.666	-0.0002
571.951	-0.001
572.236	-0.0001
572.521	0.0007
572.805	-0.0005
573.09	-0.0006
573.374	-0.001
573.659	-0.0001
573.943	-0.0007
574.227	-0.0002
574.511	-0.001
574.795	0
575.079	0.0003
575.363	-0.0015
575.647	-0.0007
575.931	0.0001
576.215	-0.0001
576.499	-0.0014
576.782	-0.0006
577.066	0.0001
577.349	0.0002
577.633	-0.0005
577.916	-0.0007
578.2	-0.0005
578.483	0
578.766	0.0007
579.049	0.0002
579.332	0.001
579.615	0.0006
579.898	0.0001
580.181	0.001
580.464	0.0012
580.746	0.0005
581.029	0.0004
581.312	-0.0005
581.594	-0.0011
581.877	-0.001
582.159	0.0002
582.441	-0.0011
582.724	-0.0005
583.006	0.0013
583.288	0.0008
583.57	0.0018
583.852	0.0011
584.134	0.0012
584.416	0.0004
584.697	0.0009
584.979	-0.0007
585.261	-0.001
585.542	-0.0007
585.824	-0.0002
586.105	-0.0009
586.387	0
586.668	-0
586.949	0.0007
587.231	0.0008
587.512	0.0005
587.793	0.0009
588.074	0.0001
588.355	0.0016
588.636	0.0002
588.916	0.0002
589.197	0.0007
589.478	0.001
589.758	-0.0002
590.039	0.0006
590.319	0.0007
590.6	0.0005
590.88	0.0008
591.16	0.0003
591.441	0.0013
591.721	-0.0005
592.001	0.0002
592.281	-0.0004
592.561	0.0003
592.841	-0.001
593.12	-0.0018
593.4	-0.0005
593.68	-0.0018
593.959	-0.0007
594.239	-0.0008
594.518	0.0002
594.798	0.0004
595.077	-0
595.356	-0.0007
595.636	-0.0006
595.915	0.0003
596.194	0.0004
596.473	0.0002
596.752	0.0009
597.031	0
597.31	0.0001
597.588	-0.0003
597.867	-0.0003
598.146	-0.0001
598.424	0.0008
598.703	-0.0001
598.981	-0.0011
599.259	-0.001
599.538	-0.0003
599.816	0.0001
600.094	-0.001
600.372	-0.0013
600.65	-0.0016
600.928	0
601.206	-0.0001
601.484	-0.0005
601.762	-0
602.04	-0.0007
602.317	-0.0004
602.595	-0.0008
602.872	-0.0002
603.15	0.0003
603.427	-0.0011
603.704	-0.0013
603.982	-0.0005
604.259	-0.0005
604.536	0.0001
604.813	-0.0005
605.09	-0.0001
605.367	-0.0006
605.644	-0.0008
605.921	-0.0001
606.197	-0.001
606.474	0.0002
606.751	-0.0002
607.027	0.0001
607.304	0.0005
607.58	-0.0001
607.856	-0.0004
608.133	-0.0016
608.409	-0
608.685	-0.0003
608.961	-0.0009
609.237	-0.0007
609.513	-0.0008
609.789	-0.0001
610.065	-0.0003
610.341	-0.0013
610.616	-0.0001
610.892	0.0006
611.167	0.0009
611.443	0.0012
611.718	0
611.994	0.0001
612.269	0.0001
612.544	-0.0007
612.819	-0.0012
613.095	-0.001
613.37	0.0004
613.645	-0.0006
613.919	-0.0011
614.194	-0.0003
614.469	0.0003
614.744	-0
615.019	-0.0012
615.293	-0.0005
615.568	-0.0006
615.842	-0
616.116	0.001
616.391	0.0012
616.665	0.0002
616.939	0.0001
617.213	0.0007
617.488	0.0012
617.762	-0.0002
618.035	-0.0005
618.309	-0.0016
618.583	-0.0002
618.857	0.001
619.131	0.001
619.404	0.001
619.678	0.0014
619.951	-0.0013
620.225	-0.0008
620.498	-0.0008
620.771	-0.0012
621.045	-0.001
621.318	-0.0021
621.591	-0.0013
621.864	-0.0018
622.137	-0.0017
622.41	-0.001
622.683	-0.0007
622.956	-0.0011
623.228	-0.0001
623.501	-0.0009
623.774	-0.0015
624.046	-0.0005
624.319	-0.0025
624.591	-0.0025
624.863	-0.0017
625.136	-0.0003
625.408	0.0004
625.68	-0.0004
625.952	0.001
626.224	0.0003
626.496	-0.0003
626.768	-0.0005
627.04	-0.0007
627.311	-0.0013
627.583	-0.0012
627.855	0.0005
628.126	0.001
628.398	0.0017
628.669	0.0018
628.941	0.0015
629.212	0.0015
629.483	0.0009
629.755	0.0005
630.026	0.0007
630.297	0.001
630.568	-0.0004
630.839	0.0006
631.11	-0.0001
631.38	0.0004
631.651	0.0009
631.922	0.0009
632.192	-0.0005
632.463	-0.0008
632.733	-0.002
633.004	-0.0006
633.274	-0.0002
633.545	-0.0001
633.815	-0
634.085	-0.0012
634.355	-0.0019
634.625	-0.0018
634.895	-0.0008
635.165	-0.0006
635.435	-0.0012
635.705	-0.0005
635.974	-0.0018
636.244	-0.0014
636.514	-0.0005
636.783	-0.0014
637.053	-0.0011
637.322	0.0002
637.591	0.0002
637.861	-0.0014
638.13	-0.001
638.399	-0.0011
638.668	-0.0015
638.937	-0.0022
639.206	-0.0033
639.475	-0.0037
639.744	-0.0034
640.013	-0.0024
640.281	-0.0017
640.55	-0.0016
640.819	-0.0014
641.087	-0.0011
641.356	-0.0009
641.624	0.0011
641.892	0.001
642.161	0.0009
642.429	-0.0009
642.697	-0.0011
642.965	-0.0013
643.233	-0.0019
643.501	-0.0028
643.769	-0.001
644.037	0.0002
644.305	-0.0016
644.572	-0.0002
644.84	-0.0015
645.108	-0.0015
645.375	-0.0024
645.643	-0.0003
645.91	0.0021
646.177	0.0024
646.445	0.0014
646.712	0.0032
646.979	0.0041
647.246	0.0028
647.513	0.0039
647.78	0.0023
648.047	0.0017
648.314	-0.0002
648.58	0.0001
648.847	0.0013
649.114	0.0022
649.38	0.0014
649.647	0.0003
649.913	0.0012
650.18	0.0009
650.446	0.0012
650.712	0.0002
650.978	0.0001
651.245	-0.0004
651.511	-0.0006
651.777	-0.0002
652.043	-0.0001
652.309	0.0005
652.574	0.0016
652.84	0.0013
653.106	0.001
653.371	0.0018
653.637	0.0015
653.903	0.0025
654.168	0.0031
654.433	0.0047
654.699	0.0044
654.964	0.004
655.229	0.0026
655.494	0.0019
655.759	-0.0013
656.024	0.0002
656.289	-0
656.554	0.0021
656.819	0.0013
657.084	0.0007
657.349	0.0005
657.613	0.0009
657.878	0.0001
658.142	-0.0014
658.407	-0.0002
658.671	0.0011
658.936	-0.0001
659.2	0.0001
659.464	0.0003
659.728	0.001
659.992	-0
660.256	0.0002
660.52	0.0006
660.784	-0.0004
661.048	-0.0011
661.312	-0.0006
661.575	-0.0017
661.839	-0.0003
662.103	-0.0006
662.366	-0.0006
662.63	-0.0011
662.893	-0.0006
663.156	-0.0006
663.42	-0.0015
663.683	-0.0028
663.946	-0.0035
664.209	-0.0025
664.472	-0.0033
664.735	-0.0011
664.998	-0.0017
665.261	-0.0009
665.524	-0.0014
665.786	-0.0013
666.049	-0.0018
666.312	-0.0007
666.574	-0.0015
666.837	-0.0009
667.099	0
667.361	-0.0011
667.624	-0.0004
667.886	-0.0012
668.148	-0.0018
668.41	-0.0006
668.672	-0.0007
668.934	0.0015
669.196	0.0007
669.458	0.0019
669.72	0.0013
669.982	0.0013
670.243	0.0013
670.505	0.0003
670.766	0.0005
671.028	-0.0005
671.289	-0.0013
671.551	-0.0007
671.812	-0.0025
672.073	-0
672.334	-0.0011
672.596	-0.0017
672.857	-0.001
673.118	-0.0012
673.379	-0.0019
673.639	-0.0019
673.9	-0.0024
674.161	-0.0025
674.422	-0.0027
674.682	-0.0025
674.943	-0.0013
675.203	-0.001
675.464	-0.0017
675.724	-0.004
675.985	-0.0034
676.245	-0.0033
676.505	-0.0028
676.765	-0.002
677.025	-0.0019
677.285	-0.0017
677.545	-0
677.805	-0.0003
678.065	-0.0009
678.325	0.0003
678.585	-0.0007
678.844	-0.0023
679.104	-0.0016
679.363	-0.0024
679.623	-0.0024
679.882	-0.0028
680.142	-0.0018
680.401	-0.0026
680.66	-0.0009
680.919	0.0002
681.178	0.0001
681.437	-0.0003
681.696	-0.0006
681.955	0.0007
682.214	0.0014
682.473	-0.0002
682.732	-0.0006
682.99	-0.0003
683.249	-0.0001
683.508	-0.0012
683.766	-0.0021
684.024	-0.0024
684.283	-0.001
684.541	-0.0014
684.799	-0.0003
685.058	-0.0005
685.316	-0.0011
685.574	-0.0019
685.832	-0.002
686.09	-0.0019
686.348	-0.0035
686.606	-0.0031
686.863	-0.0024
687.121	-0.0018
687.379	-0.0014
687.636	-0.0025
687.894	-0.0009
688.151	-0.0009
688.409	-0.0009
688.666	-0.0012
688.923	-0.0022
689.181	-0.0017
689.438	-0.0019
689.695	-0.0015
689.952	-0.0034
690.209	-0.0039
690.466	-0.0029
690.723	-0.0022
690.979	-0.0013
691.236	-0.0022
691.493	-0.0013
691.75	-0.0008
692.006	-0.0017
692.263	-0.0017
692.519	-0.0013
692.775	-0.0005
693.032	-0.001
693.288	-0.0014
693.544	-0.0003
693.8	-0.0011
694.056	-0.0015
694.313	-0.0012
694.568	-0.0016
694.824	-0.002
695.08	-0.0024
695.336	-0.0031
695.592	-0.004
695.847	-0.0025
696.103	-0.0022
696.359	-0.0027
696.614	-0.0038
696.869	-0.0034
697.125	-0.0039
697.38	-0.0025
697.635	-0.0018
697.891	-0.0013
698.146	-0.001
698.401	-0.0016
698.656	-0.0018
698.911	-0.0008
699.166	-0.0015
699.42	-0.0001
699.675	-0.0019
699.93	-0.0011
700.185	-0.0013
700.439	-0.0008
700.694	-0.0011
700.948	-0.0014
701.203	-0.0018
701.457	-0.0017
701.711	-0.0028
701.965	-0.0028
702.22	-0.0022
702.474	-0.0025
702.728	-0.0023
702.982	-0.0025
703.236	-0.0017
703.49	-0.0005
703.743	-0.0016
703.997	-0.0017
704.251	-0.0023
704.504	-0.0019
704.758	-0.003
705.012	-0.0028
705.265	-0.0021
705.518	-0.0008
705.772	-0.0015
706.025	-0.0011
706.278	-0.0019
706.531	-0.0022
706.785	-0.0026
707.038	-0.0034
707.291	-0.0023
707.543	-0.0033
707.796	-0.0024
708.049	-0.0031
708.302	-0.0027
708.555	-0.0019
708.807	-0.0015
709.06	-0.0024
709.312	-0.0018
709.565	-0.0017
709.817	-0.0023
710.069	-0.0021
710.322	-0.0031
710.574	-0.0041
710.826	-0.0036
711.078	-0.0031
711.33	-0.0027
711.582	-0.0036
711.834	-0.0039
712.086	-0.0039
712.338	-0.0045
712.59	-0.0046
712.841	-0.0067
713.093	-0.006
713.344	-0.0057
713.596	-0.0053
713.847	-0.0045
714.099	-0.0039
714.35	-0.0043
714.601	-0.0046
714.853	-0.0036
715.104	-0.0032
715.355	-0.0022
715.606	-0.0026
715.857	-0.0021
716.108	-0.0025
716.359	-0.0023
716.609	-0.0028
716.86	-0.002
717.111	-0.0011
717.361	0.0001
717.612	0.0013
717.863	0.0018
718.113	0.0027
718.363	0.0008
718.614	0.0026
718.864	0.0027
719.114	0.0021
719.364	0.0018
719.614	0.0004
719.865	0.0011
720.114	0.0017
720.364	0.0016
720.614	0.0019
720.864	0.001
721.114	0.0016
721.364	0.0005
721.613	0.0014
721.863	0.0019
722.112	0.0009
722.362	0.0002
722.611	-0.0011
722.86	-0.0008
723.11	-0.0005
723.359	-0.0008
723.608	-0.0012
723.857	-0.0012
724.106	-0.0005
724.355	-0.0002
724.604	-0.0013
724.853	-0.0005
725.102	-0.0036
725.351	-0.0028
725.599	-0.0035
725.848	-0.0033
726.097	-0.0023
726.345	-0.0024
726.594	-0.0032
726.842	-0.0021
727.09	-0.0032
727.339	-0.0039
727.587	-0.0041
727.835	-0.0037
728.083	-0.0035
728.331	-0.0039
728.579	-0.0028
728.827	-0.0021
729.075	-0.0022
729.323	-0.0023
729.571	-0.0029
729.818	-0.0026
730.066	-0.0022
730.314	-0.0026
730.561	-0.0006
730.809	-0.0009
731.056	-0.001
731.303	-0
731.551	-0.0006
731.798	-0.0008
732.045	-0.0008
732.292	0.0005
732.539	0.0005
732.786	0.0018
733.033	0.0012
733.28	0.0019
733.527	0.0013
733.774	0.0005
734.021	-0.0008
734.267	-0.0016
734.514	-0.0029
734.76	-0.003
735.007	-0.0029
735.253	-0.0046
735.5	-0.0048
735.746	-0.005
735.992	-0.0034
736.238	-0.0033
736.485	-0.0022
736.731	-0.0025
736.977	-0.0032
737.223	-0.0029
737.469	-0.0035
737.715	-0.0025
737.96	-0.0039
738.206	-0.0045
738.452	-0.0047
738.697	-0.0043
738.943	-0.0039
739.189	-0.0037
739.434	-0.0032
739.679	-0.0039
739.925	-0.0048
740.17	-0.0051
740.415	-0.0061
740.66	-0.006
740.906	-0.0056
741.151	-0.0052
741.396	-0.0055
741.641	-0.0055
741.886	-0.0056
742.13	-0.0038
742.375	-0.0031
742.62	-0.0033
742.865	-0.0029
743.109	-0.0022
743.354	-0.0015
743.598	-0.0011
743.843	-0.0009
744.087	-0.0002
744.331	0.0006
744.576	0.0018
744.82	0.0021
745.064	0.0031
745.308	0.003
745.552	0.0013
745.796	0.0011
746.04	0.0009
746.284	-0.0006
746.528	-0.0001
746.771	0.0007
747.015	0.001
747.259	0.0005
747.502	0.0006
747.746	0.0002
747.989	0.0009
748.233	-0.0001
748.476	0.0013
748.719	0.001
748.963	0.0029
749.206	0.0025
749.449	0.0007
749.692	0.0007
749.935	0.001
750.178	-0.0005
750.421	-0.0008
750.664	-0.0009
750.906	-0
751.149	0.0002
751.392	-0.0006
751.635	-0.0007
751.877	-0.0017
752.12	-0.0015
752.362	-0.0014
752.604	-0.002
752.847	-0.0006
753.089	-0.0001
753.331	0.0007
753.573	0
753.816	-0.0007
754.058	-0.0009
754.3	-0.0028
754.542	-0.0014
754.783	-0.0029
755.025	-0.0024
755.267	-0.0015
755.509	-0.0016
755.75	-0.0027
755.992	-0.0018
756.234	-0.0029
756.475	-0.0031
756.716	-0.0041
756.958	-0.0031
757.199	-0.0034
757.44	-0.0037
757.682	-0.0032
757.923	-0.002
758.164	-0.0022
758.405	-0.0024
758.646	-0.0012
758.887	-0.0017
759.128	-0.0012
759.369	-0.0022
759.609	-0.0009
759.85	-0.001
760.091	-0.0003
760.331	-0.0006
760.572	-0.0017
760.812	-0.0018
761.053	-0.0023
761.293	-0.0025
761.533	-0.0023
761.774	-0.0011
762.014	-0.0022
762.254	-0.0027
762.494	-0.0027
762.734	-0.0025
762.974	-0.004
763.214	-0.0037
763.454	-0.0035
763.694	-0.0033
763.933	-0.0041
764.173	-0.0057
764.413	-0.0064
764.652	-0.0057
764.892	-0.0047
765.131	-0.005
765.371	-0.004
765.61	-0.0041
765.849	-0.0031
766.089	-0.0024
766.328	-0.0024
766.567	-0.0018
766.806	-0.0019
767.045	-0.0007
767.284	-0.0013
767.523	-0.0019
767.762	-0.0028
768.001	-0.002
768.239	-0.0015
768.478	-0.0013
768.717	-0
768.955	-0.0012
769.194	-0.001
769.432	0.0003
769.671	0.0005
769.909	0.0005
770.148	0.0002
770.386	0.0007
770.624	0.0012
770.862	0.0007
771.1	0.0012
771.338	0.0006
771.576	-0.0002
771.814	0.0007
772.052	0.0001
772.29	0.0011
772.528	0.0015
772.765	0.0018
773.003	0.0024
773.24	0.002
773.478	0.0004
773.716	0.001
773.953	0.0006
774.19	0.0007
774.428	0.0022
774.665	0.0015
774.902	0.0025
775.139	0.0018
775.376	0.0019
775.613	0.0015
775.85	0.0014
776.087	0.0004
776.324	0.0007
776.561	0.0005
776.798	-0.0003
777.034	-0.0009
777.271	0.0002
777.508	-0.0003
777.744	0.0008
777.981	0.0006
778.217	0.0002
778.454	-0.001
778.69	-0.0013
778.926	-0.0025
779.162	-0.0022
779.399	-0.0017
779.635	-0.0022
779.871	-0.0023
780.107	-0.0032
780.343	-0.0043
780.579	-0.0028
780.814	-0.0026
781.05	-0.002
781.286	-0.0012
781.522	-0.0013
781.757	-0.0009
781.993	-0.0009
782.228	-0.0013
782.464	-0.001
782.699	-0.0016
782.934	-0.0027
783.17	-0.0016
783.405	-0.0019
783.64	-0.0029
783.875	-0.0036
784.11	-0.0042
784.345	-0.0038
784.58	-0.0031
784.815	-0.0018
785.05	-0.0033
785.285	-0.0036
785.52	-0.0041
785.754	-0.0054
785.989	-0.006
786.223	-0.0072
786.458	-0.0071
786.692	-0.0054
786.927	-0.0051
787.161	-0.0049
787.396	-0.0052
787.63	-0.0048
787.864	-0.0053
788.098	-0.0051
788.332	-0.0041
788.566	-0.003
788.8	-0.0029
789.034	-0.002
789.268	-0.0026
789.502	-0.0027
789.736	-0.0025
789.969	-0.003
790.203	-0.0026
790.437	-0.0037
790.67	-0.0046
790.904	-0.0051
791.137	-0.0053
791.37	-0.0053
791.604	-0.0068
791.837	-0.0062
792.07	-0.0064
792.303	-0.0068
792.537	-0.007
792.77	-0.007
793.003	-0.0067
793.236	-0.0064
793.469	-0.0059
793.701	-0.0049
793.934	-0.0042
794.167	-0.0035
794.4	-0.0033
794.632	-0.002
794.865	-0.0014
795.097	-0.0028
795.33	-0.0033
795.562	-0.0023
795.795	-0.0023
796.027	-0.0023
796.259	-0.0029
796.491	-0.0035
796.724	-0.0038
796.956	-0.0025
797.188	-0.0025
797.42	-0.0023
797.652	-0.0026
797.883	-0.0012
798.115	-0.0004
798.347	-0.0005
798.579	0.0014
798.81	0.0009
799.042	0.0016
799.274	0.0006
799.505	0.0001
799.737	-0.0005
799.968	-0.0015
800.199	-0.0021
800.431	-0.0024
800.662	-0.0022
800.893	-0.0021
801.124	-0.0021
801.355	-0.0023
801.586	-0.0025
801.817	-0.0025
802.048	-0.0047
802.279	-0.0044
802.51	-0.0026
802.741	-0.0026
802.971	-0.0013
803.202	-0.0009
803.433	0.0002
803.663	-0.0004
803.894	-0.0006
804.124	-0.0001
804.354	0.0005
804.585	-0.0004
804.815	-0.0001
805.045	0.0001
805.275	0.0023
805.506	-0.0194
805.736	-0.1095
805.966	-0.1319
806.196	-0.069
