Data from 03 0.5 mM K2Cr2O7 0.3 mM BQDS 1 M H2SO4 5 min_Absorbance_0063.txt Node
Date: Mon Dec 13 22:54:44 EST 2021
User: kwabilab-user
Spectrometer: HDX00518
Trigger mode: 0
Integration Time (sec): 5.000000E-2
Scans to average: 50
Nonlinearity correction enabled: false
Boxcar width: 0
Storing dark spectrum: false
XAxis mode: Wavelengths
Number of Pixels in Spectrum: 2068
>>>>>Begin Spectral Data<<<<<
195.27	-0.0164
195.642	0.0757
196.014	0.0133
196.386	0.132
196.758	-0.01
197.129	-0.0093
197.501	-0.0084
197.872	0.0288
198.244	0.0365
198.615	0.0523
198.986	0.0236
199.357	0.047
199.728	0.0288
200.099	0.0455
200.47	0.0165
200.841	0.0343
201.212	0.0462
201.582	0.059
201.953	0.0314
202.323	0.0657
202.694	0.0235
203.064	0.0491
203.434	0.0503
203.804	0.0293
204.174	0.0549
204.544	0.0402
204.914	0.041
205.284	0.0535
205.653	0.0402
206.023	0.0249
206.393	0.0124
206.762	0.055
207.131	0.0371
207.501	0.0342
207.87	0.0393
208.239	0.0439
208.608	0.0412
208.977	0.0258
209.346	0.0254
209.715	0.0502
210.083	0.0348
210.452	0.0453
210.82	0.0467
211.189	0.0317
211.557	0.0527
211.925	0.0149
212.294	0.0348
212.662	0.0448
213.03	0.0442
213.398	0.0549
213.766	0.0561
214.133	0.0422
214.501	0.0569
214.869	0.0389
215.236	0.0427
215.604	0.0578
215.971	0.0506
216.338	0.0665
216.705	0.0766
217.072	0.0954
217.439	0.0692
217.806	0.0685
218.173	0.0575
218.54	0.0692
218.907	0.0811
219.273	0.0904
219.64	0.0959
220.006	0.0935
220.373	0.1112
220.739	0.1211
221.105	0.1318
221.471	0.1558
221.837	0.1549
222.203	0.1953
222.569	0.1865
222.935	0.2376
223.3	0.2312
223.666	0.2736
224.031	0.2948
224.397	0.2888
224.762	0.3103
225.127	0.3331
225.493	0.3554
225.858	0.3927
226.223	0.4107
226.588	0.4396
226.952	0.4616
227.317	0.4925
227.682	0.5053
228.046	0.5038
228.411	0.5275
228.775	0.553
229.14	0.5658
229.504	0.5776
229.868	0.5897
230.232	0.5939
230.596	0.61
230.96	0.6273
231.324	0.6233
231.688	0.6466
232.052	0.6702
232.415	0.6764
232.779	0.6558
233.142	0.6761
233.505	0.6728
233.869	0.691
234.232	0.695
234.595	0.696
234.958	0.7087
235.321	0.7047
235.684	0.7009
236.047	0.6956
236.409	0.6917
236.772	0.7046
237.134	0.7055
237.497	0.7079
237.859	0.7112
238.222	0.696
238.584	0.693
238.946	0.7047
239.308	0.6897
239.67	0.6981
240.032	0.7087
240.393	0.6917
240.755	0.6965
241.117	0.7008
241.478	0.6848
241.84	0.6892
242.201	0.6797
242.562	0.6753
242.924	0.6777
243.285	0.6779
243.646	0.6739
244.007	0.677
244.368	0.6811
244.728	0.6756
245.089	0.6808
245.45	0.6756
245.81	0.6731
246.171	0.6751
246.531	0.6665
246.891	0.6596
247.252	0.6624
247.612	0.6619
247.972	0.6716
248.332	0.6688
248.692	0.6701
249.051	0.6735
249.411	0.665
249.771	0.6586
250.13	0.6643
250.49	0.6696
250.849	0.6699
251.208	0.6654
251.568	0.6661
251.927	0.6656
252.286	0.6651
252.645	0.6722
253.004	0.6692
253.363	0.6692
253.721	0.6653
254.08	0.6717
254.439	0.6659
254.797	0.6593
255.155	0.6592
255.514	0.6622
255.872	0.6654
256.23	0.6541
256.588	0.6615
256.946	0.6571
257.304	0.6613
257.662	0.6619
258.02	0.6622
258.377	0.6579
258.735	0.6651
259.093	0.6515
259.45	0.6531
259.807	0.6542
260.165	0.6464
260.522	0.6507
260.879	0.6445
261.236	0.6435
261.593	0.6473
261.95	0.6446
262.306	0.637
262.663	0.6357
263.02	0.6317
263.376	0.6379
263.733	0.6323
264.089	0.6341
264.445	0.6295
264.802	0.6222
265.158	0.6211
265.514	0.6192
265.87	0.6194
266.226	0.6168
266.581	0.6269
266.937	0.6141
267.293	0.6128
267.648	0.6026
268.004	0.6006
268.359	0.5988
268.714	0.5966
269.07	0.5951
269.425	0.5882
269.78	0.5871
270.135	0.5815
270.49	0.5845
270.844	0.5815
271.199	0.5794
271.554	0.5714
271.908	0.5711
272.263	0.5669
272.617	0.5615
272.972	0.5576
273.326	0.5568
273.68	0.551
274.034	0.5465
274.388	0.5474
274.742	0.5427
275.096	0.5393
275.45	0.5361
275.803	0.5311
276.157	0.5241
276.51	0.5178
276.864	0.5188
277.217	0.5182
277.571	0.5133
277.924	0.5096
278.277	0.5026
278.63	0.4993
278.983	0.4906
279.336	0.4883
279.688	0.4829
280.041	0.4769
280.394	0.4716
280.746	0.4764
281.099	0.4641
281.451	0.4617
281.803	0.456
282.156	0.4503
282.508	0.4489
282.86	0.4452
283.212	0.4358
283.564	0.4333
283.916	0.4323
284.267	0.4242
284.619	0.4187
284.971	0.4147
285.322	0.4115
285.673	0.4071
286.025	0.4016
286.376	0.3971
286.727	0.3925
287.078	0.3881
287.429	0.3845
287.78	0.3816
288.131	0.3743
288.482	0.3692
288.833	0.365
289.183	0.3615
289.534	0.3577
289.884	0.353
290.235	0.3467
290.585	0.344
290.935	0.34
291.285	0.334
291.635	0.3298
291.985	0.3257
292.335	0.3221
292.685	0.3189
293.035	0.3139
293.384	0.3096
293.734	0.3055
294.083	0.2996
294.433	0.2954
294.782	0.2913
295.131	0.287
295.48	0.2821
295.829	0.2807
296.179	0.2758
296.527	0.2722
296.876	0.2668
297.225	0.2639
297.574	0.2599
297.922	0.2572
298.271	0.252
298.619	0.2484
298.968	0.2451
299.316	0.241
299.664	0.2386
300.012	0.2354
300.36	0.23
300.708	0.228
301.056	0.2254
301.404	0.2214
301.752	0.22
302.099	0.2152
302.447	0.2131
302.794	0.2105
303.142	0.2076
303.489	0.2048
303.836	0.2025
304.183	0.1995
304.531	0.1981
304.878	0.1945
305.224	0.195
305.571	0.1912
305.918	0.1883
306.265	0.1874
306.611	0.1859
306.958	0.1855
307.304	0.1825
307.651	0.1821
307.997	0.1801
308.343	0.1791
308.689	0.1771
309.035	0.1756
309.381	0.1751
309.727	0.1746
310.073	0.173
310.419	0.172
310.764	0.171
311.11	0.1709
311.455	0.1704
311.801	0.1699
312.146	0.1685
312.491	0.1691
312.837	0.1685
313.182	0.1681
313.527	0.1676
313.872	0.1677
314.216	0.1677
314.561	0.1679
314.906	0.1676
315.251	0.168
315.595	0.1691
315.94	0.1689
316.284	0.1695
316.628	0.17
316.972	0.1703
317.317	0.1708
317.661	0.1712
318.005	0.1715
318.348	0.1735
318.692	0.1735
319.036	0.1738
319.38	0.1744
319.723	0.1756
320.067	0.177
320.41	0.1783
320.754	0.1797
321.097	0.1805
321.44	0.1813
321.783	0.1825
322.126	0.1839
322.469	0.1846
322.812	0.1862
323.155	0.1878
323.498	0.1895
323.84	0.1914
324.183	0.1926
324.525	0.1941
324.868	0.1963
325.21	0.197
325.552	0.1998
325.894	0.2005
326.236	0.2021
326.578	0.2038
326.92	0.2054
327.262	0.207
327.604	0.2084
327.946	0.2104
328.287	0.2126
328.629	0.2148
328.97	0.2159
329.312	0.2167
329.653	0.2192
329.994	0.2211
330.335	0.223
330.676	0.2256
331.017	0.2269
331.358	0.2285
331.699	0.2309
332.04	0.2323
332.38	0.2339
332.721	0.2352
333.061	0.2384
333.402	0.2398
333.742	0.2414
334.083	0.2433
334.423	0.2448
334.763	0.2458
335.103	0.2471
335.443	0.2489
335.783	0.2508
336.123	0.2523
336.462	0.2539
336.802	0.256
337.141	0.2571
337.481	0.2582
337.82	0.2598
338.16	0.2614
338.499	0.2635
338.838	0.2644
339.177	0.2663
339.516	0.2674
339.855	0.2687
340.194	0.2707
340.533	0.2713
340.872	0.2723
341.21	0.274
341.549	0.2744
341.887	0.2753
342.226	0.2768
342.564	0.2781
342.902	0.2781
343.24	0.2789
343.578	0.2792
343.916	0.2802
344.254	0.2803
344.592	0.2808
344.93	0.2813
345.268	0.2814
345.605	0.2822
345.943	0.2827
346.28	0.2831
346.618	0.2826
346.955	0.2829
347.292	0.2834
347.629	0.283
347.966	0.2837
348.303	0.2843
348.64	0.2847
348.977	0.2844
349.314	0.2857
349.65	0.2843
349.987	0.2853
350.324	0.2852
350.66	0.2839
350.996	0.2836
351.333	0.2839
351.669	0.2831
352.005	0.2824
352.341	0.2803
352.677	0.2803
353.013	0.2797
353.349	0.2781
353.685	0.2775
354.02	0.276
354.356	0.2737
354.691	0.2729
355.027	0.2721
355.362	0.2716
355.697	0.2703
356.033	0.2703
356.368	0.2691
356.703	0.2678
357.038	0.2668
357.373	0.2653
357.707	0.2638
358.042	0.2626
358.377	0.2628
358.711	0.2608
359.046	0.2593
359.38	0.2589
359.715	0.2574
360.049	0.2565
360.383	0.2544
360.717	0.2539
361.051	0.2521
361.385	0.2505
361.719	0.2476
362.053	0.2461
362.387	0.2447
362.72	0.2424
363.054	0.2398
363.387	0.2384
363.721	0.2367
364.054	0.2346
364.387	0.2324
364.721	0.231
365.054	0.2288
365.387	0.2263
365.72	0.2241
366.053	0.2226
366.385	0.2205
366.718	0.2188
367.051	0.2178
367.383	0.216
367.716	0.2146
368.048	0.2131
368.381	0.2107
368.713	0.2095
369.045	0.209
369.377	0.2067
369.709	0.2054
370.041	0.2038
370.373	0.2024
370.705	0.1996
371.037	0.1987
371.368	0.1963
371.7	0.1961
372.031	0.1933
372.363	0.1907
372.694	0.1885
373.025	0.1852
373.356	0.1831
373.688	0.1817
374.019	0.1799
374.35	0.1776
374.68	0.1748
375.011	0.1732
375.342	0.1707
375.673	0.1686
376.003	0.166
376.334	0.1644
376.664	0.1615
376.995	0.1606
377.325	0.1581
377.655	0.1571
377.985	0.1552
378.315	0.1533
378.645	0.1518
378.975	0.1507
379.305	0.1485
379.635	0.1477
379.964	0.1467
380.294	0.1443
380.623	0.1431
380.953	0.1411
381.282	0.1401
381.611	0.1374
381.941	0.1367
382.27	0.135
382.599	0.1331
382.928	0.1317
383.257	0.1299
383.585	0.1284
383.914	0.1273
384.243	0.1252
384.571	0.1231
384.9	0.1205
385.228	0.1193
385.557	0.1171
385.885	0.1147
386.213	0.1136
386.541	0.1119
386.869	0.1104
387.197	0.1076
387.525	0.1062
387.853	0.1045
388.181	0.1032
388.508	0.1006
388.836	0.0995
389.164	0.0976
389.491	0.0969
389.818	0.0952
390.146	0.0939
390.473	0.0928
390.8	0.0909
391.127	0.0896
391.454	0.0879
391.781	0.087
392.108	0.086
392.435	0.0849
392.761	0.0835
393.088	0.0828
393.415	0.0816
393.741	0.0811
394.067	0.0798
394.394	0.0796
394.72	0.0773
395.046	0.0771
395.372	0.0762
395.698	0.0755
396.024	0.0746
396.35	0.0727
396.676	0.0713
397.001	0.0707
397.327	0.0693
397.653	0.0681
397.978	0.0668
398.303	0.0666
398.629	0.0648
398.954	0.0637
399.279	0.0635
399.604	0.0628
399.929	0.0621
400.254	0.0611
400.579	0.0607
400.904	0.0597
401.229	0.0585
401.553	0.0584
401.878	0.0577
402.202	0.0569
402.527	0.0561
402.851	0.0564
403.175	0.0553
403.5	0.0548
403.824	0.0539
404.148	0.0532
404.472	0.0531
404.796	0.0522
405.119	0.0517
405.443	0.0517
405.767	0.0506
406.09	0.0504
406.414	0.0506
406.737	0.0504
407.061	0.0497
407.384	0.0497
407.707	0.0497
408.03	0.0481
408.353	0.0493
408.676	0.0489
408.999	0.0487
409.322	0.0483
409.645	0.048
409.968	0.0474
410.29	0.0473
410.613	0.048
410.935	0.0476
411.258	0.0473
411.58	0.0473
411.902	0.0472
412.224	0.0468
412.546	0.047
412.868	0.0466
413.19	0.0468
413.512	0.0467
413.834	0.0459
414.156	0.046
414.477	0.0461
414.799	0.046
415.121	0.0463
415.442	0.0464
415.763	0.0458
416.085	0.0459
416.406	0.0461
416.727	0.0456
417.048	0.0459
417.369	0.0451
417.69	0.0454
418.011	0.0452
418.331	0.0456
418.652	0.0461
418.973	0.0453
419.293	0.0456
419.614	0.0455
419.934	0.0466
420.254	0.0457
420.574	0.0461
420.895	0.0454
421.215	0.0457
421.535	0.0452
421.855	0.0457
422.174	0.0459
422.494	0.0453
422.814	0.045
423.134	0.0457
423.453	0.0457
423.773	0.0454
424.092	0.0452
424.411	0.0453
424.731	0.0456
425.05	0.0452
425.369	0.0459
425.688	0.046
426.007	0.0456
426.326	0.0458
426.644	0.0459
426.963	0.046
427.282	0.046
427.6	0.0456
427.919	0.0458
428.237	0.046
428.556	0.0456
428.874	0.0458
429.192	0.0468
429.51	0.0462
429.828	0.0459
430.146	0.0463
430.464	0.0455
430.782	0.0461
431.1	0.0458
431.418	0.0459
431.735	0.045
432.053	0.0462
432.37	0.0461
432.688	0.0462
433.005	0.0459
433.322	0.0458
433.639	0.0459
433.957	0.0466
434.274	0.0459
434.591	0.0461
434.907	0.0457
435.224	0.0456
435.541	0.0455
435.858	0.0459
436.174	0.0464
436.491	0.0455
436.807	0.0451
437.124	0.0456
437.44	0.046
437.756	0.0456
438.072	0.0458
438.388	0.046
438.704	0.0451
439.02	0.0459
439.336	0.0455
439.652	0.0454
439.968	0.0445
440.283	0.0447
440.599	0.0444
440.914	0.0455
441.23	0.0452
441.545	0.0449
441.86	0.0445
442.175	0.0447
442.491	0.0446
442.806	0.045
443.121	0.0446
443.435	0.044
443.75	0.0446
444.065	0.0441
444.38	0.0444
444.694	0.0447
445.009	0.0446
445.323	0.044
445.638	0.0437
445.952	0.044
446.266	0.0441
446.58	0.0441
446.894	0.044
447.208	0.0436
447.522	0.0438
447.836	0.0429
448.15	0.0426
448.464	0.0432
448.777	0.043
449.091	0.0428
449.404	0.043
449.718	0.0426
450.031	0.0426
450.345	0.0432
450.658	0.0424
450.971	0.0421
451.284	0.0423
451.597	0.0415
451.91	0.0416
452.223	0.0414
452.535	0.0407
452.848	0.0422
453.161	0.0402
453.473	0.0416
453.786	0.0406
454.098	0.0406
454.411	0.0416
454.723	0.0404
455.035	0.0398
455.347	0.0392
455.659	0.0393
455.971	0.0406
456.283	0.0396
456.595	0.0396
456.907	0.0395
457.218	0.039
457.53	0.0385
457.841	0.0387
458.153	0.0394
458.464	0.0388
458.776	0.0384
459.087	0.0378
459.398	0.0384
459.709	0.0384
460.02	0.038
460.331	0.0373
460.642	0.0372
460.953	0.0374
461.263	0.0363
461.574	0.037
461.885	0.0357
462.195	0.0364
462.506	0.0361
462.816	0.0356
463.126	0.0358
463.437	0.036
463.747	0.0348
464.057	0.0343
464.367	0.0348
464.677	0.0345
464.987	0.034
465.296	0.0346
465.606	0.0332
465.916	0.0338
466.225	0.0334
466.535	0.0337
466.844	0.0333
467.154	0.0332
467.463	0.0321
467.772	0.0325
468.081	0.0321
468.39	0.0322
468.699	0.0317
469.008	0.0314
469.317	0.0309
469.626	0.03
469.935	0.0297
470.243	0.0303
470.552	0.0299
470.86	0.0303
471.169	0.0303
471.477	0.0289
471.785	0.0288
472.093	0.029
472.402	0.0284
472.71	0.0286
473.018	0.0283
473.326	0.0267
473.633	0.0289
473.941	0.0273
474.249	0.0269
474.556	0.0285
474.864	0.0279
475.171	0.0268
475.479	0.027
475.786	0.0261
476.094	0.0263
476.401	0.0259
476.708	0.0253
477.015	0.0257
477.322	0.0259
477.629	0.0256
477.936	0.0255
478.242	0.0239
478.549	0.0244
478.856	0.0252
479.162	0.0235
479.469	0.0238
479.775	0.0244
480.081	0.0237
480.388	0.0232
480.694	0.0233
481	0.0232
481.306	0.0224
481.612	0.0221
481.918	0.0228
482.224	0.0223
482.53	0.0216
482.835	0.0217
483.141	0.0216
483.446	0.0211
483.752	0.0209
484.057	0.021
484.363	0.0199
484.668	0.02
484.973	0.0195
485.278	0.0189
485.583	0.0188
485.888	0.0185
486.193	0.0179
486.498	0.0182
486.803	0.0178
487.107	0.0182
487.412	0.0178
487.717	0.0177
488.021	0.0174
488.325	0.0192
488.63	0.0188
488.934	0.0182
489.238	0.0169
489.542	0.0159
489.846	0.0163
490.15	0.0168
490.454	0.0159
490.758	0.0158
491.062	0.0155
491.366	0.0154
491.669	0.0156
491.973	0.0159
492.276	0.0148
492.58	0.014
492.883	0.0146
493.186	0.0145
493.489	0.0137
493.792	0.0129
494.096	0.0134
494.399	0.0136
494.701	0.0134
495.004	0.012
495.307	0.0129
495.61	0.0124
495.912	0.0133
496.215	0.0122
496.517	0.0113
496.82	0.0114
497.122	0.0116
497.424	0.0124
497.727	0.012
498.029	0.0107
498.331	0.0117
498.633	0.0116
498.935	0.0111
499.237	0.0116
499.538	0.0098
499.84	0.01
500.142	0.0101
500.443	0.0094
500.745	0.0093
501.046	0.0081
501.348	0.0089
501.649	0.0085
501.95	0.0083
502.251	0.0089
502.552	0.008
502.853	0.0083
503.154	0.0078
503.455	0.0079
503.756	0.0078
504.057	0.0087
504.357	0.0067
504.658	0.0079
504.958	0.0071
505.259	0.0073
505.559	0.0076
505.859	0.0077
506.16	0.0074
506.46	0.0066
506.76	0.0069
507.06	0.0078
507.36	0.0064
507.66	0.006
507.96	0.0073
508.259	0.0057
508.559	0.0075
508.859	0.0063
509.158	0.0052
509.457	0.0064
509.757	0.0053
510.056	0.0058
510.355	0.006
510.655	0.0058
510.954	0.0058
511.253	0.0056
511.552	0.0047
511.851	0.005
512.149	0.0038
512.448	0.0047
512.747	0.0047
513.045	0.0049
513.344	0.004
513.642	0.004
513.941	0.0037
514.239	0.0034
514.537	0.0031
514.836	0.0045
515.134	0.0028
515.432	0.0045
515.73	0.0029
516.028	0.0034
516.326	0.0032
516.623	0.0037
516.921	0.0019
517.219	0.0021
517.516	0.003
517.814	0.003
518.111	0.0027
518.409	0.0025
518.706	0.0017
519.003	0.0032
519.3	0.0024
519.597	0.0022
519.894	0.0037
520.191	0.0016
520.488	0.002
520.785	0.0016
521.082	0.0026
521.378	0.0009
521.675	0.0016
521.971	0.0006
522.268	0.0017
522.564	0.001
522.861	0.0023
523.157	0.002
523.453	0.0028
523.749	0.0016
524.045	0.0019
524.341	0.0014
524.637	0.0007
524.933	0.0003
525.229	0.0011
525.524	0.0007
525.82	-0.0003
526.115	-0.0003
526.411	0.0001
526.706	0.002
527.002	0.0012
527.297	-0.0011
527.592	0.0017
527.887	0.0011
528.182	0.001
528.477	0.0013
528.772	0.0011
529.067	0.0009
529.362	0.0013
529.657	0.0009
529.951	0.001
530.246	-0.0001
530.54	0.0007
530.835	-0.0004
531.129	0.0008
531.423	-0.0005
531.718	0.0001
532.012	0.001
532.306	0.0002
532.6	-0
532.894	-0.0009
533.188	0.0007
533.482	-0.0001
533.775	-0.0001
534.069	-0.0003
534.363	-0.0009
534.656	-0.002
534.95	-0.0003
535.243	-0.0001
535.536	-0.0003
535.83	-0.001
536.123	0.0002
536.416	-0.0007
536.709	-0.0006
537.002	-0.0001
537.295	-0.0009
537.588	-0.0008
537.881	-0.0017
538.173	-0.0006
538.466	-0.0004
538.759	-0.0006
539.051	0.0001
539.344	-0.0009
539.636	-0.0014
539.928	0.0003
540.22	-0.0005
540.513	0.0002
540.805	0.0001
541.097	-0.0005
541.389	0.0001
541.681	0.0001
541.972	0.0003
542.264	-0.0002
542.556	-0.0001
542.847	-0.0003
543.139	-0.001
543.431	-0.0004
543.722	-0
544.013	-0.0008
544.305	-0.0011
544.596	-0.0015
544.887	0.0002
545.178	-0
545.469	-0.0014
545.76	-0.0005
546.051	-0.0003
546.342	-0.0016
546.632	-0.0014
546.923	-0.0009
547.214	-0.0007
547.504	-0.0009
547.795	-0.0012
548.085	-0.0015
548.375	-0.0006
548.666	-0.0009
548.956	-0.0004
549.246	-0.0015
549.536	-0.0009
549.826	-0.0012
550.116	-0.0004
550.406	-0.0018
550.695	-0.0021
550.985	-0.0004
551.275	-0.0007
551.564	-0.0018
551.854	-0.0007
552.143	-0.0012
552.433	-0.0018
552.722	-0.0022
553.011	-0.001
553.3	-0.0002
553.589	-0.0007
553.879	-0.0006
554.167	-0.0013
554.456	0.0001
554.745	-0.0001
555.034	-0.0009
555.323	0.0005
555.611	-0.0005
555.9	0.0004
556.188	-0.0015
556.477	0.0004
556.765	-0.0028
557.053	-0.0012
557.342	-0.0013
557.63	-0.0015
557.918	-0.0005
558.206	-0.0008
558.494	-0
558.782	-0.0006
559.069	0.0003
559.357	-0.0001
559.645	-0.0005
559.932	-0.0001
560.22	-0.0013
560.507	-0.002
560.795	-0.0017
561.082	-0.0016
561.37	-0.0002
561.657	-0.0015
561.944	-0.0009
562.231	-0.0005
562.518	-0.0001
562.805	-0.0007
563.092	0
563.379	0.0006
563.665	-0.0004
563.952	-0
564.239	-0.0005
564.525	-0
564.811	0.001
565.098	-0.0007
565.384	-0.0015
565.67	-0
565.957	0.001
566.243	0.002
566.529	-0.0006
566.815	-0.0006
567.101	0.0003
567.387	0.0005
567.672	-0.0004
567.958	0.0009
568.244	-0
568.529	0.0006
568.815	-0.0008
569.1	-0.0008
569.386	-0.0013
569.671	0.0001
569.956	-0.0001
570.242	-0.0005
570.527	-0.0007
570.812	-0.0002
571.097	0.0002
571.382	0.0001
571.666	0.0011
571.951	-0.0009
572.236	-0.0005
572.521	-0
572.805	-0.0001
573.09	-0.0002
573.374	-0.0014
573.659	-0.0008
573.943	-0.0014
574.227	-0.0008
574.511	-0.0009
574.795	-0.0003
575.079	-0.0007
575.363	-0.0014
575.647	-0.0004
575.931	-0.0006
576.215	-0.0011
576.499	-0.0013
576.782	-0.0013
577.066	-0.0003
577.349	-0
577.633	-0.0006
577.916	-0.0013
578.2	-0.0009
578.483	-0.0008
578.766	-0.0001
579.049	-0.0006
579.332	0.0014
579.615	0
579.898	0.0002
580.181	-0.0001
580.464	0.0002
580.746	-0.0003
581.029	-0.0005
581.312	-0.0006
581.594	-0.0014
581.877	-0.001
582.159	-0.0007
582.441	-0.0012
582.724	-0.0004
583.006	0.0001
583.288	0.0004
583.57	0.0005
583.852	-0.0002
584.134	0.0006
584.416	0.0004
584.697	0.0005
584.979	-0.0013
585.261	-0.0015
585.542	-0.0006
585.824	-0.0005
586.105	-0.0013
586.387	-0.001
586.668	-0.0009
586.949	-0.0002
587.231	-0.0003
587.512	-0.0005
587.793	0.0004
588.074	-0.0009
588.355	0.0004
588.636	-0.0004
588.916	-0.001
589.197	-0.0004
589.478	-0.0002
589.758	-0.0012
590.039	0.0001
590.319	-0.0006
590.6	0.0006
590.88	0.0008
591.16	0.0008
591.441	0.0008
591.721	-0.001
592.001	-0.0008
592.281	-0.0005
592.561	-0.0008
592.841	-0.0018
593.12	-0.0019
593.4	-0.0009
593.68	-0.0016
593.959	-0.0013
594.239	-0.0012
594.518	-0.0011
594.798	0.0002
595.077	-0.0011
595.356	-0.0011
595.636	-0.0014
595.915	-0.0002
596.194	-0.0005
596.473	-0.0001
596.752	0.0002
597.031	-0.0007
597.31	0
597.588	-0.0009
597.867	-0.0007
598.146	-0.0006
598.424	-0.0004
598.703	-0.0003
598.981	-0.0019
599.259	-0.0014
599.538	-0.0008
599.816	-0.0004
600.094	-0.0012
600.372	-0.0016
600.65	-0.0023
600.928	-0.0007
601.206	-0.0008
601.484	-0.0006
601.762	-0.0001
602.04	-0.0006
602.317	-0.0004
602.595	-0.0004
602.872	0.0004
603.15	0.0008
603.427	-0.0013
603.704	-0.0011
603.982	-0.0008
604.259	-0.0009
604.536	0
604.813	-0.0003
605.09	-0.0007
605.367	-0.0009
605.644	-0.0017
605.921	-0.0006
606.197	-0.0015
606.474	-0.0005
606.751	-0.0002
607.027	-0.0006
607.304	-0.0012
607.58	-0.0012
607.856	-0.001
608.133	-0.0014
608.409	-0.0008
608.685	-0.0005
608.961	-0.0006
609.237	-0.0011
609.513	-0.0009
609.789	-0.001
610.065	-0.0003
610.341	-0.0012
610.616	-0.0004
610.892	0.0004
611.167	0.0001
611.443	-0.0007
611.718	-0.0007
611.994	-0.0011
612.269	-0.0007
612.544	-0.0005
612.819	-0.0012
613.095	-0.0011
613.37	0.0003
613.645	-0.0013
613.919	-0.0012
614.194	-0.0009
614.469	-0.0001
614.744	-0.0007
615.019	-0.001
615.293	-0.0009
615.568	-0.0014
615.842	0.0001
616.116	0.0009
616.391	0.0004
616.665	0.0009
616.939	0.0005
617.213	0.0011
617.488	0.0011
617.762	-0.0008
618.035	-0.0005
618.309	-0.0011
618.583	-0.0001
618.857	0.001
619.131	0.0006
619.404	0.0007
619.678	0.0006
619.951	-0.0005
620.225	-0.0009
620.498	-0.0003
620.771	-0.0002
621.045	-0.0013
621.318	-0.0012
621.591	-0.0021
621.864	-0.0022
622.137	-0.0015
622.41	-0.001
622.683	-0.0011
622.956	-0.0005
623.228	-0.0004
623.501	-0.0002
623.774	-0.0004
624.046	-0.0004
624.319	-0.0015
624.591	-0.0015
624.863	-0.0012
625.136	-0.0004
625.408	0.0006
625.68	0.0007
625.952	0.0007
626.224	0.0004
626.496	0
626.768	-0.0002
627.04	-0.0014
627.311	-0.0005
627.583	-0.0005
627.855	0.0018
628.126	0.0013
628.398	0.002
628.669	0.0017
628.941	0.002
629.212	0.0015
629.483	0.0008
629.755	0.0007
630.026	0.0002
630.297	0.0004
630.568	-0.0002
630.839	0.0006
631.11	0.0008
631.38	0.0005
631.651	0.0004
631.922	0.0013
632.192	0.0002
632.463	0
632.733	-0.0009
633.004	0.0003
633.274	0.0006
633.545	0.0003
633.815	-0
634.085	-0.0009
634.355	-0.0019
634.625	-0.0012
634.895	-0.0015
635.165	-0.0012
635.435	-0.0026
635.705	-0.0007
635.974	-0.0023
636.244	-0.0016
636.514	-0.0007
636.783	-0.0018
637.053	-0.0011
637.322	-0.0001
637.591	-0.001
637.861	-0.0017
638.13	-0.0014
638.399	-0.0025
638.668	-0.0026
638.937	-0.0029
639.206	-0.0028
639.475	-0.0026
639.744	-0.0023
640.013	-0.0024
640.281	-0.0021
640.55	-0.0014
640.819	-0.0014
641.087	-0.0013
641.356	-0.0014
641.624	-0.0003
641.892	-0.0002
642.161	-0.0003
642.429	-0.0005
642.697	-0.0014
642.965	-0.0004
643.233	-0.0013
643.501	-0.0017
643.769	-0.0004
644.037	0
644.305	-0.001
644.572	-0.0007
644.84	-0.0014
645.108	-0.002
645.375	-0.0017
645.643	-0.0017
645.91	-0.0001
646.177	0.0009
646.445	0.0015
646.712	0.0027
646.979	0.0025
647.246	0.0032
647.513	0.0034
647.78	0.0017
648.047	0.0012
648.314	-0.0011
648.58	-0.001
648.847	-0.001
649.114	-0.0004
649.38	-0
649.647	-0.0006
649.913	-0.0008
650.18	-0.0004
650.446	0.0001
650.712	-0.002
650.978	-0.001
651.245	-0.0019
651.511	-0.0007
651.777	-0.0004
652.043	-0.0012
652.309	-0.0005
652.574	0.002
652.84	0.001
653.106	0.0012
653.371	0.0017
653.637	0.0013
653.903	0.0017
654.168	0.0026
654.433	0.0032
654.699	0.0024
654.964	0.0029
655.229	0.0014
655.494	-0.0007
655.759	-0.0039
656.024	0.0002
656.289	-0
656.554	0.0008
656.819	-0.0006
657.084	0.0005
657.349	0.0012
657.613	0.0007
657.878	0.0005
658.142	-0.0002
658.407	0.0002
658.671	0.0003
658.936	0
659.2	0.0012
659.464	0.0006
659.728	0.0007
659.992	-0.0002
660.256	-0.0001
660.52	0.0003
660.784	-0.0003
661.048	0.0004
661.312	0.0004
661.575	0.0009
661.839	0.0015
662.103	0.0001
662.366	-0
662.63	-0.0008
662.893	-0.0006
663.156	-0.0006
663.42	-0.001
663.683	-0.002
663.946	-0.0029
664.209	-0.0022
664.472	-0.0027
664.735	-0.0012
664.998	-0.0008
665.261	-0.0011
665.524	-0.0006
665.786	-0.0011
666.049	-0.0009
666.312	-0.0003
666.574	-0.0012
666.837	-0.0008
667.099	-0.0004
667.361	-0.0007
667.624	-0.0008
667.886	-0.0014
668.148	-0.0014
668.41	-0.0007
668.672	-0.001
668.934	0.0005
669.196	-0.0001
669.458	0.0012
669.72	0.0016
669.982	0.0012
670.243	0.0011
670.505	-0
670.766	0.0004
671.028	-0.0002
671.289	-0.001
671.551	-0.0012
671.812	-0.0019
672.073	-0.0004
672.334	-0.0012
672.596	-0.0021
672.857	-0.0014
673.118	-0.0022
673.379	-0.0028
673.639	-0.0027
673.9	-0.0017
674.161	-0.0015
674.422	-0.0022
674.682	-0.002
674.943	-0.0018
675.203	-0.0015
675.464	-0.0012
675.724	-0.0031
675.985	-0.0024
676.245	-0.0027
676.505	-0.0028
676.765	-0.0022
677.025	-0.0023
677.285	-0.0025
677.545	-0.0007
677.805	-0.0012
678.065	-0.0007
678.325	-0.0004
678.585	-0.001
678.844	-0.0032
679.104	-0.0027
679.363	-0.0038
679.623	-0.0038
679.882	-0.0024
680.142	-0.002
680.401	-0.0023
680.66	-0.0009
680.919	0.0007
681.178	0
681.437	-0.0004
681.696	-0.0006
681.955	-0.0004
682.214	-0.0001
682.473	-0.0018
682.732	-0.0005
682.99	-0.0015
683.249	-0.0005
683.508	-0.0008
683.766	-0.0016
684.024	-0.002
684.283	-0.0008
684.541	-0.0009
684.799	-0.0014
685.058	-0.0003
685.316	-0.0019
685.574	-0.0019
685.832	-0.0021
686.09	-0.0021
686.348	-0.0036
686.606	-0.0032
686.863	-0.0037
687.121	-0.0016
687.379	-0.0016
687.636	-0.0017
687.894	-0.001
688.151	-0.0004
688.409	-0.0006
688.666	-0.0019
688.923	-0.0023
689.181	-0.0024
689.438	-0.0028
689.695	-0.0027
689.952	-0.0041
690.209	-0.0032
690.466	-0.0034
690.723	-0.0023
690.979	-0.0021
691.236	-0.0028
691.493	-0.0016
691.75	-0.0015
692.006	-0.0019
692.263	-0.0021
692.519	-0.002
692.775	-0.0014
693.032	-0.0021
693.288	-0.0017
693.544	-0.0005
693.8	-0.0003
694.056	-0.0013
694.313	-0.0011
694.568	0
694.824	-0.001
695.08	-0.002
695.336	-0.0034
695.592	-0.0035
695.847	-0.0017
696.103	-0.002
696.359	-0.0014
696.614	-0.0019
696.869	-0.0023
697.125	-0.0043
697.38	-0.0018
697.635	-0.0023
697.891	-0.0009
698.146	-0.001
698.401	-0.0016
698.656	-0.0025
698.911	-0.0017
699.166	-0.0014
699.42	-0.0005
699.675	-0.0009
699.93	-0.0003
700.185	-0.0017
700.439	-0.0013
700.694	-0.0017
700.948	-0.0015
701.203	-0.0022
701.457	-0.0024
701.711	-0.0029
701.965	-0.0032
702.22	-0.0027
702.474	-0.0026
702.728	-0.0029
702.982	-0.0023
703.236	-0.0013
703.49	-0.0009
703.743	-0.0012
703.997	-0.0017
704.251	-0.0026
704.504	-0.0022
704.758	-0.0024
705.012	-0.0019
705.265	-0.0009
705.518	0.0002
705.772	-0.0011
706.025	-0.0011
706.278	-0.0025
706.531	-0.0024
706.785	-0.0025
707.038	-0.0028
707.291	-0.0022
707.543	-0.0029
707.796	-0.0021
708.049	-0.003
708.302	-0.0036
708.555	-0.0042
708.807	-0.0024
709.06	-0.0042
709.312	-0.0023
709.565	-0.0034
709.817	-0.0034
710.069	-0.0034
710.322	-0.003
710.574	-0.0045
710.826	-0.0044
711.078	-0.0039
711.33	-0.0038
711.582	-0.0048
711.834	-0.0047
712.086	-0.0046
712.338	-0.006
712.59	-0.0049
712.841	-0.0063
713.093	-0.0053
713.344	-0.0048
713.596	-0.0046
713.847	-0.0035
714.099	-0.0045
714.35	-0.004
714.601	-0.0036
714.853	-0.0029
715.104	-0.0031
715.355	-0.0035
715.606	-0.0033
715.857	-0.0025
716.108	-0.0032
716.359	-0.0031
716.609	-0.0038
716.86	-0.0035
717.111	-0.0028
717.361	-0.0026
717.612	-0.0007
717.863	-0.0008
718.113	-0.0001
718.363	-0.0009
718.614	0.001
718.864	0.0005
719.114	-0.0002
719.364	0.0004
719.614	0
719.865	0.0014
720.114	0.0014
720.364	0.0016
720.614	0.0022
720.864	0.001
721.114	0.001
721.364	0.0005
721.613	0.0008
721.863	0.0008
722.112	0.0004
722.362	-0.0008
722.611	-0.0014
722.86	-0.0012
723.11	-0.001
723.359	-0.0014
723.608	-0.0011
723.857	-0.002
724.106	-0.0006
724.355	-0.0001
724.604	0.0001
724.853	-0.0005
725.102	-0.0024
725.351	-0.0021
725.599	-0.0034
725.848	-0.0025
726.097	-0.0025
726.345	-0.0028
726.594	-0.004
726.842	-0.003
727.09	-0.0039
727.339	-0.0044
727.587	-0.0054
727.835	-0.0056
728.083	-0.0044
728.331	-0.0047
728.579	-0.0043
728.827	-0.003
729.075	-0.0037
729.323	-0.0036
729.571	-0.0027
729.818	-0.003
730.066	-0.002
730.314	-0.0021
730.561	-0.0007
730.809	-0.0001
731.056	-0.0007
731.303	0
731.551	-0.0001
731.798	-0.0007
732.045	-0.0003
732.292	-0.0003
732.539	0.0005
732.786	0.0012
733.033	0.0006
733.28	0.001
733.527	0.0007
733.774	-0
734.021	-0.0019
734.267	-0.0023
734.514	-0.0027
734.76	-0.0027
735.007	-0.0028
735.253	-0.0034
735.5	-0.0031
735.746	-0.0026
735.992	-0.0021
736.238	-0.0019
736.485	-0.0014
736.731	-0.0016
736.977	-0.0026
737.223	-0.0016
737.469	-0.0022
737.715	-0.0016
737.96	-0.0018
738.206	-0.003
738.452	-0.0028
738.697	-0.0028
738.943	-0.0025
739.189	-0.0027
739.434	-0.0016
739.679	-0.0028
739.925	-0.0029
740.17	-0.0048
740.415	-0.005
740.66	-0.0061
740.906	-0.0055
741.151	-0.0051
741.396	-0.0049
741.641	-0.0058
741.886	-0.0056
742.13	-0.0035
742.375	-0.0028
742.62	-0.0032
742.865	-0.0035
743.109	-0.0011
743.354	-0.001
743.598	-0.0004
743.843	0.0002
744.087	0.0008
744.331	0.0007
744.576	0.0008
744.82	0.0018
745.064	0.002
745.308	0.003
745.552	0.0016
745.796	0.001
746.04	0.0014
746.284	0.0003
746.528	0.0016
746.771	0.0029
747.015	0.0019
747.259	0.0008
747.502	0.0001
747.746	-0.0008
747.989	-0.0008
748.233	-0.0017
748.476	0.0001
748.719	0.0004
748.963	0.0019
749.206	0.0021
749.449	0.0002
749.692	0.0004
749.935	0.0012
750.178	-0.0011
750.421	-0.0005
750.664	-0.0003
750.906	-0.0001
751.149	0.0005
751.392	-0.0004
751.635	-0.0008
751.877	-0.0002
752.12	-0.0007
752.362	-0.0013
752.604	-0.0005
752.847	0.0011
753.089	0.0009
753.331	0.0019
753.573	0.0004
753.816	-0.0005
754.058	-0.0011
754.3	-0.0023
754.542	-0.0016
754.783	-0.0023
755.025	-0.0023
755.267	-0.0015
755.509	-0.0021
755.75	-0.0025
755.992	-0.0021
756.234	-0.0031
756.475	-0.0023
756.716	-0.003
756.958	-0.0029
757.199	-0.0024
757.44	-0.0022
757.682	-0.0021
757.923	-0.0004
758.164	-0.001
758.405	-0.0007
758.646	0.0007
758.887	0.0008
759.128	0.0011
759.369	-0.0004
759.609	0.0007
759.85	0.0011
760.091	0.0011
760.331	0.0006
760.572	-0.0011
760.812	-0.0011
761.053	-0.0014
761.293	-0.0004
761.533	0
761.774	0.0011
762.014	0.0011
762.254	0.0001
762.494	-0.0006
762.734	-0.0002
762.974	-0.001
763.214	-0.0017
763.454	-0.001
763.694	-0.0019
763.933	-0.0023
764.173	-0.0036
764.413	-0.0054
764.652	-0.0052
764.892	-0.0038
765.131	-0.0039
765.371	-0.0033
765.61	-0.0033
765.849	-0.0033
766.089	-0.0031
766.328	-0.0021
766.567	-0.0024
766.806	-0.0022
767.045	-0.0005
767.284	-0.0016
767.523	-0.0024
767.762	-0.0024
768.001	-0.0023
768.239	-0.0019
768.478	-0.0018
768.717	-0.0011
768.955	-0.0005
769.194	-0.0015
769.432	0.0004
769.671	0.0013
769.909	0.0018
770.148	0.001
770.386	0.0015
770.624	0.0016
770.862	0.0017
771.1	0.0024
771.338	0.0014
771.576	0.0002
771.814	0.0016
772.052	0.0012
772.29	0.0026
772.528	0.0036
772.765	0.0047
773.003	0.0044
773.24	0.0041
773.478	0.0031
773.716	0.0026
773.953	0.0019
774.19	0.0019
774.428	0.0036
774.665	0.003
774.902	0.0038
775.139	0.0035
775.376	0.0027
775.613	0.0028
775.85	0.0024
776.087	0.0015
776.324	0.0018
776.561	0.0011
776.798	0.0007
777.034	0.001
777.271	0.0016
777.508	0.0016
777.744	0.0023
777.981	0.003
778.217	0.0026
778.454	0.0018
778.69	0.0005
778.926	0.0001
779.162	-0.0003
779.399	-0.0002
779.635	-0
779.871	0.0003
780.107	-0.0009
780.343	-0.0017
780.579	-0.0011
780.814	-0.0014
781.05	-0.0008
781.286	-0.0017
781.522	-0.0007
781.757	-0.0008
781.993	-0.0013
782.228	-0.002
782.464	-0.0012
782.699	-0.0023
782.934	-0.0029
783.17	-0.0025
783.405	-0.0026
783.64	-0.0029
783.875	-0.004
784.11	-0.0037
784.345	-0.0025
784.58	-0.0023
784.815	-0.0013
785.05	-0.0031
785.285	-0.0042
785.52	-0.0033
785.754	-0.0043
785.989	-0.0049
786.223	-0.0059
786.458	-0.0049
786.692	-0.0038
786.927	-0.0039
787.161	-0.0026
787.396	-0.0038
787.63	-0.0037
787.864	-0.0049
788.098	-0.0054
788.332	-0.0045
788.566	-0.0035
788.8	-0.0039
789.034	-0.0028
789.268	-0.0029
789.502	-0.0023
789.736	-0.002
789.969	-0.0023
790.203	-0.0032
790.437	-0.0036
790.67	-0.0044
790.904	-0.0063
791.137	-0.0069
791.37	-0.0066
791.604	-0.0075
791.837	-0.0074
792.07	-0.0064
792.303	-0.0066
792.537	-0.0059
792.77	-0.006
793.003	-0.0059
793.236	-0.005
793.469	-0.0053
793.701	-0.0037
793.934	-0.0033
794.167	-0.0027
794.4	-0.0025
794.632	-0.002
794.865	-0.0016
795.097	-0.0014
795.33	-0.0032
795.562	-0.0016
795.795	-0.0013
796.027	-0.0005
796.259	-0.0004
796.491	-0.0003
796.724	-0.0006
796.956	0.0007
797.188	0.0008
797.42	0.0002
797.652	-0.0003
797.883	0.0004
798.115	0.0001
798.347	-0.0002
798.579	0.0017
798.81	0.0019
799.042	0.0015
799.274	0.0007
799.505	0.0008
799.737	0.0011
799.968	0.0005
800.199	-0.001
800.431	-0.0008
800.662	-0.0011
800.893	-0.0011
801.124	-0.0012
801.355	-0.0022
801.586	-0.0019
801.817	-0.0028
802.048	-0.0035
802.279	-0.0039
802.51	-0.0022
802.741	-0.0011
802.971	-0.0007
803.202	0.0001
803.433	-0.0005
803.663	-0.0018
803.894	-0.0016
804.124	-0.0021
804.354	-0.0018
804.585	-0.002
804.815	-0.0017
805.045	-0.0018
805.275	-0.0011
805.506	-0.1131
805.736	0.1189
805.966	0.136
806.196	0.293
