Data from 03 0.5 mM K2Cr2O7 0.3 mM BQDS 1 M H2SO4 5 min_Absorbance_0130.txt Node
Date: Tue Dec 14 04:29:44 EST 2021
User: kwabilab-user
Spectrometer: HDX00518
Trigger mode: 0
Integration Time (sec): 5.000000E-2
Scans to average: 50
Nonlinearity correction enabled: false
Boxcar width: 0
Storing dark spectrum: false
XAxis mode: Wavelengths
Number of Pixels in Spectrum: 2068
>>>>>Begin Spectral Data<<<<<
195.27	-0.0497
195.642	-0
196.014	0.0666
196.386	-0.0104
196.758	-0.0394
197.129	-0.0086
197.501	-0.0232
197.872	0.0147
198.244	0.0209
198.615	0.0307
198.986	0.0262
199.357	0.0416
199.728	0.0152
200.099	0.0273
200.47	0.0057
200.841	0.0478
201.212	0.0542
201.582	0.0306
201.953	0.0453
202.323	0.039
202.694	0.0502
203.064	0.0268
203.434	0.0297
203.804	0.0222
204.174	0.0296
204.544	0.0236
204.914	0.042
205.284	0.0369
205.653	0.0405
206.023	0.0204
206.393	0.0026
206.762	0.0267
207.131	0.0568
207.501	0.0214
207.87	0.0551
208.239	0.0487
208.608	0.0263
208.977	0.0251
209.346	0.0364
209.715	0.0244
210.083	0.0025
210.452	0.0252
210.82	0.042
211.189	0.0074
211.557	0.0721
211.925	0.0145
212.294	0.0246
212.662	0.0362
213.03	0.0265
213.398	0.0691
213.766	0.0519
214.133	0.0318
214.501	0.0461
214.869	0.0669
215.236	0.0406
215.604	0.0366
215.971	0.0604
216.338	0.061
216.705	0.0817
217.072	0.0798
217.439	0.0519
217.806	0.07
218.173	0.0564
218.54	0.0822
218.907	0.0584
219.273	0.0935
219.64	0.0839
220.006	0.0952
220.373	0.0929
220.739	0.1158
221.105	0.1379
221.471	0.1449
221.837	0.1691
222.203	0.1842
222.569	0.1862
222.935	0.2401
223.3	0.2221
223.666	0.2388
224.031	0.2848
224.397	0.2869
224.762	0.3018
225.127	0.3289
225.493	0.3482
225.858	0.3705
226.223	0.4039
226.588	0.4305
226.952	0.4556
227.317	0.4679
227.682	0.4725
228.046	0.4852
228.411	0.5172
228.775	0.5619
229.14	0.548
229.504	0.5803
229.868	0.5735
230.232	0.5901
230.596	0.5922
230.96	0.6146
231.324	0.6131
231.688	0.6179
232.052	0.647
232.415	0.6269
232.779	0.6444
233.142	0.6497
233.505	0.6598
233.869	0.6711
234.232	0.6599
234.595	0.6499
234.958	0.6707
235.321	0.6795
235.684	0.666
236.047	0.6775
236.409	0.6639
236.772	0.6726
237.134	0.6665
237.497	0.6726
237.859	0.6719
238.222	0.6645
238.584	0.6606
238.946	0.6606
239.308	0.6539
239.67	0.6573
240.032	0.6382
240.393	0.6495
240.755	0.6594
241.117	0.6613
241.478	0.6462
241.84	0.6563
242.201	0.6371
242.562	0.6375
242.924	0.6348
243.285	0.6344
243.646	0.6387
244.007	0.6273
244.368	0.6318
244.728	0.6355
245.089	0.6258
245.45	0.6306
245.81	0.6244
246.171	0.6314
246.531	0.6219
246.891	0.6181
247.252	0.6146
247.612	0.612
247.972	0.621
248.332	0.6166
248.692	0.6186
249.051	0.6148
249.411	0.6159
249.771	0.6095
250.13	0.6124
250.49	0.6116
250.849	0.6078
251.208	0.6095
251.568	0.6127
251.927	0.6093
252.286	0.6141
252.645	0.6099
253.004	0.6112
253.363	0.6063
253.721	0.6155
254.08	0.6107
254.439	0.6039
254.797	0.6041
255.155	0.5979
255.514	0.6028
255.872	0.6082
256.23	0.6027
256.588	0.6042
256.946	0.5984
257.304	0.5963
257.662	0.5985
258.02	0.5995
258.377	0.5918
258.735	0.5919
259.093	0.5916
259.45	0.5954
259.807	0.5888
260.165	0.5923
260.522	0.5898
260.879	0.5846
261.236	0.5887
261.593	0.5812
261.95	0.5752
262.306	0.579
262.663	0.5708
263.02	0.5733
263.376	0.5725
263.733	0.5703
264.089	0.5638
264.445	0.5618
264.802	0.5636
265.158	0.5638
265.514	0.5604
265.87	0.5538
266.226	0.5541
266.581	0.5528
266.937	0.5514
267.293	0.5457
267.648	0.5406
268.004	0.5389
268.359	0.5359
268.714	0.5337
269.07	0.535
269.425	0.5247
269.78	0.5211
270.135	0.5177
270.49	0.5204
270.844	0.5211
271.199	0.5158
271.554	0.514
271.908	0.5064
272.263	0.506
272.617	0.4986
272.972	0.4995
273.326	0.4946
273.68	0.491
274.034	0.4879
274.388	0.487
274.742	0.4801
275.096	0.4814
275.45	0.4748
275.803	0.4713
276.157	0.4701
276.51	0.4641
276.864	0.4582
277.217	0.4544
277.571	0.4556
277.924	0.4493
278.277	0.4473
278.63	0.4415
278.983	0.4352
279.336	0.432
279.688	0.4279
280.041	0.4229
280.394	0.4207
280.746	0.4154
281.099	0.4086
281.451	0.4085
281.803	0.4014
282.156	0.3963
282.508	0.3944
282.86	0.3906
283.212	0.3834
283.564	0.3794
283.916	0.3788
284.267	0.3708
284.619	0.3681
284.971	0.3673
285.322	0.361
285.673	0.3562
286.025	0.3513
286.376	0.3493
286.727	0.3449
287.078	0.3398
287.429	0.3367
287.78	0.3328
288.131	0.3269
288.482	0.3238
288.833	0.3176
289.183	0.3128
289.534	0.3102
289.884	0.3073
290.235	0.3041
290.585	0.2984
290.935	0.295
291.285	0.289
291.635	0.2876
291.985	0.2843
292.335	0.279
292.685	0.277
293.035	0.2729
293.384	0.2667
293.734	0.2663
294.083	0.2612
294.433	0.257
294.782	0.2534
295.131	0.2476
295.48	0.2448
295.829	0.2423
296.179	0.2385
296.527	0.2349
296.876	0.2307
297.225	0.2279
297.574	0.2242
297.922	0.2214
298.271	0.2175
298.619	0.2141
298.968	0.2113
299.316	0.2077
299.664	0.2054
300.012	0.2028
300.36	0.1987
300.708	0.1963
301.056	0.1931
301.404	0.1915
301.752	0.1894
302.099	0.1858
302.447	0.1842
302.794	0.1807
303.142	0.1788
303.489	0.1758
303.836	0.1754
304.183	0.1731
304.531	0.1704
304.878	0.1684
305.224	0.1684
305.571	0.1643
305.918	0.1626
306.265	0.1619
306.611	0.1601
306.958	0.1592
307.304	0.1577
307.651	0.1574
307.997	0.1557
308.343	0.1553
308.689	0.1538
309.035	0.1514
309.381	0.1509
309.727	0.1513
310.073	0.1498
310.419	0.1491
310.764	0.1481
311.11	0.1479
311.455	0.148
311.801	0.147
312.146	0.1462
312.491	0.1465
312.837	0.1459
313.182	0.1464
313.527	0.146
313.872	0.1462
314.216	0.1465
314.561	0.1461
314.906	0.1472
315.251	0.147
315.595	0.1466
315.94	0.1475
316.284	0.1481
316.628	0.1485
316.972	0.1486
317.317	0.1501
317.661	0.1507
318.005	0.1505
318.348	0.1518
318.692	0.1531
319.036	0.1525
319.38	0.154
319.723	0.1548
320.067	0.1569
320.41	0.157
320.754	0.1593
321.097	0.1599
321.44	0.1606
321.783	0.1613
322.126	0.1634
322.469	0.1637
322.812	0.166
323.155	0.1667
323.498	0.1684
323.84	0.1705
324.183	0.1716
324.525	0.1729
324.868	0.175
325.21	0.1756
325.552	0.1779
325.894	0.1787
326.236	0.1804
326.578	0.1816
326.92	0.1838
327.262	0.1852
327.604	0.1869
327.946	0.1882
328.287	0.1908
328.629	0.1925
328.97	0.1941
329.312	0.195
329.653	0.1966
329.994	0.1984
330.335	0.2006
330.676	0.203
331.017	0.2042
331.358	0.206
331.699	0.2077
332.04	0.21
332.38	0.211
332.721	0.2125
333.061	0.2146
333.402	0.2167
333.742	0.2192
334.083	0.2202
334.423	0.2213
334.763	0.222
335.103	0.2247
335.443	0.2255
335.783	0.227
336.123	0.2288
336.462	0.2304
336.802	0.232
337.141	0.2331
337.481	0.2337
337.82	0.2353
338.16	0.2363
338.499	0.2401
338.838	0.2396
339.177	0.2422
339.516	0.2439
339.855	0.2446
340.194	0.2461
340.533	0.247
340.872	0.2484
341.21	0.2487
341.549	0.25
341.887	0.2515
342.226	0.2524
342.564	0.2538
342.902	0.2532
343.24	0.2547
343.578	0.2547
343.916	0.2552
344.254	0.2555
344.592	0.2558
344.93	0.257
345.268	0.2575
345.605	0.2571
345.943	0.2577
346.28	0.2584
346.618	0.2584
346.955	0.2583
347.292	0.2584
347.629	0.2593
347.966	0.2591
348.303	0.2596
348.64	0.2596
348.977	0.2599
349.314	0.2606
349.65	0.2597
349.987	0.2599
350.324	0.2608
350.66	0.2603
350.996	0.259
351.333	0.2593
351.669	0.2588
352.005	0.2579
352.341	0.2571
352.677	0.2563
353.013	0.2552
353.349	0.2546
353.685	0.2537
354.02	0.2525
354.356	0.2502
354.691	0.2503
355.027	0.2483
355.362	0.2486
355.697	0.2476
356.033	0.2466
356.368	0.2468
356.703	0.2445
357.038	0.2444
357.373	0.2423
357.707	0.2413
358.042	0.2404
358.377	0.2404
358.711	0.2395
359.046	0.2377
359.38	0.2367
359.715	0.2353
360.049	0.2347
360.383	0.234
360.717	0.2326
361.051	0.2308
361.385	0.229
361.719	0.2269
362.053	0.225
362.387	0.2238
362.72	0.2222
363.054	0.2205
363.387	0.2183
363.721	0.217
364.054	0.2142
364.387	0.2127
364.721	0.211
365.054	0.209
365.387	0.2073
365.72	0.2052
366.053	0.2036
366.385	0.2017
366.718	0.2009
367.051	0.199
367.383	0.1978
367.716	0.1965
368.048	0.1955
368.381	0.1935
368.713	0.192
369.045	0.1908
369.377	0.1889
369.709	0.1884
370.041	0.1867
370.373	0.1852
370.705	0.1824
371.037	0.1813
371.368	0.1802
371.7	0.1785
372.031	0.1753
372.363	0.1743
372.694	0.1718
373.025	0.1697
373.356	0.1675
373.688	0.1659
374.019	0.1642
374.35	0.1618
374.68	0.1599
375.011	0.1576
375.342	0.1544
375.673	0.1532
376.003	0.1509
376.334	0.15
376.664	0.1477
376.995	0.1461
377.325	0.1439
377.655	0.1425
377.985	0.1408
378.315	0.1395
378.645	0.1384
378.975	0.1372
379.305	0.1359
379.635	0.1343
379.964	0.1336
380.294	0.131
380.623	0.1303
380.953	0.1288
381.282	0.1269
381.611	0.1256
381.941	0.1236
382.27	0.1222
382.599	0.1207
382.928	0.1193
383.257	0.1181
383.585	0.1166
383.914	0.1152
384.243	0.113
384.571	0.1119
384.9	0.1085
385.228	0.1078
385.557	0.1055
385.885	0.1037
386.213	0.1025
386.541	0.1008
386.869	0.0995
387.197	0.0975
387.525	0.0954
387.853	0.0941
388.181	0.0922
388.508	0.091
388.836	0.0895
389.164	0.088
389.491	0.0875
389.818	0.0857
390.146	0.0843
390.473	0.0838
390.8	0.0822
391.127	0.0804
391.454	0.0795
391.781	0.0786
392.108	0.0775
392.435	0.0761
392.761	0.0752
393.088	0.0744
393.415	0.0736
393.741	0.0724
394.067	0.0713
394.394	0.0713
394.72	0.0694
395.046	0.0687
395.372	0.0683
395.698	0.0674
396.024	0.0667
396.35	0.0657
396.676	0.0638
397.001	0.0633
397.327	0.0621
397.653	0.0615
397.978	0.0603
398.303	0.0591
398.629	0.0576
398.954	0.0574
399.279	0.0564
399.604	0.056
399.929	0.0554
400.254	0.055
400.579	0.054
400.904	0.0535
401.229	0.0525
401.553	0.0521
401.878	0.0515
402.202	0.0503
402.527	0.05
402.851	0.0495
403.175	0.0487
403.5	0.0484
403.824	0.0485
404.148	0.0479
404.472	0.0465
404.796	0.0471
405.119	0.0466
405.443	0.0458
405.767	0.0451
406.09	0.045
406.414	0.0443
406.737	0.0447
407.061	0.0445
407.384	0.0443
407.707	0.0446
408.03	0.0433
408.353	0.0439
408.676	0.043
408.999	0.0435
409.322	0.043
409.645	0.0424
409.968	0.0425
410.29	0.0423
410.613	0.043
410.935	0.043
411.258	0.0419
411.58	0.0422
411.902	0.0425
412.224	0.0416
412.546	0.0421
412.868	0.0413
413.19	0.0417
413.512	0.0417
413.834	0.0404
414.156	0.0416
414.477	0.0416
414.799	0.0404
415.121	0.0418
415.442	0.0414
415.763	0.0405
416.085	0.0405
416.406	0.0418
416.727	0.0413
417.048	0.0404
417.369	0.0404
417.69	0.0405
418.011	0.0401
418.331	0.0405
418.652	0.0409
418.973	0.041
419.293	0.0412
419.614	0.0415
419.934	0.0417
420.254	0.0412
420.574	0.0414
420.895	0.0415
421.215	0.0408
421.535	0.0408
421.855	0.0409
422.174	0.0408
422.494	0.0405
422.814	0.0399
423.134	0.041
423.453	0.041
423.773	0.0409
424.092	0.041
424.411	0.0407
424.731	0.0411
425.05	0.0406
425.369	0.0404
425.688	0.0408
426.007	0.0412
426.326	0.0409
426.644	0.0414
426.963	0.0413
427.282	0.0417
427.6	0.0407
427.919	0.041
428.237	0.0418
428.556	0.0415
428.874	0.0417
429.192	0.0411
429.51	0.0419
429.828	0.0414
430.146	0.0415
430.464	0.0408
430.782	0.0411
431.1	0.0421
431.418	0.0412
431.735	0.0414
432.053	0.0415
432.37	0.0414
432.688	0.0421
433.005	0.041
433.322	0.0416
433.639	0.0414
433.957	0.0422
434.274	0.0416
434.591	0.0417
434.907	0.0413
435.224	0.0415
435.541	0.0414
435.858	0.0426
436.174	0.0425
436.491	0.0412
436.807	0.0403
437.124	0.0405
437.44	0.0418
437.756	0.0408
438.072	0.0417
438.388	0.0416
438.704	0.0412
439.02	0.0417
439.336	0.0407
439.652	0.0409
439.968	0.0401
440.283	0.04
440.599	0.0399
440.914	0.0413
441.23	0.0413
441.545	0.0398
441.86	0.0403
442.175	0.0404
442.491	0.0402
442.806	0.0409
443.121	0.0401
443.435	0.0399
443.75	0.04
444.065	0.04
444.38	0.0404
444.694	0.0403
445.009	0.04
445.323	0.0394
445.638	0.0394
445.952	0.04
446.266	0.0401
446.58	0.0398
446.894	0.0396
447.208	0.0397
447.522	0.0394
447.836	0.0393
448.15	0.0384
448.464	0.039
448.777	0.039
449.091	0.0387
449.404	0.0384
449.718	0.038
450.031	0.038
450.345	0.0382
450.658	0.038
450.971	0.0381
451.284	0.0381
451.597	0.0376
451.91	0.0381
452.223	0.0372
452.535	0.0368
452.848	0.0373
453.161	0.0362
453.473	0.0378
453.786	0.0361
454.098	0.0364
454.411	0.0371
454.723	0.0356
455.035	0.036
455.347	0.0353
455.659	0.0356
455.971	0.0371
456.283	0.0359
456.595	0.035
456.907	0.0357
457.218	0.0353
457.53	0.0347
457.841	0.035
458.153	0.0351
458.464	0.0351
458.776	0.0346
459.087	0.0343
459.398	0.0344
459.709	0.0342
460.02	0.0342
460.331	0.0331
460.642	0.0334
460.953	0.0332
461.263	0.0326
461.574	0.0323
461.885	0.0318
462.195	0.0326
462.506	0.0327
462.816	0.0317
463.126	0.0326
463.437	0.0316
463.747	0.0311
464.057	0.0304
464.367	0.0309
464.677	0.0307
464.987	0.0301
465.296	0.0305
465.606	0.0294
465.916	0.03
466.225	0.0298
466.535	0.0301
466.844	0.0298
467.154	0.0297
467.463	0.0286
467.772	0.0291
468.081	0.0289
468.39	0.0283
468.699	0.0281
469.008	0.0276
469.317	0.0278
469.626	0.0271
469.935	0.0269
470.243	0.0261
470.552	0.0267
470.86	0.0263
471.169	0.0272
471.477	0.0268
471.785	0.026
472.093	0.0259
472.402	0.0257
472.71	0.0261
473.018	0.0247
473.326	0.025
473.633	0.025
473.941	0.0248
474.249	0.0249
474.556	0.0252
474.864	0.0248
475.171	0.0244
475.479	0.0238
475.786	0.0235
476.094	0.0237
476.401	0.0231
476.708	0.0227
477.015	0.0223
477.322	0.023
477.629	0.0222
477.936	0.0227
478.242	0.0213
478.549	0.0221
478.856	0.0214
479.162	0.0215
479.469	0.0216
479.775	0.0215
480.081	0.021
480.388	0.0201
480.694	0.0209
481	0.0206
481.306	0.02
481.612	0.0197
481.918	0.0198
482.224	0.0189
482.53	0.0188
482.835	0.0195
483.141	0.0191
483.446	0.0187
483.752	0.0184
484.057	0.0182
484.363	0.0171
484.668	0.0182
484.973	0.0174
485.278	0.017
485.583	0.0171
485.888	0.0165
486.193	0.0156
486.498	0.0163
486.803	0.0163
487.107	0.0154
487.412	0.0157
487.717	0.0152
488.021	0.0151
488.325	0.0158
488.63	0.0159
488.934	0.0155
489.238	0.0148
489.542	0.014
489.846	0.0141
490.15	0.0145
490.454	0.0143
490.758	0.0131
491.062	0.0128
491.366	0.0137
491.669	0.0134
491.973	0.013
492.276	0.014
492.58	0.0128
492.883	0.0124
493.186	0.0127
493.489	0.0123
493.792	0.0121
494.096	0.0111
494.399	0.0112
494.701	0.0118
495.004	0.0106
495.307	0.0113
495.61	0.0104
495.912	0.0111
496.215	0.0101
496.517	0.0096
496.82	0.0096
497.122	0.0093
497.424	0.0094
497.727	0.0096
498.029	0.0089
498.331	0.0098
498.633	0.0095
498.935	0.01
499.237	0.0087
499.538	0.0086
499.84	0.0087
500.142	0.0087
500.443	0.0077
500.745	0.0075
501.046	0.0074
501.348	0.0077
501.649	0.0073
501.95	0.0061
502.251	0.0063
502.552	0.0064
502.853	0.006
503.154	0.007
503.455	0.0072
503.756	0.0065
504.057	0.007
504.357	0.0057
504.658	0.006
504.958	0.0059
505.259	0.0064
505.559	0.0055
505.859	0.0055
506.16	0.0052
506.46	0.0053
506.76	0.0054
507.06	0.006
507.36	0.0057
507.66	0.0049
507.96	0.006
508.259	0.0045
508.559	0.0057
508.859	0.0042
509.158	0.0044
509.457	0.0041
509.757	0.0048
510.056	0.005
510.355	0.0044
510.655	0.0035
510.954	0.0038
511.253	0.0039
511.552	0.0041
511.851	0.0028
512.149	0.002
512.448	0.0034
512.747	0.0034
513.045	0.0034
513.344	0.0024
513.642	0.0021
513.941	0.0024
514.239	0.0026
514.537	0.0021
514.836	0.0026
515.134	0.0007
515.432	0.0039
515.73	0.0019
516.028	0.0024
516.326	0.0027
516.623	0.0019
516.921	0.0006
517.219	0.0021
517.516	0.002
517.814	0.0015
518.111	0.0019
518.409	0.0008
518.706	0.0006
519.003	0.0013
519.3	0.0013
519.597	0.0007
519.894	0.0013
520.191	0.0013
520.488	0.0024
520.785	0.0004
521.082	0.0007
521.378	-0.0001
521.675	0.0013
521.971	-0.0003
522.268	0.001
522.564	0.0017
522.861	0.0017
523.157	0.001
523.453	0.0018
523.749	0.0007
524.045	0.0004
524.341	0.0008
524.637	-0.0003
524.933	-0.0005
525.229	0.0008
525.524	-0.0003
525.82	-0.0007
526.115	-0.0002
526.411	0.0002
526.706	-0.0001
527.002	0.0016
527.297	-0.0004
527.592	-0.0003
527.887	0.0018
528.182	0.0002
528.477	0.0009
528.772	0.0002
529.067	-0
529.362	0.0003
529.657	-0.0004
529.951	-0.0003
530.246	-0.0002
530.54	-0.0002
530.835	-0.001
531.129	-0.0002
531.423	-0.0003
531.718	-0.0004
532.012	-0.0003
532.306	-0.0008
532.6	-0.0005
532.894	-0.0005
533.188	-0.0003
533.482	-0.0006
533.775	0.0001
534.069	-0.0006
534.363	-0.0017
534.656	-0.0022
534.95	0.0005
535.243	-0.0002
535.536	-0.0007
535.83	-0.0015
536.123	-0.0008
536.416	-0.001
536.709	-0.0006
537.002	-0.0014
537.295	-0.0016
537.588	-0.0011
537.881	-0.0016
538.173	-0.0012
538.466	-0.0021
538.759	-0.0013
539.051	-0.0005
539.344	-0.0013
539.636	-0.0006
539.928	-0.0002
540.22	-0.0006
540.513	-0.0004
540.805	-0.0007
541.097	-0.001
541.389	-0.0006
541.681	-0.0009
541.972	-0.0006
542.264	-0.0003
542.556	0.0002
542.847	0.001
543.139	0
543.431	-0.001
543.722	-0.0008
544.013	0.0003
544.305	-0.0003
544.596	-0.0006
544.887	-0.0006
545.178	-0.0001
545.469	-0.0009
545.76	-0.0004
546.051	0.0002
546.342	-0.0002
546.632	-0.0005
546.923	-0.001
547.214	-0.0016
547.504	-0.0023
547.795	-0.0011
548.085	-0.0018
548.375	-0.0009
548.666	-0.0009
548.956	-0.0007
549.246	-0.0015
549.536	0.0003
549.826	-0.0006
550.116	-0.0007
550.406	-0.0015
550.695	-0.0015
550.985	0.0002
551.275	-0.0008
551.564	-0.0012
551.854	0.0006
552.143	-0.0008
552.433	-0.0021
552.722	-0.0016
553.011	0.0002
553.3	0.0001
553.589	-0.0001
553.879	-0.0006
554.167	-0.0007
554.456	0.0005
554.745	0.0009
555.034	-0.0013
555.323	0.0002
555.611	-0.0009
555.9	-0.0001
556.188	-0.0014
556.477	-0.0006
556.765	-0.0017
557.053	-0.001
557.342	-0.001
557.63	-0.0008
557.918	-0.0006
558.206	0.0004
558.494	-0.0007
558.782	0
559.069	-0.0001
559.357	0.0009
559.645	0.0004
559.932	-0.0005
560.22	-0.0004
560.507	-0.0014
560.795	-0.0011
561.082	-0.002
561.37	-0.001
561.657	-0.0013
561.944	-0.0005
562.231	-0.0012
562.518	-0.0005
562.805	-0.0008
563.092	-0.0002
563.379	0.0002
563.665	0.0005
563.952	-0.0005
564.239	0.0002
564.525	0.0001
564.811	0.0015
565.098	-0.001
565.384	-0
565.67	0.0008
565.957	0.0007
566.243	0.0016
566.529	0.0001
566.815	0.0008
567.101	0.0007
567.387	0.0002
567.672	0.0003
567.958	0.0006
568.244	0.0003
568.529	0.0004
568.815	-0.0006
569.1	-0.0013
569.386	-0.0015
569.671	0.0008
569.956	-0.001
570.242	-0.0009
570.527	-0.0013
570.812	0.0005
571.097	-0.0001
571.382	-0.0015
571.666	0.0001
571.951	-0.0007
572.236	-0.0009
572.521	-0.0001
572.805	-0
573.09	-0.0002
573.374	-0.0013
573.659	-0.0012
573.943	-0.0007
574.227	-0.0008
574.511	-0.001
574.795	-0.001
575.079	-0.0002
575.363	-0.0017
575.647	-0.0006
575.931	0.0007
576.215	-0.0013
576.499	-0.0012
576.782	-0.0011
577.066	-0.0009
577.349	0.0003
577.633	-0.0005
577.916	-0.001
578.2	-0.0012
578.483	-0.0006
578.766	-0.0005
579.049	-0.0005
579.332	0.0004
579.615	-0.0002
579.898	-0.0003
580.181	0.0006
580.464	0.001
580.746	0.0001
581.029	-0.0002
581.312	-0.0006
581.594	-0.0018
581.877	-0.0014
582.159	-0.0011
582.441	-0.0018
582.724	-0.0006
583.006	0.0004
583.288	0.0001
583.57	0.0004
583.852	0.0002
584.134	-0.0002
584.416	0.0003
584.697	-0.0002
584.979	-0.0014
585.261	-0.0022
585.542	-0.0021
585.824	-0.0018
586.105	-0.0017
586.387	-0.0015
586.668	-0.001
586.949	0.0002
587.231	-0.0001
587.512	-0.0009
587.793	-0.0003
588.074	-0.0009
588.355	0.0002
588.636	-0.0006
588.916	-0.0008
589.197	0.0001
589.478	-0.0012
589.758	0.0006
590.039	-0.0003
590.319	0.0001
590.6	0.0015
590.88	0.0007
591.16	0.0006
591.441	0.0012
591.721	-0
592.001	0.0001
592.281	0.0001
592.561	-0.0009
592.841	-0.0009
593.12	-0.0023
593.4	-0.0016
593.68	-0.0025
593.959	-0.002
594.239	-0.0013
594.518	-0.0006
594.798	0.0003
595.077	-0.0012
595.356	-0.0012
595.636	-0.0014
595.915	-0.0008
596.194	0.0002
596.473	-0.0005
596.752	0.0006
597.031	-0.0002
597.31	-0.0002
597.588	-0.0002
597.867	-0.0007
598.146	-0.0009
598.424	-0.0003
598.703	-0.0003
598.981	-0.002
599.259	-0.0017
599.538	-0.0009
599.816	-0.0004
600.094	-0.0014
600.372	-0.0021
600.65	-0.0013
600.928	-0.0009
601.206	-0.0005
601.484	-0.0004
601.762	0
602.04	-0.0001
602.317	-0.0002
602.595	-0.001
602.872	-0.0001
603.15	-0.0001
603.427	-0.0013
603.704	-0.0015
603.982	-0.0008
604.259	-0.0007
604.536	-0.0001
604.813	-0.0003
605.09	-0.0005
605.367	-0.0016
605.644	-0.0016
605.921	-0.001
606.197	-0.0014
606.474	-0.0009
606.751	-0.0006
607.027	-0.0014
607.304	-0.0012
607.58	-0.0007
607.856	-0.0021
608.133	-0.0022
608.409	-0.0002
608.685	-0.001
608.961	-0.0017
609.237	-0.0008
609.513	-0.0007
609.789	-0.0004
610.065	-0.0009
610.341	-0.0005
610.616	-0.0004
610.892	0.0003
611.167	0.0014
611.443	0.0007
611.718	0.0006
611.994	-0.0003
612.269	-0.0005
612.544	-0.0003
612.819	-0.0006
613.095	-0.0006
613.37	-0.0003
613.645	-0.0011
613.919	-0.0003
614.194	-0.0001
614.469	0.0002
614.744	-0
615.019	-0.0008
615.293	-0.0013
615.568	-0.0004
615.842	-0.0005
616.116	0.0009
616.391	0.0012
616.665	0.0008
616.939	-0.0001
617.213	0.0008
617.488	0.001
617.762	-0.0003
618.035	0.0002
618.309	-0.0014
618.583	0.0009
618.857	0.0016
619.131	0.0019
619.404	0.0015
619.678	0.0007
619.951	-0.0004
620.225	0.0002
620.498	-0.0011
620.771	-0
621.045	-0.0003
621.318	-0.0017
621.591	-0.0017
621.864	-0.0022
622.137	-0.002
622.41	-0.0019
622.683	-0.0001
622.956	-0.0005
623.228	0.0003
623.501	0.0008
623.774	0.0008
624.046	0.0003
624.319	0.0001
624.591	-0.0015
624.863	-0.0008
625.136	0.0003
625.408	0.0005
625.68	0.0002
625.952	0.0004
626.224	0.0013
626.496	0.0012
626.768	0.0009
627.04	0.0002
627.311	-0.0001
627.583	0.0001
627.855	0.0016
628.126	0.0011
628.398	0.0022
628.669	0.0022
628.941	0.0021
629.212	0.0018
629.483	0.0012
629.755	0.0008
630.026	0.0003
630.297	0.0007
630.568	0.0011
630.839	0.0013
631.11	0.0011
631.38	0.0017
631.651	0.0021
631.922	0.0024
632.192	0.0012
632.463	0.0015
632.733	0.0002
633.004	0.0013
633.274	0.0019
633.545	0.0017
633.815	0.0015
634.085	-0.001
634.355	-0.0016
634.625	-0.0011
634.895	-0.0002
635.165	-0.0008
635.435	-0.0011
635.705	0.0004
635.974	0
636.244	-0.0004
636.514	0.0023
636.783	0.0006
637.053	-0.0002
637.322	0.0011
637.591	0.001
637.861	0.0002
638.13	0.0003
638.399	-0.0009
638.668	-0.001
638.937	-0.0008
639.206	-0.0009
639.475	-0.0014
639.744	-0.0014
640.013	0.0001
640.281	0.001
640.55	-0.0003
640.819	0.0007
641.087	0.0012
641.356	0.0012
641.624	0.0021
641.892	0.0036
642.161	0.0022
642.429	0.0014
642.697	0.0007
642.965	0.0009
643.233	-0.001
643.501	-0.0002
643.769	-0
644.037	-0
644.305	0.0005
644.572	0.0009
644.84	0
645.108	0.0001
645.375	-0.001
645.643	-0.0006
645.91	0.0008
646.177	0.002
646.445	0.0021
646.712	0.0034
646.979	0.0033
647.246	0.004
647.513	0.0041
647.78	0.0024
648.047	0.0022
648.314	0.0004
648.58	0.0004
648.847	0.0003
649.114	0.0016
649.38	0.0008
649.647	0.0005
649.913	0.0009
650.18	0.0014
650.446	0.0019
650.712	0.0006
650.978	-0.0008
651.245	-0.0004
651.511	0.0002
651.777	0
652.043	0.0002
652.309	0.0006
652.574	0.0024
652.84	0.0027
653.106	0.0013
653.371	0.0021
653.637	0.0023
653.903	0.0033
654.168	0.0042
654.433	0.0047
654.699	0.0033
654.964	0.0041
655.229	0.003
655.494	0.0013
655.759	-0.0032
656.024	-0.0002
656.289	-0
656.554	0.0001
656.819	-0.0002
657.084	0.0009
657.349	0.0004
657.613	0.001
657.878	0.0006
658.142	0.0009
658.407	0.0008
658.671	0.0025
658.936	0.0014
659.2	0.0014
659.464	0.002
659.728	0.0017
659.992	0.001
660.256	0.0012
660.52	0.0009
660.784	0.0003
661.048	-0.0003
661.312	0.0007
661.575	0.001
661.839	0.001
662.103	0.0013
662.366	0.0003
662.63	0.0001
662.893	-0
663.156	-0.0002
663.42	-0.0011
663.683	-0.0014
663.946	-0.003
664.209	-0.0014
664.472	-0.0018
664.735	-0.0006
664.998	-0.0001
665.261	-0.0004
665.524	-0.0011
665.786	-0.0004
666.049	-0
666.312	0.0003
666.574	-0.0003
666.837	0.0004
667.099	0.0015
667.361	0.0011
667.624	-0.0006
667.886	-0.0007
668.148	-0.0005
668.41	0.0001
668.672	-0.0009
668.934	0.0006
669.196	0.0014
669.458	0.0016
669.72	0.0024
669.982	0.0016
670.243	0.0023
670.505	0.0011
670.766	0.0013
671.028	0.0011
671.289	0.0002
671.551	0.0006
671.812	-0.0013
672.073	0.0002
672.334	-0.0001
672.596	-0.0012
672.857	-0.0005
673.118	-0
673.379	-0.0013
673.639	-0.0014
673.9	-0.0007
674.161	-0.0006
674.422	-0.0014
674.682	-0.0002
674.943	0.0002
675.203	-0
675.464	-0.0001
675.724	-0.0017
675.985	-0.0019
676.245	-0.0013
676.505	-0.0011
676.765	-0.0027
677.025	-0.0007
677.285	-0.0003
677.545	0.0013
677.805	0.0002
678.065	0.0005
678.325	0.0006
678.585	0.0002
678.844	-0.0014
679.104	-0.0016
679.363	-0.0023
679.623	-0.0017
679.882	-0.0008
680.142	0
680.401	-0.0002
680.66	0.001
680.919	0.0029
681.178	0.0015
681.437	0.001
681.696	0.0006
681.955	0.0004
682.214	0.0014
682.473	0
682.732	-0.0009
682.99	0.0007
683.249	0.0012
683.508	0.0006
683.766	-0.0002
684.024	-0.0005
684.283	0.0005
684.541	0.0001
684.799	0.0004
685.058	0.0009
685.316	-0.0008
685.574	-0.0012
685.832	-0.0012
686.09	-0.0005
686.348	-0.0023
686.606	-0.0012
686.863	-0.0015
687.121	0.0004
687.379	0.0006
687.636	-0.0002
687.894	0.0006
688.151	0.0005
688.409	0.0002
688.666	-0.0008
688.923	-0.0013
689.181	-0.001
689.438	-0.0016
689.695	-0.0022
689.952	-0.0022
690.209	-0.0013
690.466	-0.0022
690.723	-0.0003
690.979	-0.0008
691.236	-0.0007
691.493	-0.0004
691.75	0.0004
692.006	-0.0001
692.263	0.0003
692.519	-0.0006
692.775	0
693.032	-0.0005
693.288	-0.0004
693.544	-0.0001
693.8	-0.0002
694.056	-0
694.313	-0.0016
694.568	-0.0002
694.824	-0.0011
695.08	-0.0012
695.336	-0.0022
695.592	-0.0028
695.847	-0.0008
696.103	-0.0007
696.359	0
696.614	-0.0015
696.869	-0.0014
697.125	-0.0032
697.38	-0.0022
697.635	-0.0016
697.891	0.0001
698.146	0
698.401	0.0002
698.656	-0.0008
698.911	0.0004
699.166	0.0007
699.42	0.0009
699.675	0.0006
699.93	0.001
700.185	-0
700.439	0.0002
700.694	0.0001
700.948	-0.0002
701.203	-0.0003
701.457	-0.0008
701.711	-0.0016
701.965	-0.0015
702.22	-0.0019
702.474	-0.0021
702.728	-0.002
702.982	-0.0012
703.236	-0.001
703.49	-0.0011
703.743	-0.0018
703.997	-0.0016
704.251	-0.0017
704.504	-0.001
704.758	-0.0019
705.012	-0.001
705.265	0.0002
705.518	0.0006
705.772	0.0006
706.025	0.0003
706.278	-0.0007
706.531	-0.0011
706.785	-0.0016
707.038	-0.0025
707.291	-0.0019
707.543	-0.0021
707.796	-0.0021
708.049	-0.0017
708.302	-0.0033
708.555	-0.003
708.807	-0.002
709.06	-0.0027
709.312	-0.0019
709.565	-0.0019
709.817	-0.0028
710.069	-0.0027
710.322	-0.0025
710.574	-0.0032
710.826	-0.0035
711.078	-0.0028
711.33	-0.0019
711.582	-0.0029
711.834	-0.0037
712.086	-0.0033
712.338	-0.0043
712.59	-0.0026
712.841	-0.0051
713.093	-0.0043
713.344	-0.0046
713.596	-0.0042
713.847	-0.0027
714.099	-0.0024
714.35	-0.0024
714.601	-0.002
714.853	-0.0017
715.104	-0.0018
715.355	-0.0022
715.606	-0.0019
715.857	-0.0005
716.108	-0.0016
716.359	-0.0011
716.609	-0.0015
716.86	-0.0015
717.111	-0.0012
717.361	-0.0009
717.612	0.0005
717.863	0.001
718.113	0.0018
718.363	-0.0002
718.614	0.002
718.864	0.0026
719.114	0.0016
719.364	0.0022
719.614	0.0019
719.865	0.0026
720.114	0.0033
720.364	0.0034
720.614	0.0034
720.864	0.0022
721.114	0.0019
721.364	0.0021
721.613	0.0022
721.863	0.001
722.112	0.0015
722.362	0.0007
722.611	-0
722.86	-0.0005
723.11	0.0003
723.359	-0
723.608	0
723.857	-0.0004
724.106	0.0006
724.355	0.0007
724.604	0.001
724.853	0.0008
725.102	-0.0014
725.351	-0.001
725.599	-0.0018
725.848	-0.0012
726.097	-0.0001
726.345	-0.0005
726.594	-0.0022
726.842	-0.0014
727.09	-0.003
727.339	-0.0039
727.587	-0.0041
727.835	-0.0038
728.083	-0.0034
728.331	-0.0034
728.579	-0.0016
728.827	-0.0008
729.075	-0.0011
729.323	-0.001
729.571	-0.0009
729.818	-0.0014
730.066	-0.0008
730.314	-0.0008
730.561	0.0009
730.809	0.0009
731.056	-0.0009
731.303	0.0007
731.551	0.0003
731.798	0.0006
732.045	0.0001
732.292	0.0018
732.539	0.001
732.786	0.0012
733.033	0.0007
733.28	0.001
733.527	-0
733.774	-0.0001
734.021	-0.0018
734.267	-0.002
734.514	-0.0025
734.76	-0.0031
735.007	-0.0028
735.253	-0.0031
735.5	-0.0032
735.746	-0.0028
735.992	-0.0017
736.238	-0.001
736.485	-0.0003
736.731	0.0002
736.977	-0.0011
737.223	-0.0005
737.469	-0.0005
737.715	-0.0002
737.96	-0.0004
738.206	-0.0017
738.452	-0.0009
738.697	-0.0012
738.943	-0.0012
739.189	-0.0016
739.434	-0.0014
739.679	-0.0021
739.925	-0.001
740.17	-0.0027
740.415	-0.0028
740.66	-0.0035
740.906	-0.0035
741.151	-0.0032
741.396	-0.0033
741.641	-0.0037
741.886	-0.0034
742.13	-0.002
742.375	-0.0013
742.62	-0.0024
742.865	-0.003
743.109	-0.0005
743.354	-0.0003
743.598	0.0007
743.843	0.002
744.087	0.0023
744.331	0.0024
744.576	0.0032
744.82	0.0044
745.064	0.0039
745.308	0.0047
745.552	0.0038
745.796	0.0015
746.04	0.0013
746.284	0.0014
746.528	0.0023
746.771	0.0041
747.015	0.0038
747.259	0.0034
747.502	0.0022
747.746	0.0011
747.989	0.0018
748.233	0.0014
748.476	0.0024
748.719	0.003
748.963	0.0042
749.206	0.0038
749.449	0.0015
749.692	0.0023
749.935	0.0024
750.178	0.0009
750.421	0.0003
750.664	0.0011
750.906	0.0014
751.149	0.0019
751.392	0.0021
751.635	0.0002
751.877	0.0007
752.12	0.0005
752.362	-0.0004
752.604	-0.0003
752.847	0.0024
753.089	0.0024
753.331	0.0036
753.573	0.002
753.816	0.0013
754.058	0.0005
754.3	-0.0012
754.542	-0.0003
754.783	-0.002
755.025	-0.0012
755.267	-0.0009
755.509	-0.0012
755.75	-0.0009
755.992	-0.0007
756.234	-0.0013
756.475	-0.0014
756.716	-0.0028
756.958	-0.002
757.199	-0.0017
757.44	-0.0016
757.682	-0.0016
757.923	-0.0005
758.164	0.0004
758.405	0.0011
758.646	0.0025
758.887	0.0016
759.128	0.0019
759.369	0.0009
759.609	0.0013
759.85	0.001
760.091	0.002
760.331	0.0016
760.572	-0.0003
760.812	-0.0009
761.053	-0.0012
761.293	-0.0007
761.533	-0.0006
761.774	0.0015
762.014	0.0011
762.254	0.0009
762.494	-0.0005
762.734	0
762.974	-0.0008
763.214	-0.0009
763.454	-0.0015
763.694	-0.0013
763.933	-0.0022
764.173	-0.0039
764.413	-0.0053
764.652	-0.005
764.892	-0.0043
765.131	-0.0037
765.371	-0.0031
765.61	-0.003
765.849	-0.003
766.089	-0.0024
766.328	-0.0011
766.567	-0.0013
766.806	-0.0012
767.045	-0.0002
767.284	-0.0013
767.523	-0.0026
767.762	-0.002
768.001	-0.002
768.239	-0.0025
768.478	-0.0016
768.717	-0.0011
768.955	-0.0009
769.194	-0.0013
769.432	0.0003
769.671	0.0005
769.909	0.0003
770.148	0.0008
770.386	0.0019
770.624	0.0019
770.862	0.0027
771.1	0.0031
771.338	0.0033
771.576	0.0014
771.814	0.0023
772.052	0.003
772.29	0.0038
772.528	0.0042
772.765	0.0053
773.003	0.0054
773.24	0.005
773.478	0.0045
773.716	0.0041
773.953	0.0039
774.19	0.0035
774.428	0.0048
774.665	0.0054
774.902	0.0059
775.139	0.0046
775.376	0.0038
775.613	0.0034
775.85	0.0033
776.087	0.0019
776.324	0.0021
776.561	0.0012
776.798	0.0005
777.034	0.0007
777.271	0.0018
777.508	0.002
777.744	0.0026
777.981	0.0031
778.217	0.0039
778.454	0.0021
778.69	0.0019
778.926	0.0006
779.162	0.0012
779.399	0.0014
779.635	0.0007
779.871	0.0017
780.107	0.0012
780.343	0.0003
780.579	0.0017
780.814	0.0016
781.05	0.0009
781.286	-0.0006
781.522	0.001
781.757	0.0013
781.993	0.0015
782.228	0.0001
782.464	0.0012
782.699	0.0002
782.934	-0.0012
783.17	-0.0002
783.405	0.0002
783.64	-0.0008
783.875	-0.0018
784.11	-0.0012
784.345	0
784.58	0.0005
784.815	0.0017
785.05	0.0001
785.285	-0.0004
785.52	-0.0008
785.754	-0.0021
785.989	-0.0029
786.223	-0.0037
786.458	-0.003
786.692	-0.0026
786.927	-0.0022
787.161	-0.0011
787.396	-0.0017
787.63	-0.0023
787.864	-0.0022
788.098	-0.0038
788.332	-0.0032
788.566	-0.003
788.8	-0.0027
789.034	-0.0021
789.268	-0.0019
789.502	-0.001
789.736	-0.0015
789.969	-0.0009
790.203	-0.0006
790.437	-0.0016
790.67	-0.0031
790.904	-0.0031
791.137	-0.0039
791.37	-0.0046
791.604	-0.0065
791.837	-0.0058
792.07	-0.0047
792.303	-0.0054
792.537	-0.0042
792.77	-0.0051
793.003	-0.0045
793.236	-0.0037
793.469	-0.0038
793.701	-0.0034
793.934	-0.0027
794.167	-0.0023
794.4	-0.0023
794.632	-0.0009
794.865	0
795.097	0.0004
795.33	-0.0013
795.562	-0.0005
795.795	-0.0001
796.027	0.0011
796.259	0.0009
796.491	-0.0002
796.724	0.0003
796.956	0.0022
797.188	0.0012
797.42	0.0014
797.652	-0.0003
797.883	0.0004
798.115	0.0025
798.347	0.0018
798.579	0.0036
798.81	0.0042
799.042	0.0042
799.274	0.0034
799.505	0.0022
799.737	0.0022
799.968	0.0011
800.199	0.0011
800.431	0.0005
800.662	0.0008
800.893	0.0006
801.124	0
801.355	0.0003
801.586	0.001
801.817	-0.0001
802.048	-0.0016
802.279	-0.0014
802.51	0
802.741	0.001
802.971	0.0009
803.202	0.001
803.433	0.0012
803.663	0.0001
803.894	0.0004
804.124	-0.0003
804.354	0.0003
804.585	0.0007
804.815	0.0011
805.045	-0.0001
805.275	0.0009
805.506	-0.0257
805.736	0.0151
805.966	-0.016
806.196	-0.0253
