Data from 03 0.5 mM K2Cr2O7 0.3 mM BQDS 1 M H2SO4 5 min_Absorbance_0146.txt Node
Date: Tue Dec 14 05:49:46 EST 2021
User: kwabilab-user
Spectrometer: HDX00518
Trigger mode: 0
Integration Time (sec): 5.000000E-2
Scans to average: 50
Nonlinearity correction enabled: false
Boxcar width: 0
Storing dark spectrum: false
XAxis mode: Wavelengths
Number of Pixels in Spectrum: 2068
>>>>>Begin Spectral Data<<<<<
195.27	-0.1752
195.642	-0.1686
196.014	-0.0578
196.386	-0.156
196.758	-0.0791
197.129	-0.044
197.501	-0.0464
197.872	-0.0205
198.244	-0.0128
198.615	0.0232
198.986	-0.0012
199.357	0.003
199.728	0.0166
200.099	0.0284
200.47	-0.0063
200.841	-0.006
201.212	0.0195
201.582	0.0153
201.953	-0.006
202.323	0.0193
202.694	-0.0009
203.064	-0.0099
203.434	0.009
203.804	-0.0194
204.174	0.0142
204.544	0.0036
204.914	-0.0149
205.284	0.0057
205.653	-0.0058
206.023	-0.0001
206.393	-0.0216
206.762	0.016
207.131	0.0071
207.501	-0.005
207.87	-0.0021
208.239	0.0018
208.608	-0.0047
208.977	0.0041
209.346	-0.0267
209.715	-0.016
210.083	-0.0211
210.452	-0.0247
210.82	0.0071
211.189	-0.0346
211.557	0.0111
211.925	-0.0396
212.294	-0.0222
212.662	-0.016
213.03	-0.0177
213.398	0.0162
213.766	-0.004
214.133	-0.0149
214.501	0.003
214.869	-0.002
215.236	-0.0193
215.604	0.0029
215.971	-0.0018
216.338	0.0106
216.705	0.0287
217.072	0.0255
217.439	0.0057
217.806	0.0127
218.173	0.0254
218.54	0.0228
218.907	0.0288
219.273	0.0377
219.64	0.0395
220.006	0.043
220.373	0.0558
220.739	0.076
221.105	0.0905
221.471	0.1114
221.837	0.1288
222.203	0.1397
222.569	0.1525
222.935	0.1615
223.3	0.1785
223.666	0.212
224.031	0.2147
224.397	0.2432
224.762	0.2589
225.127	0.302
225.493	0.3283
225.858	0.3548
226.223	0.3818
226.588	0.408
226.952	0.415
227.317	0.4376
227.682	0.4441
228.046	0.4551
228.411	0.4716
228.775	0.4977
229.14	0.5151
229.504	0.5376
229.868	0.5328
230.232	0.5522
230.596	0.5518
230.96	0.5833
231.324	0.5822
231.688	0.5825
232.052	0.6019
232.415	0.6061
232.779	0.6209
233.142	0.6278
233.505	0.6291
233.869	0.6285
234.232	0.6373
234.595	0.6355
234.958	0.6401
235.321	0.6408
235.684	0.6367
236.047	0.6411
236.409	0.6363
236.772	0.6411
237.134	0.6517
237.497	0.634
237.859	0.6408
238.222	0.6387
238.584	0.6385
238.946	0.6388
239.308	0.6416
239.67	0.6309
240.032	0.6301
240.393	0.6291
240.755	0.6252
241.117	0.625
241.478	0.6317
241.84	0.6209
242.201	0.6185
242.562	0.6188
242.924	0.6085
243.285	0.6086
243.646	0.617
244.007	0.6096
244.368	0.6066
244.728	0.6065
245.089	0.6115
245.45	0.61
245.81	0.6056
246.171	0.6003
246.531	0.6055
246.891	0.6001
247.252	0.5963
247.612	0.5985
247.972	0.6079
248.332	0.6024
248.692	0.5978
249.051	0.6008
249.411	0.5983
249.771	0.5927
250.13	0.5924
250.49	0.598
250.849	0.5965
251.208	0.595
251.568	0.587
251.927	0.5891
252.286	0.5937
252.645	0.5944
253.004	0.5918
253.363	0.5875
253.721	0.5928
254.08	0.5935
254.439	0.5904
254.797	0.5803
255.155	0.5729
255.514	0.5791
255.872	0.5918
256.23	0.5786
256.588	0.5806
256.946	0.5826
257.304	0.5745
257.662	0.5808
258.02	0.5818
258.377	0.5812
258.735	0.5737
259.093	0.5744
259.45	0.5753
259.807	0.5729
260.165	0.5692
260.522	0.5678
260.879	0.5694
261.236	0.5684
261.593	0.5622
261.95	0.5621
262.306	0.5588
262.663	0.5528
263.02	0.5531
263.376	0.5535
263.733	0.5511
264.089	0.5492
264.445	0.5452
264.802	0.5471
265.158	0.5466
265.514	0.5405
265.87	0.5392
266.226	0.5397
266.581	0.5378
266.937	0.5292
267.293	0.5319
267.648	0.5253
268.004	0.5229
268.359	0.5219
268.714	0.5123
269.07	0.5134
269.425	0.5123
269.78	0.5071
270.135	0.5071
270.49	0.5056
270.844	0.5002
271.199	0.4986
271.554	0.4968
271.908	0.4901
272.263	0.49
272.617	0.4774
272.972	0.484
273.326	0.4812
273.68	0.4754
274.034	0.4716
274.388	0.4726
274.742	0.4649
275.096	0.4626
275.45	0.4584
275.803	0.4561
276.157	0.4518
276.51	0.4483
276.864	0.4424
277.217	0.442
277.571	0.4386
277.924	0.4348
278.277	0.4323
278.63	0.4306
278.983	0.4198
279.336	0.4171
279.688	0.4154
280.041	0.4099
280.394	0.4074
280.746	0.405
281.099	0.4018
281.451	0.3945
281.803	0.3887
282.156	0.3867
282.508	0.3842
282.86	0.3792
283.212	0.373
283.564	0.3698
283.916	0.3696
284.267	0.3623
284.619	0.3589
284.971	0.3536
285.322	0.3502
285.673	0.3449
286.025	0.3426
286.376	0.3396
286.727	0.3357
287.078	0.3329
287.429	0.3263
287.78	0.3245
288.131	0.3177
288.482	0.3155
288.833	0.31
289.183	0.3052
289.534	0.3012
289.884	0.3002
290.235	0.2959
290.585	0.2922
290.935	0.2866
291.285	0.2832
291.635	0.2794
291.985	0.2762
292.335	0.2732
292.685	0.2695
293.035	0.2672
293.384	0.2615
293.734	0.2586
294.083	0.2553
294.433	0.2493
294.782	0.2468
295.131	0.242
295.48	0.2376
295.829	0.2367
296.179	0.2325
296.527	0.2285
296.876	0.2255
297.225	0.2218
297.574	0.2177
297.922	0.2159
298.271	0.2129
298.619	0.2078
298.968	0.2062
299.316	0.2026
299.664	0.2002
300.012	0.1972
300.36	0.1946
300.708	0.1915
301.056	0.1892
301.404	0.1865
301.752	0.184
302.099	0.1811
302.447	0.1789
302.794	0.177
303.142	0.1749
303.489	0.1714
303.836	0.1704
304.183	0.168
304.531	0.1671
304.878	0.1656
305.224	0.164
305.571	0.1615
305.918	0.1602
306.265	0.1583
306.611	0.1563
306.958	0.1558
307.304	0.1542
307.651	0.1534
307.997	0.1513
308.343	0.151
308.689	0.1496
309.035	0.1487
309.381	0.1481
309.727	0.1474
310.073	0.1471
310.419	0.1464
310.764	0.1449
311.11	0.1446
311.455	0.1446
311.801	0.1442
312.146	0.1436
312.491	0.1438
312.837	0.1422
313.182	0.1436
313.527	0.1437
313.872	0.1437
314.216	0.1432
314.561	0.1434
314.906	0.1433
315.251	0.1433
315.595	0.1443
315.94	0.1442
316.284	0.1452
316.628	0.1457
316.972	0.1466
317.317	0.1468
317.661	0.1475
318.005	0.1475
318.348	0.1487
318.692	0.1504
319.036	0.1501
319.38	0.1499
319.723	0.1518
320.067	0.153
320.41	0.1542
320.754	0.1556
321.097	0.1571
321.44	0.1577
321.783	0.1587
322.126	0.1604
322.469	0.161
322.812	0.1627
323.155	0.1641
323.498	0.1647
323.84	0.167
324.183	0.1688
324.525	0.17
324.868	0.1719
325.21	0.1717
325.552	0.1747
325.894	0.1757
326.236	0.1778
326.578	0.1787
326.92	0.1806
327.262	0.1826
327.604	0.1831
327.946	0.1853
328.287	0.1872
328.629	0.1887
328.97	0.1904
329.312	0.1917
329.653	0.1941
329.994	0.1954
330.335	0.1965
330.676	0.1994
331.017	0.2005
331.358	0.203
331.699	0.2049
332.04	0.2065
332.38	0.2074
332.721	0.2091
333.061	0.2115
333.402	0.2139
333.742	0.2154
334.083	0.2161
334.423	0.2172
334.763	0.2192
335.103	0.2207
335.443	0.2221
335.783	0.2237
336.123	0.2255
336.462	0.2263
336.802	0.2284
337.141	0.2302
337.481	0.23
337.82	0.2317
338.16	0.2323
338.499	0.2355
338.838	0.2359
339.177	0.2394
339.516	0.2396
339.855	0.2411
340.194	0.2417
340.533	0.2428
340.872	0.2443
341.21	0.2447
341.549	0.2455
341.887	0.2471
342.226	0.248
342.564	0.2491
342.902	0.2495
343.24	0.2506
343.578	0.25
343.916	0.2518
344.254	0.2519
344.592	0.2527
344.93	0.2525
345.268	0.2523
345.605	0.2533
345.943	0.2532
346.28	0.2542
346.618	0.2544
346.955	0.2546
347.292	0.2547
347.629	0.2549
347.966	0.2558
348.303	0.255
348.64	0.2563
348.977	0.2555
349.314	0.257
349.65	0.2557
349.987	0.2563
350.324	0.2568
350.66	0.2562
350.996	0.2555
351.333	0.2548
351.669	0.2546
352.005	0.254
352.341	0.2533
352.677	0.252
353.013	0.2517
353.349	0.2506
353.685	0.2495
354.02	0.2483
354.356	0.2469
354.691	0.2463
355.027	0.2447
355.362	0.245
355.697	0.2447
356.033	0.2431
356.368	0.2422
356.703	0.2411
357.038	0.2397
357.373	0.2389
357.707	0.2384
358.042	0.2369
358.377	0.2369
358.711	0.2359
359.046	0.2343
359.38	0.2335
359.715	0.2325
360.049	0.2315
360.383	0.2303
360.717	0.2287
361.051	0.2275
361.385	0.226
361.719	0.223
362.053	0.2224
362.387	0.2207
362.72	0.2186
363.054	0.2173
363.387	0.2147
363.721	0.2132
364.054	0.2106
364.387	0.2096
364.721	0.2073
365.054	0.2053
365.387	0.2043
365.72	0.2029
366.053	0.2005
366.385	0.1989
366.718	0.1978
367.051	0.1957
367.383	0.1955
367.716	0.1935
368.048	0.1917
368.381	0.19
368.713	0.1888
369.045	0.1878
369.377	0.186
369.709	0.1851
370.041	0.1843
370.373	0.1821
370.705	0.1797
371.037	0.1782
371.368	0.1773
371.7	0.1769
372.031	0.173
372.363	0.1719
372.694	0.1695
373.025	0.1671
373.356	0.165
373.688	0.1624
374.019	0.1613
374.35	0.1594
374.68	0.1578
375.011	0.1552
375.342	0.1524
375.673	0.1511
376.003	0.1488
376.334	0.1477
376.664	0.145
376.995	0.1442
377.325	0.1419
377.655	0.1413
377.985	0.1391
378.315	0.1378
378.645	0.1362
378.975	0.1348
379.305	0.1335
379.635	0.1322
379.964	0.1314
380.294	0.1291
380.623	0.1277
380.953	0.1268
381.282	0.1254
381.611	0.1239
381.941	0.1226
382.27	0.121
382.599	0.1193
382.928	0.1169
383.257	0.1173
383.585	0.1147
383.914	0.1135
384.243	0.1109
384.571	0.1098
384.9	0.1075
385.228	0.106
385.557	0.1039
385.885	0.103
386.213	0.1015
386.541	0.0995
386.869	0.0981
387.197	0.0962
387.525	0.0942
387.853	0.093
388.181	0.0918
388.508	0.0896
388.836	0.088
389.164	0.0867
389.491	0.0859
389.818	0.0844
390.146	0.0832
390.473	0.0822
390.8	0.0808
391.127	0.0795
391.454	0.0778
391.781	0.0777
392.108	0.0759
392.435	0.0748
392.761	0.0738
393.088	0.0729
393.415	0.0727
393.741	0.0717
394.067	0.0706
394.394	0.0703
394.72	0.0683
395.046	0.0682
395.372	0.0672
395.698	0.0667
396.024	0.0652
396.35	0.0643
396.676	0.0631
397.001	0.0625
397.327	0.0615
397.653	0.06
397.978	0.0588
398.303	0.0584
398.629	0.057
398.954	0.0566
399.279	0.0556
399.604	0.0548
399.929	0.0547
400.254	0.0534
400.579	0.0537
400.904	0.0525
401.229	0.0517
401.553	0.051
401.878	0.0507
402.202	0.0499
402.527	0.0491
402.851	0.049
403.175	0.0485
403.5	0.0479
403.824	0.0477
404.148	0.047
404.472	0.0463
404.796	0.0461
405.119	0.0457
405.443	0.0455
405.767	0.0446
406.09	0.0447
406.414	0.0438
406.737	0.044
407.061	0.0442
407.384	0.0436
407.707	0.0434
408.03	0.0428
408.353	0.0438
408.676	0.0428
408.999	0.0426
409.322	0.0431
409.645	0.0426
409.968	0.0423
410.29	0.0419
410.613	0.0425
410.935	0.0413
411.258	0.0418
411.58	0.0412
411.902	0.0415
412.224	0.0415
412.546	0.0412
412.868	0.0411
413.19	0.0415
413.512	0.0411
413.834	0.0402
414.156	0.041
414.477	0.041
414.799	0.0406
415.121	0.0412
415.442	0.041
415.763	0.0401
416.085	0.0405
416.406	0.0406
416.727	0.0403
417.048	0.0403
417.369	0.0403
417.69	0.0403
418.011	0.0401
418.331	0.0404
418.652	0.0412
418.973	0.0405
419.293	0.041
419.614	0.0411
419.934	0.0409
420.254	0.0409
420.574	0.0409
420.895	0.0403
421.215	0.0404
421.535	0.0407
421.855	0.0398
422.174	0.0404
422.494	0.0401
422.814	0.0398
423.134	0.0405
423.453	0.0409
423.773	0.0405
424.092	0.0407
424.411	0.0402
424.731	0.0408
425.05	0.0405
425.369	0.0401
425.688	0.0408
426.007	0.0403
426.326	0.0405
426.644	0.041
426.963	0.0412
427.282	0.0411
427.6	0.0402
427.919	0.0406
428.237	0.0409
428.556	0.0408
428.874	0.0413
429.192	0.0414
429.51	0.0413
429.828	0.0406
430.146	0.0409
430.464	0.04
430.782	0.0406
431.1	0.0408
431.418	0.0409
431.735	0.0408
432.053	0.0415
432.37	0.0411
432.688	0.0409
433.005	0.0407
433.322	0.0412
433.639	0.0409
433.957	0.0412
434.274	0.0412
434.591	0.041
434.907	0.0408
435.224	0.0411
435.541	0.0408
435.858	0.0414
436.174	0.0419
436.491	0.0409
436.807	0.0398
437.124	0.0408
437.44	0.0405
437.756	0.041
438.072	0.0404
438.388	0.0416
438.704	0.0407
439.02	0.0409
439.336	0.0401
439.652	0.0402
439.968	0.0398
440.283	0.0393
440.599	0.0394
440.914	0.0412
441.23	0.0409
441.545	0.0403
441.86	0.04
442.175	0.0406
442.491	0.0399
442.806	0.04
443.121	0.04
443.435	0.0399
443.75	0.0393
444.065	0.0396
444.38	0.0393
444.694	0.0399
445.009	0.0393
445.323	0.0399
445.638	0.0388
445.952	0.0389
446.266	0.0395
446.58	0.0397
446.894	0.0393
447.208	0.0391
447.522	0.0391
447.836	0.0392
448.15	0.0377
448.464	0.0386
448.777	0.0388
449.091	0.0378
449.404	0.0384
449.718	0.0379
450.031	0.0376
450.345	0.0374
450.658	0.0382
450.971	0.0379
451.284	0.0381
451.597	0.0369
451.91	0.038
452.223	0.0367
452.535	0.0363
452.848	0.0372
453.161	0.0358
453.473	0.0369
453.786	0.0363
454.098	0.0358
454.411	0.0367
454.723	0.0356
455.035	0.0356
455.347	0.035
455.659	0.0351
455.971	0.0362
456.283	0.036
456.595	0.0353
456.907	0.036
457.218	0.0353
457.53	0.0345
457.841	0.034
458.153	0.0347
458.464	0.0347
458.776	0.0348
459.087	0.0337
459.398	0.0343
459.709	0.0337
460.02	0.0339
460.331	0.0331
460.642	0.0334
460.953	0.033
461.263	0.0328
461.574	0.032
461.885	0.0327
462.195	0.0324
462.506	0.0317
462.816	0.0316
463.126	0.0318
463.437	0.0312
463.747	0.0308
464.057	0.0309
464.367	0.0316
464.677	0.0301
464.987	0.0307
465.296	0.0298
465.606	0.0293
465.916	0.0294
466.225	0.0294
466.535	0.0298
466.844	0.0294
467.154	0.0298
467.463	0.0288
467.772	0.0288
468.081	0.0282
468.39	0.0282
468.699	0.0282
469.008	0.0275
469.317	0.0279
469.626	0.0257
469.935	0.0266
470.243	0.0271
470.552	0.0268
470.86	0.0265
471.169	0.0265
471.477	0.0265
471.785	0.0261
472.093	0.0264
472.402	0.0258
472.71	0.0258
473.018	0.0251
473.326	0.024
473.633	0.0255
473.941	0.0251
474.249	0.0246
474.556	0.0253
474.864	0.0244
475.171	0.0229
475.479	0.0235
475.786	0.0226
476.094	0.023
476.401	0.0224
476.708	0.0234
477.015	0.0224
477.322	0.0232
477.629	0.0221
477.936	0.0222
478.242	0.0215
478.549	0.0217
478.856	0.0219
479.162	0.0215
479.469	0.0207
479.775	0.0216
480.081	0.0198
480.388	0.0198
480.694	0.0201
481	0.0202
481.306	0.0196
481.612	0.0198
481.918	0.0193
482.224	0.0197
482.53	0.0185
482.835	0.0187
483.141	0.0187
483.446	0.0186
483.752	0.0184
484.057	0.0184
484.363	0.0176
484.668	0.0175
484.973	0.0168
485.278	0.0173
485.583	0.0172
485.888	0.0165
486.193	0.015
486.498	0.0155
486.803	0.0163
487.107	0.0162
487.412	0.0152
487.717	0.0152
488.021	0.0152
488.325	0.0155
488.63	0.0153
488.934	0.0153
489.238	0.0154
489.542	0.0146
489.846	0.0142
490.15	0.0144
490.454	0.0139
490.758	0.0142
491.062	0.014
491.366	0.0142
491.669	0.0136
491.973	0.0134
492.276	0.0131
492.58	0.0132
492.883	0.0115
493.186	0.0121
493.489	0.0119
493.792	0.0113
494.096	0.0117
494.399	0.011
494.701	0.0114
495.004	0.0106
495.307	0.0115
495.61	0.011
495.912	0.0112
496.215	0.01
496.517	0.0091
496.82	0.01
497.122	0.0091
497.424	0.0097
497.727	0.0099
498.029	0.0082
498.331	0.0096
498.633	0.0086
498.935	0.0087
499.237	0.0086
499.538	0.008
499.84	0.0084
500.142	0.0083
500.443	0.0076
500.745	0.0079
501.046	0.0071
501.348	0.0074
501.649	0.0069
501.95	0.0069
502.251	0.0071
502.552	0.0058
502.853	0.0064
503.154	0.0063
503.455	0.0054
503.756	0.0062
504.057	0.0079
504.357	0.005
504.658	0.0057
504.958	0.0064
505.259	0.0062
505.559	0.0048
505.859	0.0047
506.16	0.0051
506.46	0.005
506.76	0.0057
507.06	0.0059
507.36	0.0048
507.66	0.005
507.96	0.0055
508.259	0.0051
508.559	0.0061
508.859	0.0051
509.158	0.0043
509.457	0.0037
509.757	0.0042
510.056	0.0049
510.355	0.0045
510.655	0.0036
510.954	0.0036
511.253	0.0045
511.552	0.0039
511.851	0.0034
512.149	0.0016
512.448	0.004
512.747	0.0031
513.045	0.0031
513.344	0.0026
513.642	0.0024
513.941	0.0035
514.239	0.0031
514.537	0.0019
514.836	0.0034
515.134	0.0013
515.432	0.0031
515.73	0.0023
516.028	0.002
516.326	0.0026
516.623	0.002
516.921	0.0012
517.219	0.0021
517.516	0.0013
517.814	0.0014
518.111	0.002
518.409	0.0011
518.706	0.0016
519.003	0.0014
519.3	0.0007
519.597	0.0014
519.894	0.0016
520.191	0.0016
520.488	0.0018
520.785	0.0011
521.082	0.0009
521.378	-0
521.675	0.0008
521.971	0.0008
522.268	0.0014
522.564	-0.0003
522.861	0.001
523.157	0.001
523.453	0.0015
523.749	0.0001
524.045	-0
524.341	0.0021
524.637	0.0007
524.933	0.0002
525.229	-0.0004
525.524	-0.0011
525.82	0.0003
526.115	0.0002
526.411	-0.0003
526.706	0
527.002	0.0011
527.297	-0.0007
527.592	-0
527.887	0.0017
528.182	0.0009
528.477	0.0007
528.772	0.0002
529.067	0.0008
529.362	0.0001
529.657	0.0009
529.951	-0.0003
530.246	-0.0008
530.54	0.0007
530.835	-0.0011
531.129	-0
531.423	-0.0006
531.718	0.0006
532.012	-0.0004
532.306	0.0003
532.6	-0.0016
532.894	0.0004
533.188	0.0003
533.482	0.0003
533.775	-0.0004
534.069	-0.0005
534.363	-0.0009
534.656	-0.0026
534.95	0.0003
535.243	-0.0012
535.536	-0.0002
535.83	-0.0019
536.123	0.0006
536.416	-0.0006
536.709	-0.0006
537.002	-0.0004
537.295	-0.0011
537.588	-0.0009
537.881	-0.0018
538.173	-0.0015
538.466	-0.0003
538.759	-0.0001
539.051	-0.0001
539.344	-0.0008
539.636	-0.0007
539.928	-0.0001
540.22	-0.0008
540.513	-0.0001
540.805	0
541.097	-0.0005
541.389	-0.0003
541.681	-0.0006
541.972	0.0005
542.264	0.0001
542.556	0.0013
542.847	-0.0001
543.139	0.0003
543.431	-0.0002
543.722	0.0006
544.013	-0.0001
544.305	-0.0004
544.596	0.0003
544.887	0.0004
545.178	-0.0003
545.469	-0.0007
545.76	-0.0012
546.051	0.0012
546.342	-0.0004
546.632	-0.0005
546.923	-0.0011
547.214	-0.0009
547.504	-0.0004
547.795	-0.0007
548.085	-0.002
548.375	-0.0006
548.666	-0.0012
548.956	-0.0007
549.246	-0.0002
549.536	-0
549.826	-0
550.116	-0
550.406	-0.0021
550.695	-0.0018
550.985	-0
551.275	-0.0012
551.564	-0.0008
551.854	0.0004
552.143	-0.0008
552.433	-0.0017
552.722	-0.0021
553.011	0.0001
553.3	0.0001
553.589	-0
553.879	0.0001
554.167	-0.0005
554.456	-0.0001
554.745	0
555.034	-0.0014
555.323	0.0001
555.611	-0.0004
555.9	-0.0003
556.188	-0.0008
556.477	-0.0008
556.765	-0.0026
557.053	-0.0014
557.342	-0.0005
557.63	-0.0011
557.918	-0.0003
558.206	-0.0003
558.494	-0
558.782	-0.0011
559.069	0.0009
559.357	0.001
559.645	-0.0003
559.932	0.0007
560.22	-0.0007
560.507	-0.001
560.795	-0.0008
561.082	-0.0015
561.37	0.0006
561.657	-0.0007
561.944	-0.0005
562.231	-0.0015
562.518	-0.0004
562.805	0.0001
563.092	-0.0001
563.379	0.0003
563.665	0.0007
563.952	-0.0001
564.239	0.0008
564.525	-0
564.811	0.001
565.098	-0.0003
565.384	-0.0008
565.67	0.0009
565.957	0.0011
566.243	0.0011
566.529	0.0008
566.815	0.0004
567.101	0.002
567.387	0.0009
567.672	0.0005
567.958	0.0007
568.244	-0.0001
568.529	0.0012
568.815	-0.0006
569.1	-0.0008
569.386	-0.0008
569.671	-0
569.956	-0.0007
570.242	-0.0007
570.527	-0.0011
570.812	0.0004
571.097	0
571.382	-0.0006
571.666	0.0005
571.951	0
572.236	-0.0001
572.521	0.0005
572.805	0.0002
573.09	-0.0005
573.374	-0.0011
573.659	-0.0003
573.943	-0.0008
574.227	-0.0009
574.511	-0.001
574.795	-0.0002
575.079	-0
575.363	-0.0009
575.647	-0.0004
575.931	0.0006
576.215	-0.0012
576.499	-0.0011
576.782	-0.0014
577.066	-0.0003
577.349	0.0005
577.633	-0.0004
577.916	-0.0009
578.2	-0.0006
578.483	-0.001
578.766	0.0001
579.049	0.0002
579.332	0.001
579.615	0.0007
579.898	0.0001
580.181	0.0006
580.464	0.0012
580.746	0.0005
581.029	-0.0001
581.312	-0.0008
581.594	-0.0015
581.877	-0.001
582.159	-0.0006
582.441	-0.0013
582.724	-0.0008
583.006	0.0012
583.288	0.0006
583.57	0.0009
583.852	0.0009
584.134	-0.0002
584.416	0.0005
584.697	-0.0005
584.979	-0.0014
585.261	-0.0017
585.542	-0.0013
585.824	-0.0012
586.105	-0.0014
586.387	-0.001
586.668	-0.0004
586.949	-0.0002
587.231	0.0001
587.512	-0.0003
587.793	0.0001
588.074	-0.0009
588.355	0.0005
588.636	-0.0011
588.916	-0.0002
589.197	0.0005
589.478	-0.0002
589.758	0.0001
590.039	0.0004
590.319	-0.0001
590.6	0.0014
590.88	0.0015
591.16	0.0011
591.441	0.0013
591.721	0.0004
592.001	-0.0003
592.281	0.0002
592.561	-0.0001
592.841	-0.0012
593.12	-0.0024
593.4	-0.001
593.68	-0.002
593.959	-0.0013
594.239	-0.0011
594.518	0.0002
594.798	0.0007
595.077	-0.0007
595.356	-0.0008
595.636	-0.001
595.915	-0.0004
596.194	0.0006
596.473	0.0004
596.752	0.0007
597.031	0.0009
597.31	0.0003
597.588	-0.0003
597.867	-0.0001
598.146	-0.0009
598.424	0.0006
598.703	-0.0002
598.981	-0.0017
599.259	-0.0017
599.538	0.0001
599.816	0.0001
600.094	-0.0008
600.372	-0.0013
600.65	-0.0008
600.928	-0.0002
601.206	-0.0001
601.484	-0.0001
601.762	0.0009
602.04	0.0001
602.317	-0.0002
602.595	-0.0003
602.872	0.0004
603.15	0.0004
603.427	-0.0012
603.704	-0.0015
603.982	-0.0005
604.259	-0.0005
604.536	-0.0001
604.813	-0.0005
605.09	-0.0007
605.367	-0.0006
605.644	-0.0015
605.921	-0.0003
606.197	-0.0013
606.474	0.0002
606.751	-0.0005
607.027	-0.0004
607.304	-0.0008
607.58	-0.0009
607.856	-0.0007
608.133	-0.0013
608.409	-0.0003
608.685	-0.0011
608.961	-0.0011
609.237	-0.0004
609.513	0.0002
609.789	-0.0003
610.065	-0.0011
610.341	-0.0002
610.616	0.0002
610.892	0.0006
611.167	0.0013
611.443	0.0008
611.718	0.0003
611.994	0.0009
612.269	0.0007
612.544	-0.0008
612.819	-0.0009
613.095	-0.0008
613.37	0.0005
613.645	-0.0008
613.919	-0.0004
614.194	0.0002
614.469	0.0005
614.744	0
615.019	-0.0009
615.293	-0.0003
615.568	0
615.842	-0
616.116	0.0011
616.391	0.0017
616.665	0.0003
616.939	0.0004
617.213	0.0011
617.488	0.001
617.762	0.001
618.035	-0.0001
618.309	-0.0005
618.583	0.0007
618.857	0.0014
619.131	0.0014
619.404	0.0008
619.678	0.0011
619.951	-0.0003
620.225	-0.0006
620.498	0.0001
620.771	0.0006
621.045	-0.0005
621.318	-0.0012
621.591	-0.0007
621.864	-0.0017
622.137	-0.0017
622.41	-0.0014
622.683	0
622.956	-0.0005
623.228	-0.0001
623.501	0.0006
623.774	0.0006
624.046	-0.0001
624.319	-0.0006
624.591	-0.0017
624.863	-0.0006
625.136	0.0009
625.408	0.0007
625.68	0.0002
625.952	0.0013
626.224	0.0012
626.496	0.0012
626.768	0.0005
627.04	-0.0002
627.311	-0.0001
627.583	0.0001
627.855	0.0018
628.126	0.0015
628.398	0.0022
628.669	0.0028
628.941	0.0028
629.212	0.0015
629.483	0.0014
629.755	0.001
630.026	0.0016
630.297	0.0012
630.568	0.0017
630.839	0.0017
631.11	0.0012
631.38	0.0017
631.651	0.0028
631.922	0.0014
632.192	0.0007
632.463	0.0016
632.733	0.0013
633.004	0.0006
633.274	0.0019
633.545	0.0015
633.815	0.0017
634.085	-0
634.355	-0.0009
634.625	-0.0005
634.895	0.0003
635.165	0.0008
635.435	-0.0002
635.705	-0.0008
635.974	-0.0005
636.244	0.0003
636.514	0.0019
636.783	0.0001
637.053	0.0001
637.322	0.0016
637.591	0.0002
637.861	0.0001
638.13	0.0006
638.399	-0.0002
638.668	-0.0004
638.937	-0.0007
639.206	-0.0005
639.475	-0.0006
639.744	-0.0015
640.013	-0.0002
640.281	0.0012
640.55	0.0012
640.819	0.0002
641.087	0.0006
641.356	0.0017
641.624	0.0026
641.892	0.0035
642.161	0.0028
642.429	0.0018
642.697	0.0012
642.965	0.0017
643.233	0.0001
643.501	-0.0003
643.769	0.0007
644.037	0.0006
644.305	0.0008
644.572	0.0012
644.84	0.0007
645.108	-0.0009
645.375	-0.0004
645.643	-0.0005
645.91	0.0018
646.177	0.003
646.445	0.0031
646.712	0.0044
646.979	0.0041
647.246	0.0047
647.513	0.0044
647.78	0.0039
648.047	0.002
648.314	0.0002
648.58	0.0003
648.847	0.001
649.114	0.0018
649.38	0.0016
649.647	0.0008
649.913	0.0012
650.18	0.0016
650.446	0.0023
650.712	0.0002
650.978	0.0003
651.245	0.0006
651.511	0.0009
651.777	0.0007
652.043	0.0008
652.309	0.0015
652.574	0.0025
652.84	0.0026
653.106	0.0022
653.371	0.0024
653.637	0.0037
653.903	0.0033
654.168	0.0048
654.433	0.0053
654.699	0.0047
654.964	0.0053
655.229	0.0035
655.494	0.0027
655.759	-0.0028
656.024	-0.0002
656.289	-0
656.554	0.0016
656.819	0.0018
657.084	0.0029
657.349	0.002
657.613	0.0011
657.878	0.0017
658.142	0.0005
658.407	0.0013
658.671	0.0021
658.936	0.0019
659.2	0.0012
659.464	0.0015
659.728	0.0028
659.992	0.0019
660.256	0.0024
660.52	0.0005
660.784	0.0006
661.048	0.0004
661.312	0.001
661.575	0.0011
661.839	0.002
662.103	0.0009
662.366	0.001
662.63	0.0007
662.893	0.0007
663.156	0.0001
663.42	-0.0006
663.683	-0.0023
663.946	-0.0021
664.209	-0.0024
664.472	-0.0022
664.735	-0.0014
664.998	-0.0001
665.261	-0.0003
665.524	-0.0005
665.786	-0
666.049	-0
666.312	0.001
666.574	-0.0007
666.837	0.0011
667.099	0.0009
667.361	0.0007
667.624	-0.0001
667.886	0.0003
668.148	-0.0006
668.41	0
668.672	0.0003
668.934	0.0011
669.196	0.0013
669.458	0.0021
669.72	0.002
669.982	0.002
670.243	0.0029
670.505	0.0012
670.766	0.0019
671.028	0.0021
671.289	0.0009
671.551	0.0001
671.812	-0.001
672.073	0.0004
672.334	0.0007
672.596	-0.0004
672.857	-0.0006
673.118	0.0007
673.379	-0.0012
673.639	-0.0006
673.9	-0.0012
674.161	-0.0008
674.422	-0.0011
674.682	-0.0007
674.943	0.0002
675.203	0.0002
675.464	-0.0001
675.724	-0.0015
675.985	-0.0018
676.245	-0.0017
676.505	-0.0012
676.765	-0.0013
677.025	-0.0005
677.285	0.0001
677.545	0.0018
677.805	0.0013
678.065	0.001
678.325	0.002
678.585	0.0005
678.844	-0.0013
679.104	-0.0007
679.363	-0.0017
679.623	-0.0016
679.882	-0.0005
680.142	-0.0001
680.401	-0.001
680.66	0.0011
680.919	0.0029
681.178	0.0025
681.437	0.0012
681.696	0.0006
681.955	0.0017
682.214	0.0014
682.473	0.0006
682.732	-0.0002
682.99	0.0009
683.249	0.0011
683.508	0.0004
683.766	-0.0007
684.024	-0.0003
684.283	-0
684.541	0.0009
684.799	0.0005
685.058	0.001
685.316	-0.0005
685.574	-0.0004
685.832	0.0003
686.09	0.0001
686.348	-0.0019
686.606	-0.0008
686.863	-0.001
687.121	-0
687.379	0.0001
687.636	-0.0004
687.894	0.0018
688.151	0.0015
688.409	0.0009
688.666	0.0004
688.923	-0.0011
689.181	-0.001
689.438	-0.0011
689.695	-0.0015
689.952	-0.0024
690.209	-0.0015
690.466	-0.002
690.723	-0.0003
690.979	-0.0007
691.236	-0.0012
691.493	-0.0001
691.75	0.0007
692.006	0.0005
692.263	0.0005
692.519	0.0008
692.775	0.0003
693.032	-0.0009
693.288	0.0002
693.544	-0.0005
693.8	0.0002
694.056	0.0001
694.313	-0.0005
694.568	-0.0001
694.824	-0.0005
695.08	-0.0005
695.336	-0.0019
695.592	-0.0028
695.847	-0.0007
696.103	-0.0015
696.359	-0.0007
696.614	-0.0006
696.869	-0.0016
697.125	-0.0035
697.38	-0.0017
697.635	-0.0005
697.891	-0
698.146	0.0008
698.401	0.0007
698.656	0.0001
698.911	0.0009
699.166	0.0005
699.42	0.0017
699.675	0.0009
699.93	0.0014
700.185	-0.0001
700.439	0.0002
700.694	0.0003
700.948	-0.0003
701.203	0.0002
701.457	0
701.711	-0.0002
701.965	-0.0007
702.22	-0.0016
702.474	-0.0012
702.728	-0.0008
702.982	-0.0016
703.236	-0.0011
703.49	0.0001
703.743	-0.001
703.997	-0.0005
704.251	-0.0016
704.504	-0.0007
704.758	-0.0017
705.012	-0.0003
705.265	0.0005
705.518	0.0017
705.772	0.0009
706.025	0.0011
706.278	-0.0004
706.531	-0.0008
706.785	-0.0018
707.038	-0.0022
707.291	-0.0017
707.543	-0.0019
707.796	-0.0007
708.049	-0.0009
708.302	-0.0022
708.555	-0.0019
708.807	-0.001
709.06	-0.0017
709.312	-0.0007
709.565	-0.001
709.817	-0.0016
710.069	-0.0017
710.322	-0.0016
710.574	-0.0031
710.826	-0.0032
711.078	-0.0019
711.33	-0.0009
711.582	-0.0025
711.834	-0.0025
712.086	-0.0029
712.338	-0.0027
712.59	-0.0028
712.841	-0.0051
713.093	-0.0035
713.344	-0.0048
713.596	-0.0041
713.847	-0.002
714.099	-0.0016
714.35	-0.0019
714.601	-0.0029
714.853	-0.0014
715.104	-0.0016
715.355	-0.0017
715.606	-0.0014
715.857	-0.0011
716.108	-0.0016
716.359	-0.0013
716.609	-0.0021
716.86	-0.0007
717.111	-0.0007
717.361	-0
717.612	0.001
717.863	0.0016
718.113	0.0022
718.363	0.0007
718.614	0.0029
718.864	0.0033
719.114	0.0022
719.364	0.0025
719.614	0.0017
719.865	0.0026
720.114	0.004
720.364	0.0035
720.614	0.0031
720.864	0.0023
721.114	0.003
721.364	0.0026
721.613	0.0028
721.863	0.0019
722.112	0.0015
722.362	0.0012
722.611	0.0007
722.86	0.0004
723.11	0.0012
723.359	0.0003
723.608	-0.0001
723.857	0.0003
724.106	0.0007
724.355	0.0016
724.604	0.0015
724.853	0.001
725.102	-0.0009
725.351	-0.0006
725.599	-0.0014
725.848	-0.0006
726.097	0.0001
726.345	-0.0005
726.594	-0.0011
726.842	-0.0013
727.09	-0.0028
727.339	-0.0038
727.587	-0.0038
727.835	-0.003
728.083	-0.0029
728.331	-0.0033
728.579	-0.002
728.827	-0.0013
729.075	-0.0015
729.323	-0.0015
729.571	-0.0012
729.818	-0.0011
730.066	-0.0012
730.314	-0.001
730.561	0.0004
730.809	0.0002
731.056	0.0004
731.303	0.001
731.551	0.0004
731.798	0.0002
732.045	0.0003
732.292	0.002
732.539	0.002
732.786	0.0024
733.033	0.0015
733.28	0.0014
733.527	0.001
733.774	0
734.021	-0.0014
734.267	-0.002
734.514	-0.003
734.76	-0.0028
735.007	-0.0024
735.253	-0.0026
735.5	-0.0027
735.746	-0.0031
735.992	-0.0018
736.238	-0.0011
736.485	-0.0005
736.731	0.0003
736.977	-0.0009
737.223	-0.0003
737.469	-0.0005
737.715	0.0008
737.96	-0.0002
738.206	-0.001
738.452	-0.0008
738.697	-0.0005
738.943	-0.0012
739.189	-0.0014
739.434	-0.0006
739.679	-0.0017
739.925	-0.0012
740.17	-0.0028
740.415	-0.0028
740.66	-0.0034
740.906	-0.0026
741.151	-0.0022
741.396	-0.0029
741.641	-0.0036
741.886	-0.0032
742.13	-0.0016
742.375	-0.0018
742.62	-0.0027
742.865	-0.0027
743.109	-0.0004
743.354	-0.0002
743.598	0.0018
743.843	0.0013
744.087	0.0021
744.331	0.003
744.576	0.0035
744.82	0.0049
745.064	0.0049
745.308	0.0052
745.552	0.0043
745.796	0.0021
746.04	0.0029
746.284	0.0014
746.528	0.0025
746.771	0.0039
747.015	0.0037
747.259	0.0026
747.502	0.002
747.746	0.0019
747.989	0.0022
748.233	0.002
748.476	0.0029
748.719	0.004
748.963	0.0045
749.206	0.0046
749.449	0.003
749.692	0.0033
749.935	0.0033
750.178	0.0017
750.421	0.0014
750.664	0.0019
750.906	0.0029
751.149	0.003
751.392	0.002
751.635	0.0005
751.877	0.0012
752.12	0.0003
752.362	-0.0003
752.604	0.0001
752.847	0.002
753.089	0.0026
753.331	0.0035
753.573	0.0022
753.816	0.0011
754.058	0.0013
754.3	-0.0004
754.542	-0.0002
754.783	-0.0004
755.025	-0.0002
755.267	-0.0002
755.509	-0.0005
755.75	-0.0008
755.992	-0.0005
756.234	-0.0008
756.475	-0.0015
756.716	-0.0018
756.958	-0.0014
757.199	-0.0014
757.44	-0.001
757.682	-0.0014
757.923	0.0002
758.164	0.0009
758.405	0.0006
758.646	0.0029
758.887	0.0022
759.128	0.0013
759.369	0.0002
759.609	0.0015
759.85	0.0007
760.091	0.0019
760.331	0.0018
760.572	-0.0006
760.812	-0.0005
761.053	-0.0014
761.293	-0.0012
761.533	-0.0003
761.774	0.0012
762.014	0.0004
762.254	0.0003
762.494	-0.001
762.734	-0.0007
762.974	-0.0015
763.214	-0.001
763.454	-0.0016
763.694	-0.0016
763.933	-0.0023
764.173	-0.0036
764.413	-0.0048
764.652	-0.0055
764.892	-0.0045
765.131	-0.0038
765.371	-0.0033
765.61	-0.0039
765.849	-0.0031
766.089	-0.0016
766.328	-0.001
766.567	-0.0009
766.806	-0.0004
767.045	-0.0002
767.284	-0.0011
767.523	-0.0013
767.762	-0.0021
768.001	-0.0015
768.239	-0.0012
768.478	-0.0004
768.717	-0.0002
768.955	-0.0007
769.194	-0.0005
769.432	0.0009
769.671	0.0014
769.909	0.0021
770.148	0.0019
770.386	0.0016
770.624	0.0025
770.862	0.0026
771.1	0.0042
771.338	0.0028
771.576	0.0016
771.814	0.0033
772.052	0.0031
772.29	0.0036
772.528	0.0037
772.765	0.0043
773.003	0.0051
773.24	0.0045
773.478	0.0038
773.716	0.004
773.953	0.0036
774.19	0.0031
774.428	0.0052
774.665	0.0047
774.902	0.0055
775.139	0.0052
775.376	0.004
775.613	0.0039
775.85	0.0036
776.087	0.002
776.324	0.001
776.561	0.0017
776.798	0.0012
777.034	0.0009
777.271	0.0018
777.508	0.0023
777.744	0.0028
777.981	0.0036
778.217	0.0038
778.454	0.0026
778.69	0.0012
778.926	0.001
779.162	0.0005
779.399	0.0012
779.635	0.001
779.871	0.0013
780.107	0.0017
780.343	0.0002
780.579	0.0006
780.814	0.0008
781.05	0.0007
781.286	-0.0005
781.522	0.001
781.757	0.0008
781.993	0.0014
782.228	0.0005
782.464	0.0014
782.699	0.0001
782.934	-0.0006
783.17	-0.0001
783.405	-0.0005
783.64	-0.0008
783.875	-0.0011
784.11	-0.0011
784.345	-0.0003
784.58	0.0013
784.815	0.0018
785.05	0.0007
785.285	-0.0007
785.52	-0.0009
785.754	-0.0023
785.989	-0.0028
786.223	-0.0044
786.458	-0.0038
786.692	-0.0027
786.927	-0.0025
787.161	-0.0007
787.396	-0.0014
787.63	-0.0016
787.864	-0.0023
788.098	-0.0031
788.332	-0.0033
788.566	-0.002
788.8	-0.0022
789.034	-0.0028
789.268	-0.0017
789.502	-0.001
789.736	-0.0008
789.969	-0.0011
790.203	-0.001
790.437	-0.0021
790.67	-0.0022
790.904	-0.0033
791.137	-0.0037
791.37	-0.0041
791.604	-0.0057
791.837	-0.0051
792.07	-0.0051
792.303	-0.0051
792.537	-0.0048
792.77	-0.0055
793.003	-0.0043
793.236	-0.0041
793.469	-0.0044
793.701	-0.0028
793.934	-0.0018
794.167	-0.0021
794.4	-0.002
794.632	-0.001
794.865	-0.0001
795.097	0.0009
795.33	-0.0019
795.562	-0.0011
795.795	-0.0001
796.027	0.0001
796.259	0.0003
796.491	-0.0005
796.724	-0.0006
796.956	0.0011
797.188	0.0005
797.42	0.0002
797.652	-0
797.883	0.0002
798.115	0.0021
798.347	0.0024
798.579	0.0035
798.81	0.0045
799.042	0.0047
799.274	0.0031
799.505	0.0027
799.737	0.003
799.968	0.0016
800.199	0.0004
800.431	0.0007
800.662	0.0002
800.893	0.0009
801.124	0.0005
801.355	0.0008
801.586	0.0011
801.817	0.0009
802.048	-0.0015
802.279	-0.0013
802.51	0
802.741	0.0008
802.971	0.0021
803.202	0.0018
803.433	0.0018
803.663	0.0001
803.894	0.0008
804.124	0.0005
804.354	0.001
804.585	0.0009
804.815	0.0015
805.045	0.0011
805.275	0.0016
805.506	-0.0025
805.736	-0.0637
805.966	-0.1761
806.196	0.0166
