Data from 03 0.5 mM K2Cr2O7 0.3 mM BQDS 1 M H2SO4 5 min_Absorbance_0156.txt Node
Date: Tue Dec 14 06:39:44 EST 2021
User: kwabilab-user
Spectrometer: HDX00518
Trigger mode: 0
Integration Time (sec): 5.000000E-2
Scans to average: 50
Nonlinearity correction enabled: false
Boxcar width: 0
Storing dark spectrum: false
XAxis mode: Wavelengths
Number of Pixels in Spectrum: 2068
>>>>>Begin Spectral Data<<<<<
195.27	-0.0238
195.642	0.0499
196.014	-0.0707
196.386	-0.0364
196.758	-0.0262
197.129	-0.0173
197.501	-0.0052
197.872	-0.006
198.244	0.0217
198.615	0.0429
198.986	0.0187
199.357	0.0324
199.728	0.0288
200.099	0.0456
200.47	0.0156
200.841	0.0377
201.212	0.0327
201.582	0.0425
201.953	0.0292
202.323	0.0463
202.694	0.0299
203.064	0.028
203.434	0.0518
203.804	0.0212
204.174	0.0353
204.544	0.0257
204.914	0.0358
205.284	0.0363
205.653	0.0128
206.023	0.026
206.393	-0.0005
206.762	0.0241
207.131	0.0442
207.501	0.0238
207.87	0.0449
208.239	0.0454
208.608	0.0225
208.977	0.0193
209.346	0.0349
209.715	0.0413
210.083	0.0143
210.452	0.029
210.82	0.0357
211.189	0.0173
211.557	0.0548
211.925	0.0159
212.294	0.0217
212.662	0.032
213.03	0.0277
213.398	0.0619
213.766	0.036
214.133	0.0238
214.501	0.0407
214.869	0.0448
215.236	0.0318
215.604	0.0189
215.971	0.0655
216.338	0.0359
216.705	0.053
217.072	0.0642
217.439	0.0503
217.806	0.0475
218.173	0.0544
218.54	0.0539
218.907	0.0805
219.273	0.0689
219.64	0.0746
220.006	0.0939
220.373	0.0884
220.739	0.1126
221.105	0.1272
221.471	0.1547
221.837	0.1524
222.203	0.1557
222.569	0.1739
222.935	0.2018
223.3	0.1915
223.666	0.2594
224.031	0.2529
224.397	0.269
224.762	0.296
225.127	0.3287
225.493	0.3454
225.858	0.3742
226.223	0.386
226.588	0.4118
226.952	0.4333
227.317	0.4641
227.682	0.4777
228.046	0.5045
228.411	0.519
228.775	0.5141
229.14	0.5432
229.504	0.5458
229.868	0.5568
230.232	0.5713
230.596	0.5796
230.96	0.6117
231.324	0.592
231.688	0.61
232.052	0.6307
232.415	0.6307
232.779	0.6295
233.142	0.6489
233.505	0.6485
233.869	0.6483
234.232	0.6589
234.595	0.6521
234.958	0.6586
235.321	0.6656
235.684	0.6676
236.047	0.6597
236.409	0.6494
236.772	0.6628
237.134	0.6539
237.497	0.6607
237.859	0.6615
238.222	0.6576
238.584	0.6613
238.946	0.658
239.308	0.6541
239.67	0.6446
240.032	0.6502
240.393	0.6537
240.755	0.6342
241.117	0.6398
241.478	0.638
241.84	0.6426
242.201	0.6241
242.562	0.6222
242.924	0.627
243.285	0.6175
243.646	0.6237
244.007	0.6168
244.368	0.6263
244.728	0.6222
245.089	0.6174
245.45	0.6209
245.81	0.6099
246.171	0.6152
246.531	0.6068
246.891	0.606
247.252	0.6028
247.612	0.6026
247.972	0.6088
248.332	0.6082
248.692	0.5999
249.051	0.6093
249.411	0.6005
249.771	0.6002
250.13	0.5982
250.49	0.5915
250.849	0.5976
251.208	0.6069
251.568	0.5934
251.927	0.5987
252.286	0.5982
252.645	0.5994
253.004	0.5986
253.363	0.5947
253.721	0.5921
254.08	0.5864
254.439	0.5932
254.797	0.5881
255.155	0.5818
255.514	0.5863
255.872	0.5939
256.23	0.5795
256.588	0.5834
256.946	0.5865
257.304	0.5823
257.662	0.5827
258.02	0.5802
258.377	0.5826
258.735	0.5775
259.093	0.5759
259.45	0.5732
259.807	0.5702
260.165	0.5704
260.522	0.5746
260.879	0.5687
261.236	0.5712
261.593	0.5636
261.95	0.5634
262.306	0.5618
262.663	0.5536
263.02	0.5557
263.376	0.5513
263.733	0.5539
264.089	0.5479
264.445	0.5499
264.802	0.5445
265.158	0.5467
265.514	0.5369
265.87	0.5352
266.226	0.5352
266.581	0.5339
266.937	0.5316
267.293	0.5308
267.648	0.5189
268.004	0.5245
268.359	0.5166
268.714	0.5149
269.07	0.5129
269.425	0.5058
269.78	0.5054
270.135	0.5079
270.49	0.5089
270.844	0.4999
271.199	0.4972
271.554	0.4951
271.908	0.4866
272.263	0.4865
272.617	0.4805
272.972	0.485
273.326	0.4814
273.68	0.4744
274.034	0.4713
274.388	0.4685
274.742	0.462
275.096	0.4627
275.45	0.4598
275.803	0.4551
276.157	0.4524
276.51	0.4477
276.864	0.4403
277.217	0.4419
277.571	0.4404
277.924	0.4333
278.277	0.4288
278.63	0.4261
278.983	0.4193
279.336	0.4161
279.688	0.4149
280.041	0.4075
280.394	0.4055
280.746	0.4019
281.099	0.3984
281.451	0.3942
281.803	0.3876
282.156	0.3833
282.508	0.3812
282.86	0.3779
283.212	0.3698
283.564	0.3668
283.916	0.3671
284.267	0.3609
284.619	0.3547
284.971	0.3515
285.322	0.3485
285.673	0.3441
286.025	0.34
286.376	0.338
286.727	0.3316
287.078	0.3303
287.429	0.326
287.78	0.3229
288.131	0.3154
288.482	0.3134
288.833	0.3069
289.183	0.3027
289.534	0.3002
289.884	0.297
290.235	0.2922
290.585	0.2879
290.935	0.2846
291.285	0.2781
291.635	0.2775
291.985	0.2727
292.335	0.2683
292.685	0.2676
293.035	0.262
293.384	0.2581
293.734	0.2558
294.083	0.251
294.433	0.2465
294.782	0.2428
295.131	0.2392
295.48	0.2357
295.829	0.2319
296.179	0.2295
296.527	0.2249
296.876	0.2223
297.225	0.2197
297.574	0.2148
297.922	0.2129
298.271	0.2096
298.619	0.2063
298.968	0.2039
299.316	0.1997
299.664	0.1973
300.012	0.1945
300.36	0.1911
300.708	0.1885
301.056	0.1864
301.404	0.1831
301.752	0.1814
302.099	0.1792
302.447	0.1761
302.794	0.1739
303.142	0.1722
303.489	0.1689
303.836	0.1678
304.183	0.1656
304.531	0.1639
304.878	0.1625
305.224	0.1616
305.571	0.1582
305.918	0.1567
306.265	0.1555
306.611	0.1537
306.958	0.1535
307.304	0.1513
307.651	0.1511
307.997	0.1501
308.343	0.1485
308.689	0.1471
309.035	0.1466
309.381	0.146
309.727	0.1448
310.073	0.1439
310.419	0.1449
310.764	0.1426
311.11	0.1424
311.455	0.1418
311.801	0.1423
312.146	0.1417
312.491	0.1414
312.837	0.1405
313.182	0.1411
313.527	0.1405
313.872	0.1405
314.216	0.1409
314.561	0.1408
314.906	0.1405
315.251	0.141
315.595	0.1421
315.94	0.1424
316.284	0.1426
316.628	0.1435
316.972	0.1437
317.317	0.1447
317.661	0.1453
318.005	0.1457
318.348	0.1465
318.692	0.1477
319.036	0.1482
319.38	0.1489
319.723	0.1492
320.067	0.1514
320.41	0.1512
320.754	0.1537
321.097	0.1546
321.44	0.155
321.783	0.1565
322.126	0.1579
322.469	0.159
322.812	0.1603
323.155	0.161
323.498	0.1627
323.84	0.164
324.183	0.1663
324.525	0.1679
324.868	0.1693
325.21	0.1699
325.552	0.1727
325.894	0.1728
326.236	0.1746
326.578	0.1759
326.92	0.1783
327.262	0.1793
327.604	0.1811
327.946	0.1833
328.287	0.1845
328.629	0.187
328.97	0.1878
329.312	0.1893
329.653	0.1907
329.994	0.1932
330.335	0.1935
330.676	0.1965
331.017	0.1981
331.358	0.1997
331.699	0.2021
332.04	0.2033
332.38	0.2046
332.721	0.2061
333.061	0.2085
333.402	0.2104
333.742	0.2116
334.083	0.2139
334.423	0.2149
334.763	0.2163
335.103	0.2178
335.443	0.2194
335.783	0.2211
336.123	0.2219
336.462	0.2238
336.802	0.2259
337.141	0.2267
337.481	0.2273
337.82	0.2296
338.16	0.2302
338.499	0.2324
338.838	0.233
339.177	0.2358
339.516	0.2373
339.855	0.2381
340.194	0.2388
340.533	0.2397
340.872	0.2407
341.21	0.2427
341.549	0.2441
341.887	0.2444
342.226	0.2453
342.564	0.2459
342.902	0.2472
343.24	0.2474
343.578	0.2478
343.916	0.2489
344.254	0.2492
344.592	0.2491
344.93	0.2503
345.268	0.2502
345.605	0.2504
345.943	0.2503
346.28	0.2515
346.618	0.2512
346.955	0.2515
347.292	0.2516
347.629	0.2525
347.966	0.2528
348.303	0.2534
348.64	0.2534
348.977	0.2536
349.314	0.254
349.65	0.2532
349.987	0.2539
350.324	0.254
350.66	0.2538
350.996	0.2521
351.333	0.2523
351.669	0.2523
352.005	0.2518
352.341	0.2499
352.677	0.2492
353.013	0.2489
353.349	0.2478
353.685	0.2472
354.02	0.2462
354.356	0.2441
354.691	0.2436
355.027	0.2422
355.362	0.2425
355.697	0.2421
356.033	0.2404
356.368	0.239
356.703	0.2389
357.038	0.2374
357.373	0.2362
357.707	0.2355
358.042	0.2346
358.377	0.2342
358.711	0.2329
359.046	0.2318
359.38	0.2307
359.715	0.2296
360.049	0.2283
360.383	0.2278
360.717	0.2262
361.051	0.2245
361.385	0.2233
361.719	0.2218
362.053	0.2191
362.387	0.2178
362.72	0.2165
363.054	0.2148
363.387	0.213
363.721	0.2108
364.054	0.2088
364.387	0.2077
364.721	0.2053
365.054	0.2041
365.387	0.2015
365.72	0.1996
366.053	0.1993
366.385	0.1963
366.718	0.1952
367.051	0.1937
367.383	0.1924
367.716	0.1913
368.048	0.19
368.381	0.1878
368.713	0.187
369.045	0.186
369.377	0.1838
369.709	0.1825
370.041	0.1813
370.373	0.1801
370.705	0.1785
371.037	0.1764
371.368	0.1753
371.7	0.1744
372.031	0.1715
372.363	0.1695
372.694	0.1672
373.025	0.165
373.356	0.1626
373.688	0.1622
374.019	0.1592
374.35	0.1571
374.68	0.1549
375.011	0.1538
375.342	0.1516
375.673	0.15
376.003	0.1471
376.334	0.1455
376.664	0.1438
376.995	0.142
377.325	0.1393
377.655	0.139
377.985	0.1369
378.315	0.1352
378.645	0.1344
378.975	0.1324
379.305	0.1313
379.635	0.1309
379.964	0.13
380.294	0.1273
380.623	0.1263
380.953	0.1255
381.282	0.124
381.611	0.1218
381.941	0.1208
382.27	0.1192
382.599	0.1173
382.928	0.1161
383.257	0.1155
383.585	0.1124
383.914	0.1116
384.243	0.1099
384.571	0.1077
384.9	0.1056
385.228	0.1045
385.557	0.102
385.885	0.1014
386.213	0.0994
386.541	0.0982
386.869	0.0961
387.197	0.0944
387.525	0.0927
387.853	0.0914
388.181	0.0904
388.508	0.088
388.836	0.0869
389.164	0.085
389.491	0.0843
389.818	0.0832
390.146	0.0825
390.473	0.0815
390.8	0.079
391.127	0.0782
391.454	0.0771
391.781	0.0764
392.108	0.0747
392.435	0.0736
392.761	0.0726
393.088	0.0719
393.415	0.0709
393.741	0.0703
394.067	0.0689
394.394	0.0689
394.72	0.0672
395.046	0.067
395.372	0.0662
395.698	0.0651
396.024	0.064
396.35	0.0631
396.676	0.0622
397.001	0.061
397.327	0.0601
397.653	0.0593
397.978	0.0575
398.303	0.0576
398.629	0.056
398.954	0.0549
399.279	0.0542
399.604	0.0541
399.929	0.0528
400.254	0.053
400.579	0.0514
400.904	0.0517
401.229	0.0506
401.553	0.0501
401.878	0.0495
402.202	0.0482
402.527	0.0479
402.851	0.0479
403.175	0.0473
403.5	0.0467
403.824	0.0472
404.148	0.0458
404.472	0.0453
404.796	0.0452
405.119	0.0447
405.443	0.0447
405.767	0.0432
406.09	0.0435
406.414	0.0433
406.737	0.043
407.061	0.0427
407.384	0.0427
407.707	0.0422
408.03	0.0421
408.353	0.0425
408.676	0.0418
408.999	0.0414
409.322	0.0417
409.645	0.041
409.968	0.0407
410.29	0.0408
410.613	0.0412
410.935	0.0411
411.258	0.0407
411.58	0.0402
411.902	0.041
412.224	0.04
412.546	0.0404
412.868	0.0404
413.19	0.0401
413.512	0.04
413.834	0.0395
414.156	0.0395
414.477	0.0401
414.799	0.0392
415.121	0.0403
415.442	0.0399
415.763	0.0395
416.085	0.0393
416.406	0.04
416.727	0.0397
417.048	0.0396
417.369	0.0398
417.69	0.0389
418.011	0.0392
418.331	0.0395
418.652	0.0401
418.973	0.0396
419.293	0.0393
419.614	0.0393
419.934	0.0403
420.254	0.04
420.574	0.0399
420.895	0.0396
421.215	0.0393
421.535	0.0395
421.855	0.0387
422.174	0.0394
422.494	0.0392
422.814	0.0393
423.134	0.0398
423.453	0.0395
423.773	0.0399
424.092	0.0393
424.411	0.0397
424.731	0.0398
425.05	0.0389
425.369	0.0397
425.688	0.0393
426.007	0.039
426.326	0.0396
426.644	0.0394
426.963	0.0403
427.282	0.0392
427.6	0.0396
427.919	0.0395
428.237	0.0402
428.556	0.0403
428.874	0.0397
429.192	0.0406
429.51	0.0402
429.828	0.0404
430.146	0.0403
430.464	0.0396
430.782	0.04
431.1	0.0397
431.418	0.0398
431.735	0.0396
432.053	0.0399
432.37	0.0397
432.688	0.0405
433.005	0.0402
433.322	0.0399
433.639	0.0405
433.957	0.0404
434.274	0.0405
434.591	0.04
434.907	0.0399
435.224	0.04
435.541	0.0399
435.858	0.0408
436.174	0.0406
436.491	0.0401
436.807	0.0399
437.124	0.0398
437.44	0.0398
437.756	0.0397
438.072	0.0406
438.388	0.0406
438.704	0.0402
439.02	0.0403
439.336	0.0395
439.652	0.0393
439.968	0.0395
440.283	0.0385
440.599	0.0388
440.914	0.0399
441.23	0.0397
441.545	0.0393
441.86	0.0397
442.175	0.0385
442.491	0.0393
442.806	0.0393
443.121	0.0387
443.435	0.0387
443.75	0.0387
444.065	0.0388
444.38	0.0383
444.694	0.0382
445.009	0.039
445.323	0.0384
445.638	0.0374
445.952	0.0384
446.266	0.0389
446.58	0.0384
446.894	0.0379
447.208	0.0376
447.522	0.0385
447.836	0.038
448.15	0.0369
448.464	0.0377
448.777	0.0378
449.091	0.0372
449.404	0.0374
449.718	0.0368
450.031	0.037
450.345	0.0367
450.658	0.0367
450.971	0.0372
451.284	0.0368
451.597	0.0363
451.91	0.0364
452.223	0.0362
452.535	0.0355
452.848	0.036
453.161	0.036
453.473	0.0354
453.786	0.0353
454.098	0.0356
454.411	0.0355
454.723	0.035
455.035	0.0348
455.347	0.0347
455.659	0.0345
455.971	0.035
456.283	0.0345
456.595	0.0342
456.907	0.0346
457.218	0.0344
457.53	0.0332
457.841	0.034
458.153	0.0336
458.464	0.0331
458.776	0.0333
459.087	0.0331
459.398	0.033
459.709	0.033
460.02	0.033
460.331	0.0314
460.642	0.0321
460.953	0.0319
461.263	0.0318
461.574	0.031
461.885	0.0311
462.195	0.0317
462.506	0.031
462.816	0.0309
463.126	0.0313
463.437	0.031
463.747	0.0293
464.057	0.0302
464.367	0.0307
464.677	0.0299
464.987	0.0295
465.296	0.0289
465.606	0.0282
465.916	0.0285
466.225	0.0284
466.535	0.0279
466.844	0.0289
467.154	0.0287
467.463	0.0275
467.772	0.028
468.081	0.028
468.39	0.0275
468.699	0.0273
469.008	0.0273
469.317	0.0269
469.626	0.0255
469.935	0.0255
470.243	0.0255
470.552	0.0259
470.86	0.026
471.169	0.0262
471.477	0.0255
471.785	0.0251
472.093	0.0253
472.402	0.025
472.71	0.0252
473.018	0.0242
473.326	0.024
473.633	0.0245
473.941	0.0241
474.249	0.0236
474.556	0.0236
474.864	0.0244
475.171	0.0228
475.479	0.0228
475.786	0.0224
476.094	0.0224
476.401	0.0219
476.708	0.022
477.015	0.0226
477.322	0.0222
477.629	0.0205
477.936	0.0217
478.242	0.0202
478.549	0.0205
478.856	0.021
479.162	0.0197
479.469	0.0205
479.775	0.0207
480.081	0.0194
480.388	0.0193
480.694	0.0203
481	0.0189
481.306	0.019
481.612	0.0188
481.918	0.0189
482.224	0.0191
482.53	0.0184
482.835	0.018
483.141	0.0176
483.446	0.0177
483.752	0.017
484.057	0.017
484.363	0.0166
484.668	0.0176
484.973	0.0161
485.278	0.0156
485.583	0.0153
485.888	0.016
486.193	0.0149
486.498	0.0145
486.803	0.0148
487.107	0.0148
487.412	0.0145
487.717	0.0144
488.021	0.0145
488.325	0.0159
488.63	0.015
488.934	0.015
489.238	0.0146
489.542	0.013
489.846	0.0133
490.15	0.0137
490.454	0.0128
490.758	0.0133
491.062	0.0133
491.366	0.012
491.669	0.0125
491.973	0.0132
492.276	0.0126
492.58	0.0124
492.883	0.0118
493.186	0.0115
493.489	0.0118
493.792	0.0113
494.096	0.0101
494.399	0.0102
494.701	0.0114
495.004	0.0104
495.307	0.0104
495.61	0.0099
495.912	0.0108
496.215	0.0087
496.517	0.0091
496.82	0.0095
497.122	0.0087
497.424	0.0094
497.727	0.0091
498.029	0.0081
498.331	0.0086
498.633	0.0091
498.935	0.0085
499.237	0.0088
499.538	0.0087
499.84	0.008
500.142	0.0072
500.443	0.0074
500.745	0.0073
501.046	0.0071
501.348	0.0074
501.649	0.0069
501.95	0.0058
502.251	0.0058
502.552	0.006
502.853	0.0055
503.154	0.0056
503.455	0.0055
503.756	0.0059
504.057	0.007
504.357	0.0044
504.658	0.005
504.958	0.0061
505.259	0.0058
505.559	0.0052
505.859	0.0053
506.16	0.0048
506.46	0.0055
506.76	0.0043
507.06	0.005
507.36	0.004
507.66	0.0043
507.96	0.0053
508.259	0.0044
508.559	0.0057
508.859	0.0046
509.158	0.0048
509.457	0.0031
509.757	0.0039
510.056	0.0036
510.355	0.0036
510.655	0.0027
510.954	0.004
511.253	0.0028
511.552	0.003
511.851	0.0036
512.149	0.0021
512.448	0.003
512.747	0.0029
513.045	0.0025
513.344	0.002
513.642	0.0023
513.941	0.0029
514.239	0.0018
514.537	0.0021
514.836	0.0024
515.134	0.0009
515.432	0.0025
515.73	0.0023
516.028	0.0019
516.326	0.002
516.623	0.0014
516.921	0.0004
517.219	0.0016
517.516	0.001
517.814	0.0016
518.111	0.0011
518.409	0
518.706	0.0009
519.003	0.0019
519.3	0.0011
519.597	0.0004
519.894	0.0018
520.191	0.0006
520.488	0.0004
520.785	-0.0003
521.082	0.0009
521.378	-0.0002
521.675	0.0006
521.971	-0.0002
522.268	0.0009
522.564	0.0008
522.861	0.0008
523.157	0.0009
523.453	0.0004
523.749	-0.0004
524.045	0.0016
524.341	0.001
524.637	-0.0006
524.933	-0.0007
525.229	0.0009
525.524	-0.0014
525.82	-0.0011
526.115	-0.0012
526.411	-0.0001
526.706	0.0003
527.002	0.0007
527.297	-0.0007
527.592	0.0002
527.887	0.0014
528.182	0.001
528.477	-0.0001
528.772	0.0002
529.067	0
529.362	-0.0004
529.657	0.0005
529.951	0
530.246	-0.0014
530.54	-0.0001
530.835	-0.0009
531.129	-0.0007
531.423	-0.0007
531.718	0
532.012	-0.0003
532.306	-0.0005
532.6	-0.0018
532.894	0.0003
533.188	0.0001
533.482	-0.0005
533.775	-0.0004
534.069	-0.0011
534.363	-0.0021
534.656	-0.0025
534.95	0.0003
535.243	-0.0017
535.536	-0.0016
535.83	-0.0023
536.123	-0.0009
536.416	-0.0002
536.709	-0.0007
537.002	-0.0016
537.295	-0.0016
537.588	-0.0009
537.881	-0.0021
538.173	-0.0011
538.466	-0.0015
538.759	-0.001
539.051	-0.0011
539.344	-0.0016
539.636	-0.0018
539.928	-0.0007
540.22	-0.0008
540.513	-0.0004
540.805	-0.0006
541.097	-0.0022
541.389	-0.0007
541.681	0.0009
541.972	0.0002
542.264	0.0011
542.556	0
542.847	0.0002
543.139	-0.0002
543.431	-0.0003
543.722	0.0004
544.013	0.0011
544.305	-0.0012
544.596	-0.002
544.887	0.0001
545.178	-0.0004
545.469	-0.0014
545.76	-0.0012
546.051	0.0001
546.342	0
546.632	-0.0014
546.923	-0.0005
547.214	-0.0003
547.504	-0.002
547.795	-0.0016
548.085	-0.002
548.375	-0.0013
548.666	-0.0019
548.956	-0.0009
549.246	-0.0005
549.536	-0.0007
549.826	-0.0006
550.116	-0.0008
550.406	-0.0006
550.695	-0.0027
550.985	-0.0006
551.275	-0.0005
551.564	-0.0014
551.854	0.0001
552.143	-0.002
552.433	-0.0022
552.722	-0.0026
553.011	-0.0008
553.3	-0.001
553.589	-0.0002
553.879	-0.0002
554.167	-0.0011
554.456	0.0002
554.745	-0.0002
555.034	-0.0005
555.323	0.0005
555.611	-0.001
555.9	-0.0001
556.188	-0.001
556.477	-0.0012
556.765	-0.0027
557.053	-0.0008
557.342	-0.0005
557.63	-0.001
557.918	-0.0012
558.206	0.0002
558.494	-0.0002
558.782	-0.0007
559.069	0.0015
559.357	0.0013
559.645	0.0001
559.932	-0.0006
560.22	-0.0006
560.507	-0.0012
560.795	-0.002
561.082	-0.0021
561.37	-0.0006
561.657	-0.0011
561.944	-0.0005
562.231	-0.0011
562.518	-0.0003
562.805	0.0004
563.092	0.0005
563.379	0.0001
563.665	0.0003
563.952	-0.0004
564.239	-0.0003
564.525	0.0004
564.811	0.0008
565.098	0.0003
565.384	-0.0006
565.67	0.0009
565.957	0.0003
566.243	0.0017
566.529	-0.0004
566.815	0.0004
567.101	0.0013
567.387	0.0005
567.672	0.0005
567.958	0.0001
568.244	0.0003
568.529	0.0004
568.815	-0.0002
569.1	-0.0013
569.386	-0.0008
569.671	0.0003
569.956	-0.0005
570.242	-0.0001
570.527	-0.001
570.812	0.0007
571.097	0.0003
571.382	-0.0004
571.666	-0.0003
571.951	-0.001
572.236	-0.0008
572.521	-0.0004
572.805	-0.0007
573.09	-0.0004
573.374	-0.0004
573.659	-0.0009
573.943	-0.0013
574.227	-0.0015
574.511	-0.0018
574.795	-0.0012
575.079	-0.0006
575.363	-0.0012
575.647	-0.0014
575.931	-0.0003
576.215	-0.0013
576.499	-0.0014
576.782	-0.0009
577.066	-0.001
577.349	0.0004
577.633	-0.0009
577.916	-0.0016
578.2	-0.0008
578.483	-0.0009
578.766	-0.0007
579.049	-0.0003
579.332	0.0003
579.615	-0.0003
579.898	-0.0002
580.181	0.0003
580.464	0.0006
580.746	-0.0002
581.029	-0
581.312	-0.0013
581.594	-0.0016
581.877	-0.0018
582.159	-0.0019
582.441	-0.0014
582.724	-0.0013
583.006	0.0002
583.288	-0.0003
583.57	0.0004
583.852	-0.0001
584.134	-0.0001
584.416	-0
584.697	-0.0007
584.979	-0.0015
585.261	-0.0022
585.542	-0.0021
585.824	-0.0017
586.105	-0.0011
586.387	-0.0016
586.668	-0.001
586.949	-0.0008
587.231	-0.0005
587.512	0
587.793	-0.0007
588.074	-0.0011
588.355	0.0002
588.636	-0.0013
588.916	-0.001
589.197	0
589.478	-0.0005
589.758	0.0001
590.039	-0.0003
590.319	-0.0002
590.6	0.0003
590.88	0.0009
591.16	0.0005
591.441	0.0006
591.721	-0
592.001	-0.0004
592.281	-0.0003
592.561	0
592.841	-0.0016
593.12	-0.0021
593.4	-0.0019
593.68	-0.0025
593.959	-0.0017
594.239	-0.0008
594.518	-0.0013
594.798	0
595.077	-0.0007
595.356	-0.0011
595.636	-0.0015
595.915	-0.0006
596.194	0.0003
596.473	0.0001
596.752	-0
597.031	0.0004
597.31	0.0006
597.588	-0.0007
597.867	-0.0002
598.146	-0.0008
598.424	-0.0003
598.703	-0.0005
598.981	-0.0012
599.259	-0.0021
599.538	-0.0012
599.816	0
600.094	-0.0009
600.372	-0.0021
600.65	-0.0014
600.928	-0.0014
601.206	-0.0006
601.484	0.0002
601.762	-0.0001
602.04	-0.0002
602.317	0.0004
602.595	-0
602.872	-0.0003
603.15	0.0001
603.427	-0.0019
603.704	-0.0014
603.982	-0.0007
604.259	-0.0006
604.536	-0.0012
604.813	-0.0003
605.09	-0.0002
605.367	-0.0008
605.644	-0.0017
605.921	-0.0008
606.197	-0.0012
606.474	-0.0009
606.751	-0.0014
607.027	-0.0008
607.304	-0.001
607.58	-0.0013
607.856	-0.0017
608.133	-0.0019
608.409	-0.0004
608.685	-0.0015
608.961	-0.0012
609.237	-0.0005
609.513	-0.0012
609.789	-0.0007
610.065	-0.0015
610.341	-0.0011
610.616	-0.0002
610.892	0.0001
611.167	0.0009
611.443	0.0005
611.718	0.0001
611.994	-0.0001
612.269	0.0002
612.544	-0.0002
612.819	-0.0002
613.095	-0.001
613.37	-0.0001
613.645	-0.0008
613.919	-0.0007
614.194	-0.0005
614.469	0.0007
614.744	0.0003
615.019	-0.0009
615.293	-0.0011
615.568	-0.0013
615.842	-0.0003
616.116	0.0005
616.391	0.0013
616.665	0.0007
616.939	0.0001
617.213	0.0008
617.488	0.0019
617.762	-0.0002
618.035	0.0001
618.309	-0.0009
618.583	0.0004
618.857	0.0021
619.131	0.0019
619.404	0.0011
619.678	0.0012
619.951	-0.0003
620.225	-0.0003
620.498	-0
620.771	-0.0001
621.045	-0.0005
621.318	0.0001
621.591	-0.001
621.864	-0.0011
622.137	-0.0014
622.41	-0.0006
622.683	0.0003
622.956	-0
623.228	0.0002
623.501	0.0011
623.774	0.0004
624.046	0.0003
624.319	-0.0004
624.591	-0.0013
624.863	-0.0008
625.136	0.0005
625.408	0.0016
625.68	0.0007
625.952	0.001
626.224	0.0005
626.496	0.0017
626.768	0.0011
627.04	0.0007
627.311	0.0005
627.583	0.0001
627.855	0.002
628.126	0.0012
628.398	0.0017
628.669	0.0026
628.941	0.0025
629.212	0.0017
629.483	0.0007
629.755	0.0009
630.026	0.0007
630.297	0.0018
630.568	0.0008
630.839	0.0008
631.11	0.0014
631.38	0.0019
631.651	0.002
631.922	0.0022
632.192	0.0012
632.463	0.0022
632.733	0.001
633.004	0.002
633.274	0.0024
633.545	0.0021
633.815	0.0015
634.085	0.0002
634.355	-0.0006
634.625	-0.0009
634.895	0
635.165	-0.0002
635.435	-0.0011
635.705	0.0004
635.974	-0.0008
636.244	0.0002
636.514	0.0011
636.783	0.0001
637.053	0.0012
637.322	0.002
637.591	0.0017
637.861	0.0011
638.13	0.0016
638.399	-0.0001
638.668	-0.0004
638.937	-0.0007
639.206	0.0003
639.475	-0.0002
639.744	0.0002
640.013	0.001
640.281	0.0013
640.55	0.0014
640.819	0.0011
641.087	0.0013
641.356	0.0019
641.624	0.0034
641.892	0.004
642.161	0.0025
642.429	0.0026
642.697	0.0014
642.965	0.0023
643.233	0.0009
643.501	0.0005
643.769	0.0006
644.037	0.0009
644.305	0.001
644.572	0.0013
644.84	0.0002
645.108	0.0005
645.375	-0.0003
645.643	-0.0003
645.91	0.0019
646.177	0.0021
646.445	0.0023
646.712	0.0041
646.979	0.0043
647.246	0.0056
647.513	0.0048
647.78	0.0036
648.047	0.0017
648.314	0.0012
648.58	0.0011
648.847	0.001
649.114	0.002
649.38	0.0013
649.647	0.001
649.913	0.002
650.18	0.002
650.446	0.0026
650.712	0.0011
650.978	0.0013
651.245	0.0009
651.511	0.0005
651.777	0.0014
652.043	0.0002
652.309	0.0014
652.574	0.0026
652.84	0.003
653.106	0.0029
653.371	0.0029
653.637	0.0035
653.903	0.0032
654.168	0.0042
654.433	0.0054
654.699	0.0048
654.964	0.0054
655.229	0.0036
655.494	0.0022
655.759	-0.0025
656.024	-0.0003
656.289	-0
656.554	-0.0011
656.819	-0.0003
657.084	0.001
657.349	0.0022
657.613	0.0017
657.878	0.0011
658.142	0.0007
658.407	0.0004
658.671	0.0022
658.936	0.0011
659.2	0.0016
659.464	0.002
659.728	0.0012
659.992	0.0018
660.256	0.0013
660.52	0.0013
660.784	0.0008
661.048	0.0006
661.312	0.0014
661.575	0.0012
661.839	0.0015
662.103	0.0011
662.366	0.0009
662.63	0.0014
662.893	0.0013
663.156	0
663.42	-0.0006
663.683	-0.0012
663.946	-0.002
664.209	-0.0019
664.472	-0.0025
664.735	-0.0012
664.998	0.0005
665.261	-0.0001
665.524	-0.0008
665.786	-0.0003
666.049	-0.0004
666.312	0.0001
666.574	0
666.837	0.0004
667.099	0.002
667.361	0.0016
667.624	0.0006
667.886	-0.0001
668.148	0.0004
668.41	0.0014
668.672	0.0002
668.934	0.0006
669.196	0.0011
669.458	0.0009
669.72	0.0019
669.982	0.0014
670.243	0.0032
670.505	0.0012
670.766	0.002
671.028	0.0018
671.289	0.0005
671.551	0.0003
671.812	-0.001
672.073	0.0007
672.334	0.0007
672.596	-0.0003
672.857	-0.0006
673.118	0.0005
673.379	-0.0006
673.639	-0.0006
673.9	0.0003
674.161	0.0005
674.422	0.0001
674.682	0.0004
674.943	0.0004
675.203	0.0007
675.464	0.0002
675.724	-0.0011
675.985	-0.0014
676.245	0
676.505	-0.0006
676.765	-0.001
677.025	-0.0003
677.285	0.0006
677.545	0.0018
677.805	0.0018
678.065	0.0003
678.325	0.0011
678.585	0.0009
678.844	-0.001
679.104	-0.0005
679.363	-0.002
679.623	-0.0019
679.882	-0.0003
680.142	-0.0009
680.401	0.0003
680.66	0.0023
680.919	0.0032
681.178	0.0027
681.437	0.002
681.696	0.0007
681.955	0.0012
682.214	0.0018
682.473	0.0008
682.732	-0.0003
682.99	0.0004
683.249	0.0019
683.508	0.0008
683.766	-0.0001
684.024	-0.0005
684.283	0.0012
684.541	0.0002
684.799	0.0007
685.058	0.0005
685.316	-0.0001
685.574	-0.001
685.832	-0.0011
686.09	-0.0008
686.348	-0.0024
686.606	-0.0008
686.863	-0.0018
687.121	0
687.379	0.0003
687.636	-0.0002
687.894	0.0019
688.151	0.0021
688.409	0.0012
688.666	-0.0001
688.923	-0.0009
689.181	-0.0007
689.438	-0.001
689.695	-0.001
689.952	-0.0013
690.209	-0.0014
690.466	-0.001
690.723	0.0001
690.979	0.0004
691.236	-0.0006
691.493	-0.0002
691.75	0.0009
692.006	0.0008
692.263	0.0002
692.519	0.0003
692.775	0.0001
693.032	-0.0004
693.288	0.0006
693.544	0.0005
693.8	0.0006
694.056	0.0005
694.313	-0.0004
694.568	-0.0001
694.824	-0.0007
695.08	-0.0005
695.336	-0.0017
695.592	-0.0033
695.847	-0.001
696.103	-0.0004
696.359	-0.0005
696.614	-0.0007
696.869	-0.0009
697.125	-0.0032
697.38	-0.0018
697.635	-0.0008
697.891	0.0001
698.146	0.0003
698.401	-0
698.656	-0.0007
698.911	-0.0002
699.166	0.0018
699.42	0.002
699.675	0.0019
699.93	0.0016
700.185	0.0006
700.439	0.0006
700.694	0.0009
700.948	0.0004
701.203	-0.0001
701.457	-0.0004
701.711	-0.0011
701.965	-0.0007
702.22	-0.0021
702.474	-0.0016
702.728	-0.0017
702.982	-0.0016
703.236	-0.0011
703.49	-0.0006
703.743	-0.001
703.997	-0.0011
704.251	-0.0012
704.504	-0.0015
704.758	-0.0014
705.012	-0.0003
705.265	0.0008
705.518	0.0023
705.772	0.0014
706.025	0.0005
706.278	-0.001
706.531	-0.001
706.785	-0.0014
707.038	-0.0022
707.291	-0.0013
707.543	-0.0016
707.796	-0.0011
708.049	-0.0017
708.302	-0.0026
708.555	-0.0028
708.807	-0.0019
709.06	-0.0022
709.312	-0.0022
709.565	-0.0018
709.817	-0.0023
710.069	-0.002
710.322	-0.0028
710.574	-0.0029
710.826	-0.003
711.078	-0.0029
711.33	-0.0018
711.582	-0.0031
711.834	-0.003
712.086	-0.0025
712.338	-0.0031
712.59	-0.0023
712.841	-0.0037
713.093	-0.0033
713.344	-0.0034
713.596	-0.0032
713.847	-0.0018
714.099	-0.0012
714.35	-0.0018
714.601	-0.0019
714.853	-0.0012
715.104	-0.0015
715.355	-0.0011
715.606	-0.0012
715.857	-0.0001
716.108	-0.0012
716.359	-0.0009
716.609	-0.0013
716.86	-0.0004
717.111	-0.0005
717.361	-0.0008
717.612	0.0003
717.863	0.0017
718.113	0.0018
718.363	-0.0004
718.614	0.0024
718.864	0.0023
719.114	0.0029
719.364	0.003
719.614	0.0016
719.865	0.0028
720.114	0.0033
720.364	0.0033
720.614	0.0034
720.864	0.0028
721.114	0.0026
721.364	0.002
721.613	0.0024
721.863	0.0018
722.112	0.0011
722.362	0.0004
722.611	0.0006
722.86	0.0005
723.11	0.0007
723.359	0.0007
723.608	0.0004
723.857	0.0005
724.106	0.001
724.355	0.0016
724.604	0.0026
724.853	0.0009
725.102	-0.0005
725.351	-0.0002
725.599	-0.001
725.848	-0.0006
726.097	0.0006
726.345	0.0001
726.594	-0.0017
726.842	-0.0005
727.09	-0.002
727.339	-0.0038
727.587	-0.0037
727.835	-0.0037
728.083	-0.0022
728.331	-0.0027
728.579	-0.0013
728.827	-0.0009
729.075	0
729.323	-0.0004
729.571	-0.0001
729.818	-0.0003
730.066	-0.0001
730.314	-0
730.561	0.0015
730.809	0.0016
731.056	-0.0001
731.303	0.0007
731.551	0.0012
731.798	0.0004
732.045	-0.0003
732.292	0.0017
732.539	0.0018
732.786	0.0017
733.033	0.0008
733.28	0.0017
733.527	0.0006
733.774	0.0002
734.021	-0.0018
734.267	-0.0016
734.514	-0.0027
734.76	-0.0025
735.007	-0.0013
735.253	-0.0025
735.5	-0.0018
735.746	-0.0028
735.992	-0.0017
736.238	-0.0003
736.485	0.0006
736.731	0.0007
736.977	-0.0002
737.223	-0.0001
737.469	-0.0002
737.715	0.0007
737.96	-0.0001
738.206	-0.0005
738.452	-0.0003
738.697	0
738.943	-0.0008
739.189	-0.0011
739.434	-0.0012
739.679	-0.0015
739.925	-0.0007
740.17	-0.002
740.415	-0.0012
740.66	-0.0032
740.906	-0.0026
741.151	-0.0024
741.396	-0.0023
741.641	-0.0024
741.886	-0.0023
742.13	-0.0013
742.375	-0.0005
742.62	-0.0017
742.865	-0.0022
743.109	-0.0008
743.354	0.0008
743.598	0.0016
743.843	0.002
744.087	0.0029
744.331	0.0029
744.576	0.0038
744.82	0.0041
745.064	0.0045
745.308	0.0047
745.552	0.0045
745.796	0.0027
746.04	0.0026
746.284	0.0018
746.528	0.0029
746.771	0.0047
747.015	0.0047
747.259	0.0029
747.502	0.0026
747.746	0.0015
747.989	0.0021
748.233	0.002
748.476	0.0038
748.719	0.0034
748.963	0.0048
749.206	0.0045
749.449	0.0028
749.692	0.0026
749.935	0.0031
750.178	0.0017
750.421	0.0014
750.664	0.0019
750.906	0.0027
751.149	0.0033
751.392	0.0025
751.635	0.0011
751.877	0.0007
752.12	0.0013
752.362	0.0005
752.604	0.001
752.847	0.0024
753.089	0.0036
753.331	0.0043
753.573	0.0029
753.816	0.0015
754.058	0.0007
754.3	-0.0002
754.542	0.0001
754.783	-0.002
755.025	-0.0003
755.267	0
755.509	-0.0014
755.75	-0.0008
755.992	-0.0001
756.234	-0.0009
756.475	-0.001
756.716	-0.0013
756.958	-0.001
757.199	-0.0015
757.44	-0.0005
757.682	-0.0009
757.923	0
758.164	0.0013
758.405	0.0007
758.646	0.0023
758.887	0.0026
759.128	0.0023
759.369	0.0009
759.609	0.0018
759.85	0.0023
760.091	0.0029
760.331	0.0018
760.572	0.0001
760.812	-0.0003
761.053	-0.0002
761.293	-0.0001
761.533	0.0002
761.774	0.0019
762.014	0.0026
762.254	0.002
762.494	0.0008
762.734	0.0008
762.974	0.0001
763.214	-0.0005
763.454	0.0001
763.694	-0.0001
763.933	-0.0016
764.173	-0.0034
764.413	-0.004
764.652	-0.0043
764.892	-0.0034
765.131	-0.003
765.371	-0.0021
765.61	-0.0029
765.849	-0.0027
766.089	-0.0019
766.328	-0.0004
766.567	-0.0003
766.806	-0.0007
767.045	-0.0005
767.284	-0.0013
767.523	-0.0013
767.762	-0.002
768.001	-0.0021
768.239	-0.0021
768.478	-0.0007
768.717	-0.0005
768.955	-0.0007
769.194	-0.0012
769.432	0.0004
769.671	0.0011
769.909	0.0014
770.148	0.0011
770.386	0.0022
770.624	0.003
770.862	0.0027
771.1	0.004
771.338	0.0036
771.576	0.0021
771.814	0.0033
772.052	0.0034
772.29	0.0042
772.528	0.0045
772.765	0.0059
773.003	0.006
773.24	0.0062
773.478	0.0044
773.716	0.0052
773.953	0.0043
774.19	0.0051
774.428	0.0054
774.665	0.0053
774.902	0.0056
775.139	0.0056
775.376	0.0048
775.613	0.0045
775.85	0.0029
776.087	0.003
776.324	0.0025
776.561	0.0017
776.798	0.0012
777.034	0.0008
777.271	0.0021
777.508	0.0026
777.744	0.0037
777.981	0.004
778.217	0.0042
778.454	0.0037
778.69	0.0023
778.926	0.0017
779.162	0.0018
779.399	0.0019
779.635	0.0021
779.871	0.0023
780.107	0.0021
780.343	0.0018
780.579	0.0016
780.814	0.0017
781.05	0.0014
781.286	-0.0001
781.522	0.0008
781.757	0.0014
781.993	0.0016
782.228	0.0009
782.464	0.0021
782.699	0.0006
782.934	-0.0002
783.17	0.0003
783.405	0.0007
783.64	0.0006
783.875	-0.001
784.11	-0.0007
784.345	0.0005
784.58	0.0016
784.815	0.0024
785.05	0.0005
785.285	-0.0004
785.52	-0.0007
785.754	-0.0012
785.989	-0.0012
786.223	-0.0037
786.458	-0.0026
786.692	-0.0022
786.927	-0.001
787.161	-0.0004
787.396	-0.0011
787.63	-0.0011
787.864	-0.0018
788.098	-0.0028
788.332	-0.0024
788.566	-0.0019
788.8	-0.0019
789.034	-0.0019
789.268	-0.002
789.502	-0.0007
789.736	-0.0003
789.969	-0.0005
790.203	0.0001
790.437	-0.0013
790.67	-0.002
790.904	-0.003
791.137	-0.0029
791.37	-0.004
791.604	-0.0052
791.837	-0.0058
792.07	-0.0042
792.303	-0.0045
792.537	-0.0039
792.77	-0.0046
793.003	-0.0037
793.236	-0.0039
793.469	-0.004
793.701	-0.0014
793.934	-0.0019
794.167	-0.0012
794.4	-0.0014
794.632	-0.0003
794.865	0.0007
795.097	0.0006
795.33	-0.001
795.562	0.0001
795.795	0.0003
796.027	0.0014
796.259	0.0013
796.491	0.0015
796.724	0.0008
796.956	0.0016
797.188	0.0012
797.42	0.0015
797.652	0.0006
797.883	0.0016
798.115	0.0026
798.347	0.002
798.579	0.0042
798.81	0.0044
799.042	0.0048
799.274	0.0037
799.505	0.0029
799.737	0.0029
799.968	0.0016
800.199	0.0014
800.431	0.0014
800.662	0.0011
800.893	0.0017
801.124	0.0009
801.355	0.0007
801.586	0.0017
801.817	0.0007
802.048	-0.0007
802.279	-0.0002
802.51	0.0003
802.741	0.0012
802.971	0.0021
803.202	0.0017
803.433	0.0019
803.663	0.0005
803.894	0.0008
804.124	0.0003
804.354	0.0008
804.585	0.0005
804.815	0.001
805.045	0
805.275	0.0021
805.506	-0.0389
805.736	-0.0486
805.966	-0.0293
806.196	-0.0634
