Data from 03 0.5 mM K2Cr2O7 0.3 mM BQDS 1 M H2SO4 5 min_Absorbance_0049.txt Node
Date: Mon Dec 13 21:44:44 EST 2021
User: kwabilab-user
Spectrometer: HDX00518
Trigger mode: 0
Integration Time (sec): 5.000000E-2
Scans to average: 50
Nonlinearity correction enabled: false
Boxcar width: 0
Storing dark spectrum: false
XAxis mode: Wavelengths
Number of Pixels in Spectrum: 2068
>>>>>Begin Spectral Data<<<<<
195.27	0.0251
195.642	0.3136
196.014	0.1126
196.386	0.1646
196.758	0.0052
197.129	0.0092
197.501	0.0019
197.872	0.0129
198.244	0.0437
198.615	0.0517
198.986	0.0371
199.357	0.0655
199.728	0.0411
200.099	0.0432
200.47	0.0289
200.841	0.0282
201.212	0.0472
201.582	0.0562
201.953	0.048
202.323	0.0509
202.694	0.0532
203.064	0.0344
203.434	0.077
203.804	0.0373
204.174	0.0493
204.544	0.049
204.914	0.0329
205.284	0.046
205.653	0.0336
206.023	0.0356
206.393	0.0326
206.762	0.0541
207.131	0.0477
207.501	0.0279
207.87	0.0484
208.239	0.0479
208.608	0.0334
208.977	0.0267
209.346	0.0464
209.715	0.056
210.083	0.0326
210.452	0.0447
210.82	0.0509
211.189	0.0216
211.557	0.0555
211.925	0.0191
212.294	0.0485
212.662	0.0332
213.03	0.0173
213.398	0.0546
213.766	0.0682
214.133	0.0375
214.501	0.0659
214.869	0.0661
215.236	0.0638
215.604	0.0725
215.971	0.0419
216.338	0.0481
216.705	0.0774
217.072	0.0954
217.439	0.0769
217.806	0.0659
218.173	0.0798
218.54	0.0551
218.907	0.0869
219.273	0.0927
219.64	0.0745
220.006	0.1057
220.373	0.1244
220.739	0.1246
221.105	0.1264
221.471	0.1521
221.837	0.1742
222.203	0.1889
222.569	0.1937
222.935	0.2223
223.3	0.2281
223.666	0.2648
224.031	0.2722
224.397	0.2824
224.762	0.317
225.127	0.3562
225.493	0.3865
225.858	0.4042
226.223	0.428
226.588	0.4436
226.952	0.4662
227.317	0.4901
227.682	0.4811
228.046	0.5059
228.411	0.5468
228.775	0.5364
229.14	0.5641
229.504	0.5773
229.868	0.5861
230.232	0.6135
230.596	0.607
230.96	0.6262
231.324	0.635
231.688	0.6389
232.052	0.676
232.415	0.652
232.779	0.6793
233.142	0.6821
233.505	0.7017
233.869	0.6955
234.232	0.7003
234.595	0.6937
234.958	0.7067
235.321	0.7125
235.684	0.7017
236.047	0.7045
236.409	0.6987
236.772	0.7126
237.134	0.7241
237.497	0.7051
237.859	0.7114
238.222	0.722
238.584	0.7086
238.946	0.7194
239.308	0.7165
239.67	0.71
240.032	0.6932
240.393	0.7082
240.755	0.6984
241.117	0.7031
241.478	0.7044
241.84	0.7045
242.201	0.6971
242.562	0.6888
242.924	0.6895
243.285	0.6948
243.646	0.692
244.007	0.6875
244.368	0.6899
244.728	0.696
245.089	0.6912
245.45	0.6873
245.81	0.6793
246.171	0.6821
246.531	0.687
246.891	0.6852
247.252	0.6791
247.612	0.6884
247.972	0.6903
248.332	0.6867
248.692	0.6851
249.051	0.689
249.411	0.6933
249.771	0.6782
250.13	0.6866
250.49	0.6859
250.849	0.6805
251.208	0.6821
251.568	0.6832
251.927	0.681
252.286	0.6896
252.645	0.6842
253.004	0.6875
253.363	0.67
253.721	0.6906
254.08	0.6924
254.439	0.6746
254.797	0.6802
255.155	0.6702
255.514	0.6795
255.872	0.6832
256.23	0.6796
256.588	0.6774
256.946	0.678
257.304	0.6775
257.662	0.6806
258.02	0.6806
258.377	0.6775
258.735	0.6748
259.093	0.6676
259.45	0.6711
259.807	0.6736
260.165	0.668
260.522	0.6688
260.879	0.6606
261.236	0.669
261.593	0.6673
261.95	0.6677
262.306	0.6603
262.663	0.6581
263.02	0.6582
263.376	0.6554
263.733	0.6529
264.089	0.655
264.445	0.6471
264.802	0.6479
265.158	0.6514
265.514	0.6448
265.87	0.6362
266.226	0.6371
266.581	0.6368
266.937	0.6405
267.293	0.6364
267.648	0.6226
268.004	0.6237
268.359	0.6193
268.714	0.6165
269.07	0.6133
269.425	0.6099
269.78	0.6086
270.135	0.6064
270.49	0.6029
270.844	0.603
271.199	0.5983
271.554	0.5944
271.908	0.5868
272.263	0.5906
272.617	0.5813
272.972	0.5814
273.326	0.5768
273.68	0.5732
274.034	0.5725
274.388	0.5661
274.742	0.5653
275.096	0.5621
275.45	0.5526
275.803	0.5531
276.157	0.5475
276.51	0.5455
276.864	0.5342
277.217	0.5346
277.571	0.5338
277.924	0.5298
278.277	0.523
278.63	0.5228
278.983	0.5135
279.336	0.505
279.688	0.5043
280.041	0.5005
280.394	0.4953
280.746	0.4899
281.099	0.4836
281.451	0.4821
281.803	0.4756
282.156	0.4711
282.508	0.4661
282.86	0.4645
283.212	0.4555
283.564	0.4493
283.916	0.4501
284.267	0.4433
284.619	0.4386
284.971	0.4363
285.322	0.4284
285.673	0.4252
286.025	0.4188
286.376	0.417
286.727	0.4126
287.078	0.4074
287.429	0.4026
287.78	0.3978
288.131	0.3937
288.482	0.3881
288.833	0.3797
289.183	0.3773
289.534	0.3722
289.884	0.3675
290.235	0.3657
290.585	0.359
290.935	0.3551
291.285	0.3501
291.635	0.3457
291.985	0.3398
292.335	0.337
292.685	0.3334
293.035	0.3278
293.384	0.3228
293.734	0.3195
294.083	0.3151
294.433	0.3086
294.782	0.3064
295.131	0.3013
295.48	0.2963
295.829	0.2923
296.179	0.2888
296.527	0.2849
296.876	0.2799
297.225	0.2758
297.574	0.2713
297.922	0.2686
298.271	0.263
298.619	0.2604
298.968	0.2566
299.316	0.2527
299.664	0.2505
300.012	0.2464
300.36	0.2427
300.708	0.2386
301.056	0.236
301.404	0.2321
301.752	0.2309
302.099	0.2274
302.447	0.2244
302.794	0.2208
303.142	0.2184
303.489	0.2143
303.836	0.214
304.183	0.2108
304.531	0.2075
304.878	0.2057
305.224	0.2031
305.571	0.201
305.918	0.199
306.265	0.1972
306.611	0.1947
306.958	0.1937
307.304	0.1914
307.651	0.1909
307.997	0.1882
308.343	0.1875
308.689	0.186
309.035	0.1842
309.381	0.1833
309.727	0.1819
310.073	0.1817
310.419	0.181
310.764	0.1786
311.11	0.179
311.455	0.1783
311.801	0.1781
312.146	0.1765
312.491	0.1766
312.837	0.1756
313.182	0.175
313.527	0.1765
313.872	0.1756
314.216	0.1767
314.561	0.1755
314.906	0.1752
315.251	0.1761
315.595	0.1766
315.94	0.1764
316.284	0.1773
316.628	0.177
316.972	0.1777
317.317	0.1783
317.661	0.1784
318.005	0.179
318.348	0.1803
318.692	0.1818
319.036	0.1817
319.38	0.1817
319.723	0.1833
320.067	0.1845
320.41	0.1855
320.754	0.1872
321.097	0.188
321.44	0.188
321.783	0.1901
322.126	0.1926
322.469	0.1933
322.812	0.1937
323.155	0.1953
323.498	0.1967
323.84	0.199
324.183	0.2
324.525	0.2019
324.868	0.2036
325.21	0.2046
325.552	0.2069
325.894	0.2077
326.236	0.2093
326.578	0.2107
326.92	0.213
327.262	0.2146
327.604	0.2168
327.946	0.2175
328.287	0.2198
328.629	0.2219
328.97	0.2231
329.312	0.2248
329.653	0.2273
329.994	0.2279
330.335	0.2298
330.676	0.2328
331.017	0.2337
331.358	0.2365
331.699	0.2387
332.04	0.2399
332.38	0.2419
332.721	0.2433
333.061	0.2459
333.402	0.2478
333.742	0.25
334.083	0.2514
334.423	0.2523
334.763	0.2536
335.103	0.2555
335.443	0.2576
335.783	0.2586
336.123	0.2603
336.462	0.2621
336.802	0.2643
337.141	0.2649
337.481	0.2662
337.82	0.2679
338.16	0.2685
338.499	0.2714
338.838	0.2721
339.177	0.275
339.516	0.2754
339.855	0.2768
340.194	0.2783
340.533	0.2792
340.872	0.2809
341.21	0.2811
341.549	0.2831
341.887	0.2841
342.226	0.2853
342.564	0.2859
342.902	0.2869
343.24	0.2868
343.578	0.2873
343.916	0.2885
344.254	0.2886
344.592	0.2889
344.93	0.2887
345.268	0.2898
345.605	0.2891
345.943	0.2896
346.28	0.2904
346.618	0.2911
346.955	0.2912
347.292	0.2914
347.629	0.291
347.966	0.2919
348.303	0.2921
348.64	0.2929
348.977	0.2921
349.314	0.2932
349.65	0.2921
349.987	0.2922
350.324	0.2928
350.66	0.2919
350.996	0.2914
351.333	0.291
351.669	0.2913
352.005	0.2895
352.341	0.2886
352.677	0.2875
353.013	0.287
353.349	0.2858
353.685	0.2846
354.02	0.283
354.356	0.2816
354.691	0.2806
355.027	0.2797
355.362	0.2793
355.697	0.2778
356.033	0.2772
356.368	0.2754
356.703	0.274
357.038	0.2741
357.373	0.2722
357.707	0.271
358.042	0.2704
358.377	0.2696
358.711	0.2681
359.046	0.2668
359.38	0.2666
359.715	0.2646
360.049	0.2625
360.383	0.2617
360.717	0.2601
361.051	0.259
361.385	0.257
361.719	0.2536
362.053	0.2528
362.387	0.2515
362.72	0.2487
363.054	0.247
363.387	0.2453
363.721	0.2431
364.054	0.241
364.387	0.2387
364.721	0.237
365.054	0.2339
365.387	0.2321
365.72	0.2306
366.053	0.2289
366.385	0.2267
366.718	0.2248
367.051	0.2233
367.383	0.222
367.716	0.2207
368.048	0.2189
368.381	0.2165
368.713	0.2161
369.045	0.2144
369.377	0.2116
369.709	0.2111
370.041	0.2097
370.373	0.208
370.705	0.2055
371.037	0.2039
371.368	0.2019
371.7	0.2012
372.031	0.1982
372.363	0.1961
372.694	0.1935
373.025	0.1912
373.356	0.1887
373.688	0.1868
374.019	0.1844
374.35	0.1828
374.68	0.1798
375.011	0.1785
375.342	0.1749
375.673	0.1734
376.003	0.1707
376.334	0.1688
376.664	0.1669
376.995	0.1653
377.325	0.1621
377.655	0.1612
377.985	0.159
378.315	0.1572
378.645	0.156
378.975	0.1545
379.305	0.1532
379.635	0.1521
379.964	0.1507
380.294	0.148
380.623	0.1466
380.953	0.1457
381.282	0.144
381.611	0.1418
381.941	0.1409
382.27	0.1394
382.599	0.1369
382.928	0.1355
383.257	0.1339
383.585	0.1319
383.914	0.131
384.243	0.1288
384.571	0.1269
384.9	0.1238
385.228	0.1226
385.557	0.1204
385.885	0.1181
386.213	0.1172
386.541	0.1152
386.869	0.1137
387.197	0.1117
387.525	0.1094
387.853	0.1074
388.181	0.1063
388.508	0.1042
388.836	0.1028
389.164	0.1007
389.491	0.0999
389.818	0.0984
390.146	0.0967
390.473	0.0952
390.8	0.0943
391.127	0.0935
391.454	0.0912
391.781	0.0903
392.108	0.0886
392.435	0.0877
392.761	0.0861
393.088	0.0856
393.415	0.0846
393.741	0.0836
394.067	0.0827
394.394	0.0816
394.72	0.0807
395.046	0.0801
395.372	0.0789
395.698	0.0774
396.024	0.0761
396.35	0.0753
396.676	0.0744
397.001	0.0736
397.327	0.0722
397.653	0.0707
397.978	0.069
398.303	0.0689
398.629	0.0672
398.954	0.066
399.279	0.0656
399.604	0.0652
399.929	0.0646
400.254	0.0633
400.579	0.0625
400.904	0.0616
401.229	0.061
401.553	0.0602
401.878	0.0595
402.202	0.0592
402.527	0.0583
402.851	0.058
403.175	0.057
403.5	0.0563
403.824	0.0558
404.148	0.0555
404.472	0.0545
404.796	0.0545
405.119	0.0539
405.443	0.0538
405.767	0.0528
406.09	0.0531
406.414	0.0522
406.737	0.0517
407.061	0.0519
407.384	0.0511
407.707	0.0512
408.03	0.0508
408.353	0.0513
408.676	0.0506
408.999	0.0505
409.322	0.0505
409.645	0.0499
409.968	0.0495
410.29	0.0495
410.613	0.0497
410.935	0.0496
411.258	0.0491
411.58	0.049
411.902	0.0487
412.224	0.0483
412.546	0.0489
412.868	0.0482
413.19	0.0486
413.512	0.0481
413.834	0.0471
414.156	0.0476
414.477	0.0483
414.799	0.0478
415.121	0.048
415.442	0.0483
415.763	0.0475
416.085	0.047
416.406	0.0479
416.727	0.0481
417.048	0.0477
417.369	0.0475
417.69	0.0469
418.011	0.0473
418.331	0.0476
418.652	0.0472
418.973	0.0474
419.293	0.0475
419.614	0.0479
419.934	0.0481
420.254	0.0475
420.574	0.0476
420.895	0.0479
421.215	0.0474
421.535	0.0469
421.855	0.0471
422.174	0.0474
422.494	0.0471
422.814	0.047
423.134	0.0473
423.453	0.0473
423.773	0.0471
424.092	0.0476
424.411	0.047
424.731	0.0471
425.05	0.0474
425.369	0.0476
425.688	0.048
426.007	0.047
426.326	0.0474
426.644	0.0473
426.963	0.048
427.282	0.0469
427.6	0.0476
427.919	0.0473
428.237	0.0471
428.556	0.047
428.874	0.0475
429.192	0.0477
429.51	0.0479
429.828	0.0475
430.146	0.0479
430.464	0.0473
430.782	0.0472
431.1	0.0474
431.418	0.0471
431.735	0.0475
432.053	0.0478
432.37	0.0478
432.688	0.0476
433.005	0.0474
433.322	0.0478
433.639	0.0479
433.957	0.048
434.274	0.0476
434.591	0.0473
434.907	0.0471
435.224	0.0474
435.541	0.0475
435.858	0.0481
436.174	0.0481
436.491	0.0475
436.807	0.047
437.124	0.0477
437.44	0.0476
437.756	0.0462
438.072	0.0476
438.388	0.0475
438.704	0.0474
439.02	0.0471
439.336	0.0465
439.652	0.0464
439.968	0.0466
440.283	0.0467
440.599	0.0463
440.914	0.0474
441.23	0.0475
441.545	0.0467
441.86	0.0469
442.175	0.0467
442.491	0.0463
442.806	0.0456
443.121	0.0467
443.435	0.046
443.75	0.0462
444.065	0.0463
444.38	0.0464
444.694	0.0458
445.009	0.046
445.323	0.0465
445.638	0.045
445.952	0.0459
446.266	0.046
446.58	0.0459
446.894	0.0456
447.208	0.0458
447.522	0.0448
447.836	0.0449
448.15	0.0446
448.464	0.0445
448.777	0.0449
449.091	0.0448
449.404	0.0447
449.718	0.044
450.031	0.0436
450.345	0.0432
450.658	0.0441
450.971	0.0438
451.284	0.0436
451.597	0.0429
451.91	0.0431
452.223	0.0433
452.535	0.0427
452.848	0.0433
453.161	0.0422
453.473	0.0425
453.786	0.0423
454.098	0.042
454.411	0.043
454.723	0.0418
455.035	0.0416
455.347	0.0408
455.659	0.0415
455.971	0.0419
456.283	0.0408
456.595	0.0408
456.907	0.0414
457.218	0.0404
457.53	0.04
457.841	0.0399
458.153	0.0401
458.464	0.04
458.776	0.0401
459.087	0.0398
459.398	0.0391
459.709	0.0395
460.02	0.0392
460.331	0.0385
460.642	0.0387
460.953	0.0387
461.263	0.0386
461.574	0.038
461.885	0.0373
462.195	0.0374
462.506	0.0376
462.816	0.0369
463.126	0.038
463.437	0.0368
463.747	0.0359
464.057	0.0356
464.367	0.0361
464.677	0.0356
464.987	0.0356
465.296	0.035
465.606	0.0349
465.916	0.0352
466.225	0.0355
466.535	0.0343
466.844	0.0352
467.154	0.0351
467.463	0.0335
467.772	0.0335
468.081	0.034
468.39	0.033
468.699	0.0326
469.008	0.0326
469.317	0.0318
469.626	0.0312
469.935	0.0309
470.243	0.0318
470.552	0.0317
470.86	0.0314
471.169	0.0308
471.477	0.0302
471.785	0.031
472.093	0.0302
472.402	0.0301
472.71	0.0298
473.018	0.0295
473.326	0.029
473.633	0.0294
473.941	0.0291
474.249	0.0288
474.556	0.0296
474.864	0.0295
475.171	0.0277
475.479	0.0283
475.786	0.0274
476.094	0.0278
476.401	0.0272
476.708	0.0268
477.015	0.0272
477.322	0.0269
477.629	0.0257
477.936	0.0265
478.242	0.0249
478.549	0.0255
478.856	0.0262
479.162	0.0254
479.469	0.0255
479.775	0.0251
480.081	0.0242
480.388	0.0236
480.694	0.0244
481	0.0242
481.306	0.0237
481.612	0.0241
481.918	0.0234
482.224	0.0228
482.53	0.0218
482.835	0.0225
483.141	0.0226
483.446	0.0217
483.752	0.0216
484.057	0.022
484.363	0.0217
484.668	0.0215
484.973	0.0203
485.278	0.0207
485.583	0.0202
485.888	0.0199
486.193	0.0193
486.498	0.0196
486.803	0.0195
487.107	0.0197
487.412	0.0191
487.717	0.019
488.021	0.0181
488.325	0.0188
488.63	0.019
488.934	0.0195
489.238	0.0183
489.542	0.0175
489.846	0.0179
490.15	0.0179
490.454	0.0171
490.758	0.0161
491.062	0.0166
491.366	0.0167
491.669	0.0162
491.973	0.0174
492.276	0.0159
492.58	0.0152
492.883	0.015
493.186	0.0159
493.489	0.0147
493.792	0.0139
494.096	0.0136
494.399	0.0138
494.701	0.0147
495.004	0.0134
495.307	0.0144
495.61	0.0133
495.912	0.0141
496.215	0.0128
496.517	0.0124
496.82	0.0124
497.122	0.012
497.424	0.0131
497.727	0.0115
498.029	0.0113
498.331	0.0118
498.633	0.0124
498.935	0.0118
499.237	0.0112
499.538	0.011
499.84	0.0107
500.142	0.0101
500.443	0.0102
500.745	0.0098
501.046	0.0096
501.348	0.0099
501.649	0.009
501.95	0.0088
502.251	0.0091
502.552	0.0092
502.853	0.0083
503.154	0.009
503.455	0.0086
503.756	0.0085
504.057	0.0091
504.357	0.0079
504.658	0.0082
504.958	0.008
505.259	0.0081
505.559	0.0081
505.859	0.0072
506.16	0.0079
506.46	0.0074
506.76	0.0075
507.06	0.0074
507.36	0.0064
507.66	0.0073
507.96	0.0078
508.259	0.0072
508.559	0.0077
508.859	0.0074
509.158	0.0055
509.457	0.0056
509.757	0.0061
510.056	0.0071
510.355	0.0061
510.655	0.0055
510.954	0.0067
511.253	0.0059
511.552	0.0049
511.851	0.0054
512.149	0.0041
512.448	0.0053
512.747	0.005
513.045	0.0045
513.344	0.0043
513.642	0.0044
513.941	0.0047
514.239	0.0044
514.537	0.0037
514.836	0.0052
515.134	0.0023
515.432	0.0047
515.73	0.0032
516.028	0.0032
516.326	0.0038
516.623	0.0031
516.921	0.0019
517.219	0.003
517.516	0.0034
517.814	0.0027
518.111	0.0031
518.409	0.0019
518.706	0.0031
519.003	0.004
519.3	0.0032
519.597	0.0018
519.894	0.0021
520.191	0.002
520.488	0.003
520.785	0.0017
521.082	0.0024
521.378	0.0016
521.675	0.0016
521.971	0.0019
522.268	0.0022
522.564	0.0022
522.861	0.002
523.157	0.0019
523.453	0.0033
523.749	0.0022
524.045	0.0014
524.341	0.002
524.637	0.0012
524.933	0.001
525.229	0.0012
525.524	-0.0001
525.82	-0.0003
526.115	-0.0003
526.411	0.0014
526.706	0.0011
527.002	0.0009
527.297	0.0003
527.592	0.0011
527.887	0.002
528.182	0.0015
528.477	0.002
528.772	0.0005
529.067	0.0012
529.362	0.0012
529.657	0.0004
529.951	0.0011
530.246	0.0005
530.54	0.0016
530.835	-0.0003
531.129	0.0002
531.423	-0.0001
531.718	0.0004
532.012	0.0007
532.306	-0.0005
532.6	-0.0009
532.894	0.0004
533.188	0.0005
533.482	0.0008
533.775	-0.0005
534.069	0.0002
534.363	-0.0005
534.656	-0.0016
534.95	0.0001
535.243	-0
535.536	-0.0001
535.83	-0.0021
536.123	0
536.416	-0.0005
536.709	-0.0002
537.002	-0.0007
537.295	-0.0002
537.588	-0.0009
537.881	-0.0008
538.173	-0.0005
538.466	-0.0006
538.759	0.0001
539.051	-0.0001
539.344	-0.0007
539.636	0.0001
539.928	-0.0002
540.22	0.0001
540.513	0.0005
540.805	0.0001
541.097	-0.0009
541.389	-0.0004
541.681	0.0005
541.972	0.0006
542.264	0.0007
542.556	0.0001
542.847	0.0012
543.139	0.0008
543.431	0.0001
543.722	0.0004
544.013	0.0003
544.305	-0.0005
544.596	-0.0003
544.887	-0.0002
545.178	0.0005
545.469	-0.0003
545.76	-0
546.051	0.0012
546.342	-0.0001
546.632	-0.0006
546.923	0
547.214	-0.0004
547.504	-0.0009
547.795	-0.0008
548.085	-0.0014
548.375	-0.0007
548.666	-0.0007
548.956	-0.0009
549.246	-0.0002
549.536	-0.0004
549.826	-0.0007
550.116	-0.0008
550.406	-0.0013
550.695	-0.0024
550.985	-0.0004
551.275	-0.0007
551.564	-0.0009
551.854	-0.0011
552.143	-0.0015
552.433	-0.0016
552.722	-0.0019
553.011	-0.0004
553.3	-0.0001
553.589	-0.0009
553.879	-0.0009
554.167	-0.001
554.456	-0.0004
554.745	-0.0009
555.034	-0.0019
555.323	0.0004
555.611	-0.0004
555.9	0.0001
556.188	-0.0008
556.477	0
556.765	-0.0023
557.053	-0.0012
557.342	-0.0008
557.63	-0.0003
557.918	-0.0001
558.206	0.0004
558.494	-0.001
558.782	0.0004
559.069	0.0008
559.357	0.0003
559.645	0.0002
559.932	-0.0001
560.22	-0.0009
560.507	-0.0016
560.795	-0.0019
561.082	-0.0014
561.37	0.0004
561.657	-0.0006
561.944	-0.0008
562.231	-0.001
562.518	-0.0005
562.805	-0.0002
563.092	0.0005
563.379	-0.0002
563.665	0.0008
563.952	-0.0006
564.239	0.0006
564.525	-0.0001
564.811	0.001
565.098	0.0004
565.384	-0.0002
565.67	0.0006
565.957	0.001
566.243	0.0016
566.529	0.0003
566.815	0.0006
567.101	0.001
567.387	0.0008
567.672	0.0001
567.958	0.001
568.244	0.0005
568.529	0.0006
568.815	-0.0004
569.1	-0.0006
569.386	-0.0007
569.671	0.0005
569.956	0.0009
570.242	0.0005
570.527	-0.0004
570.812	0.0009
571.097	0.0006
571.382	-0.0007
571.666	0.0008
571.951	-0.0006
572.236	0.0009
572.521	-0.0001
572.805	-0.0004
573.09	-0.001
573.374	-0.0013
573.659	0.0001
573.943	-0.0007
574.227	-0.0006
574.511	-0.0009
574.795	-0.0009
575.079	0.0001
575.363	-0.0008
575.647	-0.0011
575.931	-0
576.215	-0.0013
576.499	-0.0013
576.782	-0.0011
577.066	-0.0005
577.349	0.0003
577.633	-0.0007
577.916	-0.0012
578.2	-0.0008
578.483	-0.0009
578.766	-0.0001
579.049	-0.0006
579.332	0.0005
579.615	0.0003
579.898	-0.0009
580.181	0.0007
580.464	0.0011
580.746	-0.0007
581.029	-0.0008
581.312	-0.0002
581.594	-0.0008
581.877	-0.0009
582.159	-0.0004
582.441	-0.0009
582.724	-0.0006
583.006	0.0005
583.288	0.0002
583.57	0.0005
583.852	0.0002
584.134	0.0014
584.416	0.0002
584.697	0.0004
584.979	-0.0008
585.261	-0.0009
585.542	-0.0008
585.824	-0.0012
586.105	-0.0014
586.387	-0.002
586.668	-0.0011
586.949	-0.0003
587.231	0.0004
587.512	-0.0005
587.793	0.0004
588.074	-0.0008
588.355	0.0001
588.636	-0.0009
588.916	-0.0012
589.197	-0.0002
589.478	-0.001
589.758	-0.0003
590.039	-0.0001
590.319	0.0004
590.6	0.001
590.88	0.0005
591.16	0.0008
591.441	0.001
591.721	-0.0001
592.001	-0.0007
592.281	-0.0003
592.561	-0.0003
592.841	-0.0008
593.12	-0.0014
593.4	-0.0011
593.68	-0.0022
593.959	-0.0011
594.239	-0.0009
594.518	-0.0004
594.798	0.0005
595.077	-0.0008
595.356	-0.001
595.636	-0.0008
595.915	-0.0008
596.194	-0.0005
596.473	-0.0001
596.752	0.0004
597.031	0.0001
597.31	-0
597.588	-0.0006
597.867	-0.0004
598.146	-0.001
598.424	-0.0003
598.703	0
598.981	-0.0016
599.259	-0.0014
599.538	-0.0007
599.816	-0
600.094	-0.0004
600.372	-0.0018
600.65	-0.0014
600.928	-0.0005
601.206	0.0001
601.484	0.0003
601.762	-0.0001
602.04	-0.0006
602.317	-0.0007
602.595	-0
602.872	0.0001
603.15	0.0011
603.427	-0.0012
603.704	-0.001
603.982	-0.0003
604.259	-0.0002
604.536	0.0001
604.813	-0.0001
605.09	-0.0003
605.367	-0.0008
605.644	-0.0017
605.921	-0.0014
606.197	-0.0016
606.474	-0.0001
606.751	-0.0007
607.027	-0.0011
607.304	-0.0008
607.58	-0.0003
607.856	-0.0006
608.133	-0.0005
608.409	0.0001
608.685	-0.0005
608.961	-0.0006
609.237	-0.0008
609.513	-0.0001
609.789	-0.0014
610.065	-0.0009
610.341	-0.0004
610.616	0.0008
610.892	0.0002
611.167	0.0015
611.443	0.0002
611.718	-0.0003
611.994	-0.0002
612.269	0.0001
612.544	-0.0002
612.819	-0.0012
613.095	-0.0004
613.37	0.0004
613.645	-0.0007
613.919	-0.0006
614.194	0.0007
614.469	0.0015
614.744	-0
615.019	-0.0012
615.293	-0.0013
615.568	-0.0007
615.842	-0.0006
616.116	0.0004
616.391	0.0004
616.665	0.0003
616.939	0.0006
617.213	0.0012
617.488	0.0006
617.762	-0.0006
618.035	-0.0009
618.309	-0.0009
618.583	0.0001
618.857	0.0004
619.131	0.0007
619.404	0.0004
619.678	0.0014
619.951	-0.0003
620.225	-0.0003
620.498	-0.0005
620.771	-0.0001
621.045	-0.0009
621.318	-0.0024
621.591	-0.0019
621.864	-0.0019
622.137	-0.0018
622.41	-0.0026
622.683	-0.0017
622.956	-0.0012
623.228	-0.0004
623.501	0.0001
623.774	-0.0006
624.046	-0.0002
624.319	-0.0015
624.591	-0.001
624.863	-0.0013
625.136	-0.0002
625.408	-0.0002
625.68	0.0008
625.952	0.0004
626.224	0.0001
626.496	0.0001
626.768	0
627.04	-0.0001
627.311	-0.0005
627.583	-0.0008
627.855	0.0012
628.126	0.0008
628.398	0.0012
628.669	0.0018
628.941	0.002
629.212	0.001
629.483	0.0012
629.755	-0.0002
630.026	0.0009
630.297	0.0008
630.568	0.0005
630.839	0.0004
631.11	-0.0003
631.38	0.0007
631.651	0.0012
631.922	0.0006
632.192	0.0001
632.463	-0.0007
632.733	-0.0008
633.004	0.0001
633.274	0.0005
633.545	0.0004
633.815	-0.0004
634.085	-0.001
634.355	-0.0017
634.625	-0.002
634.895	-0.0012
635.165	-0.0008
635.435	-0.0019
635.705	-0.0011
635.974	-0.0023
636.244	-0.0012
636.514	-0.0005
636.783	-0.0016
637.053	-0.0013
637.322	0.0002
637.591	-0.001
637.861	-0.0019
638.13	-0.0021
638.399	-0.0023
638.668	-0.0021
638.937	-0.0018
639.206	-0.0025
639.475	-0.0033
639.744	-0.0033
640.013	-0.0026
640.281	-0.0025
640.55	-0.0023
640.819	-0.0023
641.087	-0.0033
641.356	-0.0018
641.624	-0.0008
641.892	0.0001
642.161	-0.0003
642.429	-0.0021
642.697	-0.001
642.965	-0.0011
643.233	-0.0014
643.501	-0.002
643.769	-0.0009
644.037	-0.0002
644.305	-0.0015
644.572	-0.0024
644.84	-0.0021
645.108	-0.0025
645.375	-0.002
645.643	-0.002
645.91	-0.0002
646.177	0.0004
646.445	-0.0002
646.712	0.002
646.979	0.0016
647.246	0.0039
647.513	0.0031
647.78	0.0013
648.047	-0.0004
648.314	-0.002
648.58	-0.0008
648.847	-0.0016
649.114	-0.0003
649.38	-0.0009
649.647	-0.0006
649.913	-0.001
650.18	-0.0011
650.446	-0.0008
650.712	-0.0016
650.978	-0.0018
651.245	-0.0018
651.511	-0.0018
651.777	-0.0015
652.043	-0.0022
652.309	-0.0005
652.574	0.0009
652.84	0.0012
653.106	0.0006
653.371	0.0007
653.637	0.0013
653.903	0.0015
654.168	0.0013
654.433	0.0022
654.699	0.0017
654.964	0.0029
655.229	0.0009
655.494	-0.0002
655.759	-0.0028
656.024	-0.0003
656.289	-0
656.554	0.0007
656.819	-0.0001
657.084	0.0001
657.349	0.0002
657.613	0.0004
657.878	-0.0005
658.142	-0.0004
658.407	-0.0008
658.671	0.0004
658.936	0.0003
659.2	0.0011
659.464	0.0006
659.728	0.0002
659.992	-0.0004
660.256	-0.0001
660.52	-0
660.784	0.0004
661.048	0.0003
661.312	0.0009
661.575	0.0012
661.839	0.001
662.103	-0.0007
662.366	-0
662.63	-0.0005
662.893	-0.0014
663.156	-0.0011
663.42	-0.002
663.683	-0.0021
663.946	-0.0029
664.209	-0.0028
664.472	-0.0036
664.735	-0.0019
664.998	-0.0005
665.261	-0.0015
665.524	-0.0022
665.786	-0.0009
666.049	-0.0009
666.312	0.0001
666.574	-0.0019
666.837	-0.0014
667.099	-0.0008
667.361	-0.0015
667.624	-0.0021
667.886	-0.0026
668.148	-0.0022
668.41	-0.0013
668.672	-0.0021
668.934	-0.0002
669.196	0.0003
669.458	0.0011
669.72	0.0009
669.982	0.0013
670.243	0.0011
670.505	0.0002
670.766	0.0002
671.028	-0.0003
671.289	-0.0019
671.551	-0.0015
671.812	-0.0025
672.073	-0.0015
672.334	-0.0013
672.596	-0.0022
672.857	-0.0022
673.118	-0.002
673.379	-0.0029
673.639	-0.0027
673.9	-0.0026
674.161	-0.0024
674.422	-0.0035
674.682	-0.0029
674.943	-0.0027
675.203	-0.0026
675.464	-0.0028
675.724	-0.0044
675.985	-0.0038
676.245	-0.0036
676.505	-0.0033
676.765	-0.0034
677.025	-0.0029
677.285	-0.0034
677.545	-0.0014
677.805	-0.0017
678.065	-0.0013
678.325	-0.001
678.585	-0.0022
678.844	-0.0031
679.104	-0.0036
679.363	-0.0046
679.623	-0.0039
679.882	-0.0031
680.142	-0.0028
680.401	-0.0027
680.66	-0.0017
680.919	-0.0002
681.178	-0.001
681.437	-0.0013
681.696	-0.0015
681.955	-0.0006
682.214	-0.001
682.473	-0.0023
682.732	-0.0028
682.99	-0.0021
683.249	-0.0017
683.508	-0.0014
683.766	-0.002
684.024	-0.0019
684.283	-0.0009
684.541	-0.0017
684.799	-0.0016
685.058	-0.0009
685.316	-0.0014
685.574	-0.001
685.832	-0.002
686.09	-0.002
686.348	-0.0037
686.606	-0.0035
686.863	-0.0032
687.121	-0.0024
687.379	-0.0024
687.636	-0.002
687.894	-0.0007
688.151	-0.0009
688.409	-0.0009
688.666	-0.0025
688.923	-0.0037
689.181	-0.0032
689.438	-0.0038
689.695	-0.0035
689.952	-0.0045
690.209	-0.0038
690.466	-0.0042
690.723	-0.003
690.979	-0.0016
691.236	-0.003
691.493	-0.0023
691.75	-0.0016
692.006	-0.0013
692.263	-0.0023
692.519	-0.0029
692.775	-0.002
693.032	-0.0023
693.288	-0.0014
693.544	-0.0011
693.8	-0.0014
694.056	-0.0011
694.313	-0.0016
694.568	-0.0008
694.824	-0.0023
695.08	-0.0018
695.336	-0.0029
695.592	-0.0033
695.847	-0.002
696.103	-0.002
696.359	-0.0023
696.614	-0.0024
696.869	-0.0031
697.125	-0.0039
697.38	-0.0026
697.635	-0.002
697.891	-0.0014
698.146	-0.001
698.401	-0.0022
698.656	-0.0021
698.911	-0.0017
699.166	-0.0014
699.42	-0.001
699.675	-0.0009
699.93	-0.0007
700.185	-0.0015
700.439	-0.0015
700.694	-0.0012
700.948	-0.0012
701.203	-0.0022
701.457	-0.0022
701.711	-0.0036
701.965	-0.0033
702.22	-0.002
702.474	-0.0029
702.728	-0.0022
702.982	-0.0026
703.236	-0.0011
703.49	-0.0006
703.743	-0.0013
703.997	-0.0015
704.251	-0.0019
704.504	-0.0019
704.758	-0.0026
705.012	-0.0022
705.265	-0.0014
705.518	-0.0002
705.772	-0.0011
706.025	-0.0011
706.278	-0.0021
706.531	-0.0026
706.785	-0.0024
707.038	-0.0029
707.291	-0.0033
707.543	-0.0031
707.796	-0.0031
708.049	-0.0038
708.302	-0.0036
708.555	-0.0032
708.807	-0.0027
709.06	-0.0036
709.312	-0.0022
709.565	-0.0025
709.817	-0.0034
710.069	-0.0036
710.322	-0.0036
710.574	-0.0048
710.826	-0.0039
711.078	-0.0042
711.33	-0.0032
711.582	-0.0052
711.834	-0.0046
712.086	-0.0055
712.338	-0.0057
712.59	-0.0055
712.841	-0.0064
713.093	-0.0056
713.344	-0.0058
713.596	-0.0057
713.847	-0.0045
714.099	-0.0048
714.35	-0.0046
714.601	-0.0047
714.853	-0.0034
715.104	-0.004
715.355	-0.0035
715.606	-0.0041
715.857	-0.0031
716.108	-0.0042
716.359	-0.0036
716.609	-0.0048
716.86	-0.0038
717.111	-0.0037
717.361	-0.0028
717.612	-0.0016
717.863	-0.0007
718.113	0.0002
718.363	-0.0009
718.614	0.0008
718.864	0.0008
719.114	0.0002
719.364	-0
719.614	-0.0005
719.865	0.0006
720.114	0.0007
720.364	0.001
720.614	0.0012
720.864	0.0004
721.114	0.0004
721.364	-0.0001
721.613	0.0003
721.863	-0.0003
722.112	-0.0005
722.362	-0.0017
722.611	-0.0024
722.86	-0.0024
723.11	-0.0021
723.359	-0.0024
723.608	-0.002
723.857	-0.0022
724.106	-0.0015
724.355	-0.0017
724.604	-0.0012
724.853	-0.0017
725.102	-0.0029
725.351	-0.0028
725.599	-0.0037
725.848	-0.0041
726.097	-0.0029
726.345	-0.0041
726.594	-0.0053
726.842	-0.0043
727.09	-0.0057
727.339	-0.0061
727.587	-0.0056
727.835	-0.0058
728.083	-0.0044
728.331	-0.0046
728.579	-0.0041
728.827	-0.0033
729.075	-0.0038
729.323	-0.0034
729.571	-0.0034
729.818	-0.0036
730.066	-0.0032
730.314	-0.003
730.561	-0.0011
730.809	-0.0012
731.056	-0.0011
731.303	-0.0005
731.551	-0.0011
731.798	-0.0011
732.045	-0.0013
732.292	-0.0001
732.539	-0.0006
732.786	0.0007
733.033	-0.0001
733.28	-0
733.527	0.0001
733.774	-0.0005
734.021	-0.0023
734.267	-0.0024
734.514	-0.0036
734.76	-0.0033
735.007	-0.003
735.253	-0.004
735.5	-0.0032
735.746	-0.0031
735.992	-0.0027
736.238	-0.0033
736.485	-0.0025
736.731	-0.0021
736.977	-0.0033
737.223	-0.0027
737.469	-0.0025
737.715	-0.0013
737.96	-0.002
738.206	-0.0036
738.452	-0.0025
738.697	-0.0022
738.943	-0.0015
739.189	-0.0021
739.434	-0.002
739.679	-0.0033
739.925	-0.0029
740.17	-0.0046
740.415	-0.0054
740.66	-0.0055
740.906	-0.0065
741.151	-0.0056
741.396	-0.0056
741.641	-0.0063
741.886	-0.0066
742.13	-0.0038
742.375	-0.0037
742.62	-0.004
742.865	-0.0037
743.109	-0.0011
743.354	-0.0007
743.598	-0.0005
743.843	0.0003
744.087	0.0015
744.331	0.001
744.576	0.002
744.82	0.0021
745.064	0.0023
745.308	0.0021
745.552	0.002
745.796	0.0005
746.04	0.0007
746.284	0.0008
746.528	0.0017
746.771	0.0025
747.015	0.0024
747.259	0.0009
747.502	0
747.746	-0.0001
747.989	-0.0002
748.233	-0.0013
748.476	0.0008
748.719	0.0018
748.963	0.0019
749.206	0.0029
749.449	0.0003
749.692	0.0011
749.935	0.001
750.178	-0.0003
750.421	-0.0012
750.664	-0.0007
750.906	0.0006
751.149	0.0005
751.392	0.0001
751.635	-0.0018
751.877	-0.0007
752.12	-0.0009
752.362	-0.0014
752.604	-0.0009
752.847	0.0007
753.089	0.0008
753.331	0.0006
753.573	0.0004
753.816	-0.0014
754.058	-0.0021
754.3	-0.0029
754.542	-0.003
754.783	-0.0033
755.025	-0.0023
755.267	-0.0013
755.509	-0.0015
755.75	-0.0028
755.992	-0.0021
756.234	-0.0031
756.475	-0.0034
756.716	-0.0032
756.958	-0.0026
757.199	-0.0024
757.44	-0.0022
757.682	-0.0023
757.923	-0.0007
758.164	-0.0002
758.405	-0.0007
758.646	0.0014
758.887	0.0006
759.128	0.0005
759.369	-0.0005
759.609	0.0009
759.85	0.0003
760.091	0.0007
760.331	-0.0001
760.572	-0.0009
760.812	-0.0012
761.053	-0.0016
761.293	-0.0008
761.533	-0.0003
761.774	0.0006
762.014	0.0002
762.254	0
762.494	-0.0014
762.734	-0.0014
762.974	-0.0028
763.214	-0.0016
763.454	-0.0023
763.694	-0.0027
763.933	-0.0028
764.173	-0.0051
764.413	-0.0054
764.652	-0.0053
764.892	-0.0045
765.131	-0.0042
765.371	-0.0037
765.61	-0.0037
765.849	-0.0037
766.089	-0.003
766.328	-0.0029
766.567	-0.0033
766.806	-0.0034
767.045	-0.0027
767.284	-0.0032
767.523	-0.003
767.762	-0.0037
768.001	-0.0033
768.239	-0.0031
768.478	-0.0018
768.717	-0.0021
768.955	-0.0018
769.194	-0.0019
769.432	-0.0008
769.671	0.0003
769.909	0
770.148	0.0008
770.386	0.0003
770.624	0.0008
770.862	0.0013
771.1	0.0016
771.338	0.0012
771.576	0.0008
771.814	0.0007
772.052	0.0013
772.29	0.0024
772.528	0.003
772.765	0.0041
773.003	0.0037
773.24	0.0038
773.478	0.0016
773.716	0.002
773.953	0.0007
774.19	0.0016
774.428	0.003
774.665	0.0023
774.902	0.003
775.139	0.0033
775.376	0.0026
775.613	0.0029
775.85	0.0021
776.087	0.0009
776.324	0.002
776.561	0.0011
776.798	0.0004
777.034	0.0003
777.271	0.0011
777.508	0.0016
777.744	0.0025
777.981	0.0028
778.217	0.0026
778.454	0.0018
778.69	0.0004
778.926	-0.0007
779.162	-0.0004
779.399	-0.0007
779.635	-0.0011
779.871	-0.0017
780.107	-0.001
780.343	-0.0017
780.579	-0.001
780.814	-0.0013
781.05	-0.0012
781.286	-0.0023
781.522	-0.0021
781.757	-0.0015
781.993	-0.0016
782.228	-0.0025
782.464	-0.0008
782.699	-0.0019
782.934	-0.0025
783.17	-0.0019
783.405	-0.0022
783.64	-0.0026
783.875	-0.0038
784.11	-0.0034
784.345	-0.0031
784.58	-0.0019
784.815	-0.0014
785.05	-0.0031
785.285	-0.0038
785.52	-0.0036
785.754	-0.0049
785.989	-0.0041
786.223	-0.0058
786.458	-0.0058
786.692	-0.0048
786.927	-0.0042
787.161	-0.0032
787.396	-0.0043
787.63	-0.0046
787.864	-0.0054
788.098	-0.0063
788.332	-0.0055
788.566	-0.004
788.8	-0.0041
789.034	-0.003
789.268	-0.004
789.502	-0.0027
789.736	-0.0028
789.969	-0.0033
790.203	-0.0045
790.437	-0.0054
790.67	-0.0059
790.904	-0.0073
791.137	-0.0077
791.37	-0.0067
791.604	-0.0077
791.837	-0.0078
792.07	-0.0063
792.303	-0.0068
792.537	-0.0064
792.77	-0.0066
793.003	-0.0056
793.236	-0.0054
793.469	-0.0052
793.701	-0.0044
793.934	-0.0032
794.167	-0.002
794.4	-0.003
794.632	-0.0011
794.865	-0.001
795.097	-0.0012
795.33	-0.0026
795.562	-0.0012
795.795	-0.0012
796.027	-0.0002
796.259	-0.0006
796.491	-0.0002
796.724	-0.0004
796.956	0.0014
797.188	-0.0001
797.42	-0.0004
797.652	-0.0005
797.883	0.0002
798.115	0.0009
798.347	-0.0004
798.579	0.0017
798.81	0.0015
799.042	0.0019
799.274	0.0017
799.505	0.0009
799.737	0.0013
799.968	-0.0004
800.199	-0.0006
800.431	-0.0015
800.662	-0.0011
800.893	-0.002
801.124	-0.0024
801.355	-0.0021
801.586	-0.0022
801.817	-0.0034
802.048	-0.0043
802.279	-0.0038
802.51	-0.0022
802.741	-0.0013
802.971	-0.0004
803.202	0.0006
803.433	-0.0002
803.663	-0.0013
803.894	-0.0021
804.124	-0.0031
804.354	-0.0021
804.585	-0.0023
804.815	-0.0018
805.045	-0.0023
805.275	-0.0016
805.506	-0.0499
805.736	0.0382
805.966	0.1657
806.196	0.0705
