Data from 03 0.5 mM K2Cr2O7 0.3 mM BQDS 1 M H2SO4 5 min_Absorbance_0070.txt Node
Date: Mon Dec 13 23:29:45 EST 2021
User: kwabilab-user
Spectrometer: HDX00518
Trigger mode: 0
Integration Time (sec): 5.000000E-2
Scans to average: 50
Nonlinearity correction enabled: false
Boxcar width: 0
Storing dark spectrum: false
XAxis mode: Wavelengths
Number of Pixels in Spectrum: 2068
>>>>>Begin Spectral Data<<<<<
195.27	0.032
195.642	0.2137
196.014	0.0688
196.386	0.0467
196.758	0.0087
197.129	-0.0066
197.501	-0.0111
197.872	0.01
198.244	0.0441
198.615	0.04
198.986	0.0442
199.357	0.0479
199.728	0.0289
200.099	0.0498
200.47	0.0435
200.841	0.0279
201.212	0.0508
201.582	0.044
201.953	0.0382
202.323	0.0513
202.694	0.0463
203.064	0.0272
203.434	0.0558
203.804	0.0255
204.174	0.0442
204.544	0.0397
204.914	0.0408
205.284	0.0579
205.653	0.0302
206.023	0.0439
206.393	0.0097
206.762	0.0349
207.131	0.0654
207.501	0.0347
207.87	0.0401
208.239	0.0504
208.608	0.0319
208.977	0.0248
209.346	0.0307
209.715	0.0473
210.083	0.0325
210.452	0.0286
210.82	0.0382
211.189	0.0222
211.557	0.0517
211.925	0.0084
212.294	0.0398
212.662	0.0429
213.03	0.0479
213.398	0.0495
213.766	0.0698
214.133	0.0583
214.501	0.0617
214.869	0.0527
215.236	0.0465
215.604	0.046
215.971	0.0456
216.338	0.0625
216.705	0.0723
217.072	0.0684
217.439	0.0616
217.806	0.0849
218.173	0.0653
218.54	0.0762
218.907	0.0775
219.273	0.1065
219.64	0.0942
220.006	0.1206
220.373	0.1031
220.739	0.1215
221.105	0.136
221.471	0.1522
221.837	0.1637
222.203	0.1917
222.569	0.2095
222.935	0.2157
223.3	0.2188
223.666	0.2752
224.031	0.2721
224.397	0.3038
224.762	0.3141
225.127	0.3493
225.493	0.3944
225.858	0.4
226.223	0.4288
226.588	0.4409
226.952	0.4561
227.317	0.4889
227.682	0.4975
228.046	0.5001
228.411	0.5372
228.775	0.54
229.14	0.5631
229.504	0.5761
229.868	0.6036
230.232	0.6024
230.596	0.619
230.96	0.6218
231.324	0.6323
231.688	0.6368
232.052	0.6663
232.415	0.6594
232.779	0.6659
233.142	0.6635
233.505	0.6687
233.869	0.699
234.232	0.6838
234.595	0.6786
234.958	0.6885
235.321	0.6955
235.684	0.6883
236.047	0.7035
236.409	0.6818
236.772	0.6903
237.134	0.6933
237.497	0.7102
237.859	0.7152
238.222	0.6891
238.584	0.6951
238.946	0.6912
239.308	0.6897
239.67	0.6802
240.032	0.6882
240.393	0.6892
240.755	0.6832
241.117	0.6815
241.478	0.6906
241.84	0.6849
242.201	0.6782
242.562	0.6751
242.924	0.6671
243.285	0.6667
243.646	0.6799
244.007	0.6689
244.368	0.6744
244.728	0.6674
245.089	0.6608
245.45	0.6637
245.81	0.6694
246.171	0.6682
246.531	0.6587
246.891	0.6651
247.252	0.6654
247.612	0.6633
247.972	0.6702
248.332	0.6677
248.692	0.6575
249.051	0.6651
249.411	0.6676
249.771	0.6516
250.13	0.6554
250.49	0.6582
250.849	0.6632
251.208	0.6595
251.568	0.6631
251.927	0.658
252.286	0.6615
252.645	0.6547
253.004	0.6657
253.363	0.6537
253.721	0.6608
254.08	0.6583
254.439	0.6576
254.797	0.6485
255.155	0.6479
255.514	0.6581
255.872	0.6564
256.23	0.6503
256.588	0.6563
256.946	0.652
257.304	0.6569
257.662	0.6468
258.02	0.6537
258.377	0.6484
258.735	0.6426
259.093	0.6412
259.45	0.6414
259.807	0.64
260.165	0.6399
260.522	0.6419
260.879	0.6387
261.236	0.6352
261.593	0.6352
261.95	0.6343
262.306	0.6347
262.663	0.627
263.02	0.6292
263.376	0.6269
263.733	0.6274
264.089	0.6199
264.445	0.616
264.802	0.6178
265.158	0.6173
265.514	0.6111
265.87	0.6082
266.226	0.6071
266.581	0.6096
266.937	0.6078
267.293	0.6006
267.648	0.5944
268.004	0.5914
268.359	0.5952
268.714	0.5872
269.07	0.5886
269.425	0.581
269.78	0.5803
270.135	0.5755
270.49	0.5758
270.844	0.5725
271.199	0.5698
271.554	0.5654
271.908	0.5606
272.263	0.5623
272.617	0.5548
272.972	0.5517
273.326	0.546
273.68	0.5427
274.034	0.5379
274.388	0.5377
274.742	0.537
275.096	0.5275
275.45	0.5265
275.803	0.5211
276.157	0.5137
276.51	0.5132
276.864	0.5132
277.217	0.5075
277.571	0.5048
277.924	0.5006
278.277	0.496
278.63	0.4899
278.983	0.4829
279.336	0.4763
279.688	0.4778
280.041	0.4686
280.394	0.4718
280.746	0.4656
281.099	0.4567
281.451	0.4523
281.803	0.4501
282.156	0.4444
282.508	0.4405
282.86	0.4388
283.212	0.4304
283.564	0.424
283.916	0.423
284.267	0.4169
284.619	0.4133
284.971	0.4096
285.322	0.4035
285.673	0.3981
286.025	0.3921
286.376	0.3912
286.727	0.3863
287.078	0.3827
287.429	0.3765
287.78	0.3743
288.131	0.3676
288.482	0.3634
288.833	0.3567
289.183	0.354
289.534	0.3496
289.884	0.3469
290.235	0.3418
290.585	0.338
290.935	0.3312
291.285	0.3269
291.635	0.3252
291.985	0.3203
292.335	0.3156
292.685	0.3141
293.035	0.3086
293.384	0.3036
293.734	0.3003
294.083	0.2941
294.433	0.2902
294.782	0.2868
295.131	0.281
295.48	0.2776
295.829	0.2745
296.179	0.272
296.527	0.2655
296.876	0.2634
297.225	0.2603
297.574	0.2548
297.922	0.2512
298.271	0.2483
298.619	0.2432
298.968	0.2398
299.316	0.2367
299.664	0.2337
300.012	0.2308
300.36	0.2274
300.708	0.2235
301.056	0.2206
301.404	0.2176
301.752	0.2156
302.099	0.2117
302.447	0.21
302.794	0.206
303.142	0.2037
303.489	0.2007
303.836	0.1996
304.183	0.1965
304.531	0.1945
304.878	0.192
305.224	0.1904
305.571	0.1877
305.918	0.1853
306.265	0.1847
306.611	0.182
306.958	0.1817
307.304	0.1785
307.651	0.1774
307.997	0.1768
308.343	0.1761
308.689	0.1747
309.035	0.1726
309.381	0.1711
309.727	0.1714
310.073	0.1708
310.419	0.1703
310.764	0.1677
311.11	0.167
311.455	0.1675
311.801	0.167
312.146	0.1661
312.491	0.1659
312.837	0.1659
313.182	0.1654
313.527	0.1653
313.872	0.1654
314.216	0.1648
314.561	0.165
314.906	0.1651
315.251	0.165
315.595	0.1657
315.94	0.1658
316.284	0.1667
316.628	0.1663
316.972	0.1681
317.317	0.1681
317.661	0.1685
318.005	0.1693
318.348	0.1707
318.692	0.1713
319.036	0.1712
319.38	0.1721
319.723	0.1731
320.067	0.1746
320.41	0.1761
320.754	0.1767
321.097	0.178
321.44	0.1787
321.783	0.1807
322.126	0.1823
322.469	0.1833
322.812	0.1837
323.155	0.1853
323.498	0.187
323.84	0.1883
324.183	0.1908
324.525	0.1918
324.868	0.1937
325.21	0.1943
325.552	0.1969
325.894	0.1978
326.236	0.1996
326.578	0.2011
326.92	0.2029
327.262	0.2043
327.604	0.2058
327.946	0.208
328.287	0.2097
328.629	0.2122
328.97	0.2132
329.312	0.2145
329.653	0.2169
329.994	0.2184
330.335	0.2204
330.676	0.2227
331.017	0.2245
331.358	0.226
331.699	0.2285
332.04	0.2297
332.38	0.2312
332.721	0.2326
333.061	0.2348
333.402	0.2374
333.742	0.2388
334.083	0.2413
334.423	0.2417
334.763	0.2438
335.103	0.2447
335.443	0.2461
335.783	0.2481
336.123	0.249
336.462	0.2507
336.802	0.2533
337.141	0.254
337.481	0.2553
337.82	0.2576
338.16	0.2587
338.499	0.2606
338.838	0.2612
339.177	0.2636
339.516	0.2641
339.855	0.2662
340.194	0.2678
340.533	0.2689
340.872	0.2696
341.21	0.2708
341.549	0.2718
341.887	0.2728
342.226	0.2742
342.564	0.2752
342.902	0.2756
343.24	0.2756
343.578	0.2767
343.916	0.2773
344.254	0.2784
344.592	0.2777
344.93	0.2781
345.268	0.2781
345.605	0.2785
345.943	0.2795
346.28	0.2797
346.618	0.2803
346.955	0.2802
347.292	0.2805
347.629	0.2803
347.966	0.2801
348.303	0.2815
348.64	0.2823
348.977	0.2813
349.314	0.2822
349.65	0.2816
349.987	0.2818
350.324	0.2823
350.66	0.2816
350.996	0.2809
351.333	0.2807
351.669	0.2804
352.005	0.279
352.341	0.2785
352.677	0.2774
353.013	0.2768
353.349	0.2754
353.685	0.2744
354.02	0.273
354.356	0.2714
354.691	0.2711
355.027	0.2694
355.362	0.2691
355.697	0.2678
356.033	0.2669
356.368	0.2659
356.703	0.2648
357.038	0.2644
357.373	0.2619
357.707	0.2618
358.042	0.2603
358.377	0.26
358.711	0.2584
359.046	0.2571
359.38	0.2561
359.715	0.2553
360.049	0.2539
360.383	0.2526
360.717	0.2506
361.051	0.2494
361.385	0.2486
361.719	0.245
362.053	0.2436
362.387	0.2417
362.72	0.2405
363.054	0.238
363.387	0.2363
363.721	0.2342
364.054	0.2323
364.387	0.2308
364.721	0.2284
365.054	0.2261
365.387	0.2245
365.72	0.2223
366.053	0.2207
366.385	0.2184
366.718	0.2173
367.051	0.2158
367.383	0.2137
367.716	0.2121
368.048	0.2121
368.381	0.2095
368.713	0.2079
369.045	0.2067
369.377	0.2037
369.709	0.204
370.041	0.2017
370.373	0.2005
370.705	0.1979
371.037	0.1959
371.368	0.1948
371.7	0.1937
372.031	0.1913
372.363	0.1893
372.694	0.1868
373.025	0.1846
373.356	0.1822
373.688	0.1805
374.019	0.1771
374.35	0.1756
374.68	0.1732
375.011	0.1707
375.342	0.1687
375.673	0.1669
376.003	0.1647
376.334	0.1629
376.664	0.1603
376.995	0.1591
377.325	0.1565
377.655	0.155
377.985	0.1531
378.315	0.1519
378.645	0.1503
378.975	0.1493
379.305	0.1471
379.635	0.1459
379.964	0.1459
380.294	0.1425
380.623	0.1421
380.953	0.1408
381.282	0.138
381.611	0.1371
381.941	0.1353
382.27	0.1338
382.599	0.1315
382.928	0.1301
383.257	0.1296
383.585	0.1273
383.914	0.1262
384.243	0.1237
384.571	0.1216
384.9	0.1193
385.228	0.1182
385.557	0.1161
385.885	0.114
386.213	0.1128
386.541	0.1114
386.869	0.1088
387.197	0.107
387.525	0.105
387.853	0.104
388.181	0.1017
388.508	0.1001
388.836	0.0987
389.164	0.0967
389.491	0.0957
389.818	0.0949
390.146	0.0935
390.473	0.0918
390.8	0.0911
391.127	0.0886
391.454	0.0878
391.781	0.0864
392.108	0.0855
392.435	0.0842
392.761	0.0831
393.088	0.082
393.415	0.0808
393.741	0.0803
394.067	0.0794
394.394	0.0789
394.72	0.0768
395.046	0.0759
395.372	0.0758
395.698	0.075
396.024	0.0735
396.35	0.0726
396.676	0.071
397.001	0.0704
397.327	0.0692
397.653	0.0678
397.978	0.0668
398.303	0.0659
398.629	0.0638
398.954	0.0638
399.279	0.063
399.604	0.0623
399.929	0.0621
400.254	0.0608
400.579	0.0605
400.904	0.0587
401.229	0.0585
401.553	0.058
401.878	0.0575
402.202	0.0565
402.527	0.0557
402.851	0.0551
403.175	0.0546
403.5	0.0544
403.824	0.0536
404.148	0.0532
404.472	0.0522
404.796	0.0517
405.119	0.0517
405.443	0.0512
405.767	0.0504
406.09	0.0501
406.414	0.0504
406.737	0.0496
407.061	0.0493
407.384	0.05
407.707	0.0489
408.03	0.0483
408.353	0.0492
408.676	0.0485
408.999	0.048
409.322	0.0483
409.645	0.0474
409.968	0.047
410.29	0.0475
410.613	0.0481
410.935	0.0473
411.258	0.0467
411.58	0.0466
411.902	0.0475
412.224	0.0464
412.546	0.0461
412.868	0.0459
413.19	0.0466
413.512	0.0461
413.834	0.0455
414.156	0.0461
414.477	0.0461
414.799	0.0458
415.121	0.0466
415.442	0.0458
415.763	0.0459
416.085	0.0456
416.406	0.0455
416.727	0.0455
417.048	0.0454
417.369	0.0452
417.69	0.0456
418.011	0.0452
418.331	0.0456
418.652	0.0453
418.973	0.0454
419.293	0.0452
419.614	0.0455
419.934	0.0459
420.254	0.0454
420.574	0.0454
420.895	0.0456
421.215	0.0452
421.535	0.0454
421.855	0.0449
422.174	0.0454
422.494	0.0446
422.814	0.0451
423.134	0.0455
423.453	0.0453
423.773	0.0453
424.092	0.0453
424.411	0.0452
424.731	0.0457
425.05	0.0455
425.369	0.0457
425.688	0.0451
426.007	0.0456
426.326	0.0452
426.644	0.0457
426.963	0.0457
427.282	0.0454
427.6	0.0451
427.919	0.0449
428.237	0.0452
428.556	0.0454
428.874	0.0449
429.192	0.0463
429.51	0.0458
429.828	0.0459
430.146	0.0456
430.464	0.0449
430.782	0.0458
431.1	0.0457
431.418	0.0452
431.735	0.0452
432.053	0.0464
432.37	0.0458
432.688	0.046
433.005	0.0461
433.322	0.0461
433.639	0.0462
433.957	0.0462
434.274	0.0457
434.591	0.045
434.907	0.0454
435.224	0.0453
435.541	0.0451
435.858	0.0457
436.174	0.0458
436.491	0.045
436.807	0.0447
437.124	0.0451
437.44	0.0458
437.756	0.0452
438.072	0.0466
438.388	0.0456
438.704	0.0447
439.02	0.0456
439.336	0.0447
439.652	0.045
439.968	0.0451
440.283	0.0442
440.599	0.0443
440.914	0.0453
441.23	0.0451
441.545	0.0446
441.86	0.0446
442.175	0.0455
442.491	0.0453
442.806	0.0446
443.121	0.0446
443.435	0.044
443.75	0.0436
444.065	0.044
444.38	0.0439
444.694	0.0447
445.009	0.0443
445.323	0.0444
445.638	0.0432
445.952	0.0446
446.266	0.0434
446.58	0.044
446.894	0.0438
447.208	0.0435
447.522	0.043
447.836	0.0436
448.15	0.0429
448.464	0.0433
448.777	0.0432
449.091	0.0423
449.404	0.0426
449.718	0.0425
450.031	0.0418
450.345	0.0423
450.658	0.0427
450.971	0.0419
451.284	0.0423
451.597	0.0414
451.91	0.0419
452.223	0.0417
452.535	0.0408
452.848	0.0417
453.161	0.0411
453.473	0.0407
453.786	0.0404
454.098	0.0402
454.411	0.0412
454.723	0.0401
455.035	0.04
455.347	0.0394
455.659	0.0397
455.971	0.0408
456.283	0.04
456.595	0.0396
456.907	0.0394
457.218	0.0391
457.53	0.0381
457.841	0.0387
458.153	0.039
458.464	0.0386
458.776	0.0385
459.087	0.0383
459.398	0.0389
459.709	0.0381
460.02	0.038
460.331	0.0372
460.642	0.0374
460.953	0.0369
461.263	0.0361
461.574	0.036
461.885	0.0365
462.195	0.0364
462.506	0.036
462.816	0.0358
463.126	0.0355
463.437	0.0355
463.747	0.0349
464.057	0.0348
464.367	0.0345
464.677	0.034
464.987	0.0335
465.296	0.034
465.606	0.0329
465.916	0.0334
466.225	0.0331
466.535	0.0338
466.844	0.0329
467.154	0.0329
467.463	0.0321
467.772	0.0326
468.081	0.0325
468.39	0.0315
468.699	0.0314
469.008	0.0315
469.317	0.0312
469.626	0.0298
469.935	0.0295
470.243	0.0301
470.552	0.0303
470.86	0.0305
471.169	0.03
471.477	0.03
471.785	0.0298
472.093	0.0298
472.402	0.029
472.71	0.0291
473.018	0.0283
473.326	0.0272
473.633	0.0283
473.941	0.0283
474.249	0.0272
474.556	0.0286
474.864	0.0277
475.171	0.0271
475.479	0.0269
475.786	0.0265
476.094	0.0266
476.401	0.026
476.708	0.026
477.015	0.0266
477.322	0.0254
477.629	0.025
477.936	0.0251
478.242	0.0241
478.549	0.0255
478.856	0.0248
479.162	0.0246
479.469	0.0242
479.775	0.0245
480.081	0.0234
480.388	0.0233
480.694	0.023
481	0.0226
481.306	0.0227
481.612	0.0225
481.918	0.0224
482.224	0.0219
482.53	0.0216
482.835	0.0224
483.141	0.0215
483.446	0.0214
483.752	0.0209
484.057	0.0207
484.363	0.0207
484.668	0.0196
484.973	0.0185
485.278	0.0196
485.583	0.0194
485.888	0.0192
486.193	0.0184
486.498	0.0188
486.803	0.0184
487.107	0.0189
487.412	0.0177
487.717	0.0182
488.021	0.0183
488.325	0.0181
488.63	0.018
488.934	0.0178
489.238	0.0173
489.542	0.0163
489.846	0.0173
490.15	0.0167
490.454	0.016
490.758	0.0157
491.062	0.016
491.366	0.016
491.669	0.0156
491.973	0.0153
492.276	0.0148
492.58	0.0145
492.883	0.0143
493.186	0.0142
493.489	0.0142
493.792	0.0129
494.096	0.0137
494.399	0.0132
494.701	0.0137
495.004	0.0127
495.307	0.0135
495.61	0.012
495.912	0.0134
496.215	0.0121
496.517	0.0122
496.82	0.0126
497.122	0.011
497.424	0.0122
497.727	0.0114
498.029	0.0101
498.331	0.0118
498.633	0.0115
498.935	0.0113
499.237	0.0104
499.538	0.0094
499.84	0.0103
500.142	0.0099
500.443	0.0095
500.745	0.0092
501.046	0.0087
501.348	0.0092
501.649	0.0085
501.95	0.0086
502.251	0.0087
502.552	0.0083
502.853	0.0082
503.154	0.0081
503.455	0.009
503.756	0.0081
504.057	0.0087
504.357	0.0068
504.658	0.0084
504.958	0.0084
505.259	0.0075
505.559	0.0072
505.859	0.0066
506.16	0.0073
506.46	0.0065
506.76	0.0069
507.06	0.0071
507.36	0.0065
507.66	0.0071
507.96	0.0068
508.259	0.006
508.559	0.0067
508.859	0.0065
509.158	0.0057
509.457	0.0061
509.757	0.006
510.056	0.0059
510.355	0.0062
510.655	0.0054
510.954	0.006
511.253	0.0055
511.552	0.0052
511.851	0.0053
512.149	0.0032
512.448	0.0047
512.747	0.0045
513.045	0.0046
513.344	0.0034
513.642	0.0044
513.941	0.0039
514.239	0.0043
514.537	0.0036
514.836	0.0042
515.134	0.002
515.432	0.0041
515.73	0.0041
516.028	0.0027
516.326	0.0031
516.623	0.0037
516.921	0.0016
517.219	0.0029
517.516	0.003
517.814	0.0027
518.111	0.0026
518.409	0.0017
518.706	0.0023
519.003	0.0029
519.3	0.002
519.597	0.0019
519.894	0.0032
520.191	0.0023
520.488	0.0025
520.785	0.0019
521.082	0.0021
521.378	0.0018
521.675	0.002
521.971	0.001
522.268	0.0024
522.564	0.0015
522.861	0.002
523.157	0.0022
523.453	0.0035
523.749	0.0011
524.045	0.0019
524.341	0.0023
524.637	0.0011
524.933	0.0008
525.229	0.0017
525.524	-0.0004
525.82	0.0001
526.115	-0.0002
526.411	0.0002
526.706	0.0016
527.002	0.0015
527.297	-0.0004
527.592	0.0006
527.887	0.0022
528.182	0.0004
528.477	0.002
528.772	0.0018
529.067	0.0016
529.362	0.0013
529.657	0.0003
529.951	0.0012
530.246	0.0002
530.54	0.0013
530.835	-0.0001
531.129	-0.0007
531.423	-0.001
531.718	0.0013
532.012	0
532.306	0.0002
532.6	-0.0013
532.894	-0.0004
533.188	0.0007
533.482	0.0007
533.775	0.0003
534.069	0.0001
534.363	-0.0009
534.656	-0.0013
534.95	0.0012
535.243	-0.0007
535.536	0.0009
535.83	-0.0009
536.123	-0.0003
536.416	0.0001
536.709	0.0001
537.002	-0.0005
537.295	0.0004
537.588	-0.0007
537.881	0.0001
538.173	-0.0007
538.466	-0.0006
538.759	-0.0007
539.051	0.0011
539.344	-0.0008
539.636	-0.0004
539.928	0.0008
540.22	0.0002
540.513	-0.0003
540.805	0.0007
541.097	-0.0008
541.389	-0.0006
541.681	0.0003
541.972	-0.0005
542.264	-0.0006
542.556	-0.0017
542.847	0.0003
543.139	-0.0009
543.431	-0.0013
543.722	-0.0003
544.013	-0.0005
544.305	-0.0006
544.596	-0.0014
544.887	-0.0005
545.178	-0.0011
545.469	-0.0016
545.76	-0.0013
546.051	-0.0002
546.342	-0.0011
546.632	-0.0021
546.923	-0.0002
547.214	-0.0005
547.504	-0.0009
547.795	-0.0014
548.085	-0.0015
548.375	-0.0007
548.666	-0.0005
548.956	-0.0012
549.246	-0.002
549.536	-0.0012
549.826	-0.0018
550.116	-0.0009
550.406	-0.0012
550.695	-0.0026
550.985	-0.0006
551.275	-0.0017
551.564	-0.0014
551.854	-0.0012
552.143	-0.0014
552.433	-0.002
552.722	-0.0027
553.011	-0.0007
553.3	-0.0003
553.589	-0.0009
553.879	-0.0007
554.167	-0.0009
554.456	0.0004
554.745	0.0007
555.034	-0.0017
555.323	0.0006
555.611	0.0003
555.9	0.0008
556.188	-0.0009
556.477	-0.0003
556.765	-0.003
557.053	-0.0015
557.342	-0.0011
557.63	-0.0008
557.918	-0.0002
558.206	0.0004
558.494	0.0003
558.782	0.0005
559.069	0.0005
559.357	0.0005
559.645	0.0003
559.932	0.0001
560.22	-0.0006
560.507	-0.0019
560.795	-0.0013
561.082	-0.0017
561.37	0.0007
561.657	-0.0008
561.944	0
562.231	0
562.518	-0.0001
562.805	-0.0005
563.092	0.0003
563.379	-0.0002
563.665	0.0007
563.952	0.0002
564.239	0.0004
564.525	0.0005
564.811	0.0014
565.098	0.0005
565.384	0.0003
565.67	0.0005
565.957	0.0004
566.243	0.0011
566.529	0.0008
566.815	0.0003
567.101	0.001
567.387	0.0009
567.672	-0.0005
567.958	0.0011
568.244	0.0005
568.529	0.001
568.815	-0.0001
569.1	-0.0006
569.386	-0.0012
569.671	0.0009
569.956	-0.0002
570.242	0.0001
570.527	-0.0009
570.812	0.0003
571.097	0.0002
571.382	-0.0004
571.666	0.0013
571.951	-0.0002
572.236	-0.0001
572.521	0
572.805	-0.0002
573.09	-0
573.374	-0.0011
573.659	-0.0006
573.943	0
574.227	-0.0001
574.511	-0.0004
574.795	-0.0002
575.079	0.0002
575.363	0.0001
575.647	-0.0008
575.931	-0.0002
576.215	-0.0011
576.499	-0.0013
576.782	-0.001
577.066	-0.0005
577.349	0.0004
577.633	-0.0006
577.916	-0.0007
578.2	-0.0004
578.483	-0.0006
578.766	0.0005
579.049	-0.0002
579.332	0.0004
579.615	-0.0001
579.898	0.0003
580.181	0.0001
580.464	0.0008
580.746	0.0003
581.029	-0.0009
581.312	-0.0006
581.594	-0.0009
581.877	-0.0005
582.159	-0.0006
582.441	-0.0011
582.724	0.0001
583.006	0.0006
583.288	0.0006
583.57	0.0005
583.852	0.0006
584.134	0.0008
584.416	0.0005
584.697	0.0007
584.979	-0.0009
585.261	-0.0012
585.542	-0.001
585.824	-0.0008
586.105	-0.0012
586.387	-0.001
586.668	-0.0002
586.949	0.0002
587.231	0.0004
587.512	0.0004
587.793	-0
588.074	-0.0003
588.355	0.0007
588.636	-0.0008
588.916	-0.0004
589.197	0.0002
589.478	0.0007
589.758	0.0006
590.039	-0.0001
590.319	0.0006
590.6	0.0006
590.88	0.0003
591.16	0.001
591.441	0.0004
591.721	-0.0005
592.001	-0.0004
592.281	0.0003
592.561	0
592.841	-0.0008
593.12	-0.0016
593.4	-0.0008
593.68	-0.0017
593.959	-0.001
594.239	-0.0014
594.518	0.0001
594.798	0
595.077	-0.0014
595.356	-0.0005
595.636	-0.0011
595.915	-0.0002
596.194	-0.0001
596.473	0.001
596.752	0.0007
597.031	0.0005
597.31	-0.0004
597.588	-0.0001
597.867	-0.0005
598.146	-0.0005
598.424	-0.0005
598.703	-0.0001
598.981	-0.0019
599.259	-0.001
599.538	-0.0002
599.816	-0.0001
600.094	-0.0013
600.372	-0.0018
600.65	-0.0015
600.928	-0.0006
601.206	0.0001
601.484	-0.0005
601.762	-0
602.04	-0.0003
602.317	-0.001
602.595	0
602.872	-0
603.15	0.0006
603.427	-0.0011
603.704	-0.001
603.982	-0.0001
604.259	-0.0012
604.536	0
604.813	-0.0008
605.09	-0.0009
605.367	-0.0013
605.644	-0.001
605.921	-0.0003
606.197	-0.0004
606.474	0.0001
606.751	-0.0001
607.027	-0.0008
607.304	-0.0003
607.58	-0.0003
607.856	-0.0014
608.133	-0.0011
608.409	-0.0005
608.685	-0.0009
608.961	-0.0001
609.237	-0.0001
609.513	-0.0009
609.789	-0.0006
610.065	-0.0005
610.341	-0.0014
610.616	0.0001
610.892	0.0004
611.167	-0.0003
611.443	-0.0007
611.718	-0.0011
611.994	-0.0012
612.269	-0.0008
612.544	-0.0008
612.819	-0.0013
613.095	-0.0014
613.37	-0.0004
613.645	-0.0012
613.919	-0.0014
614.194	-0.0001
614.469	0.001
614.744	-0.0005
615.019	-0.0013
615.293	-0.0013
615.568	-0.0009
615.842	-0.0007
616.116	0.0011
616.391	0.0007
616.665	0.0003
616.939	0.0005
617.213	0.0006
617.488	0.001
617.762	-0.0001
618.035	-0.0005
618.309	-0.0009
618.583	-0.0001
618.857	0.0008
619.131	0.0006
619.404	0.0006
619.678	0.0005
619.951	-0.0008
620.225	-0.0002
620.498	-0.001
620.771	-0.0001
621.045	-0.0015
621.318	-0.0025
621.591	-0.0029
621.864	-0.0016
622.137	-0.0013
622.41	-0.0007
622.683	-0.0007
622.956	-0.0005
623.228	-0.0006
623.501	0.0002
623.774	-0.0011
624.046	-0.001
624.319	-0.0017
624.591	-0.0014
624.863	-0.0012
625.136	0.0003
625.408	0.0007
625.68	-0.0006
625.952	0.0011
626.224	0.0001
626.496	0.0002
626.768	-0.0006
627.04	-0.001
627.311	-0.0013
627.583	0.0001
627.855	0
628.126	0.0002
628.398	0.001
628.669	0.0023
628.941	0.0018
629.212	0.0008
629.483	0.0013
629.755	0.0006
630.026	0.0004
630.297	0.0008
630.568	-0.0002
630.839	0.0001
631.11	-0.0007
631.38	0.0007
631.651	0.001
631.922	0.0015
632.192	0.0002
632.463	-0.0006
632.733	-0.0012
633.004	-0.0004
633.274	0.0009
633.545	0.0004
633.815	0.0003
634.085	-0.0007
634.355	-0.0022
634.625	-0.0018
634.895	-0.001
635.165	-0.0011
635.435	-0.0015
635.705	-0.0012
635.974	-0.0023
636.244	-0.0019
636.514	-0.0009
636.783	-0.0017
637.053	-0.0007
637.322	-0.0005
637.591	-0.0003
637.861	-0.0017
638.13	-0.0006
638.399	-0.0023
638.668	-0.0027
638.937	-0.0033
639.206	-0.0025
639.475	-0.002
639.744	-0.0029
640.013	-0.0024
640.281	-0.0017
640.55	-0.0015
640.819	-0.0019
641.087	-0.0016
641.356	-0.0009
641.624	-0.0007
641.892	0.0004
642.161	-0.0003
642.429	-0.0007
642.697	-0.001
642.965	-0.0006
643.233	-0.0012
643.501	-0.0011
643.769	-0.0005
644.037	-0.0007
644.305	-0.0007
644.572	-0.0007
644.84	-0.0018
645.108	-0.002
645.375	-0.0025
645.643	-0.0008
645.91	0.0009
646.177	0.0015
646.445	0.0017
646.712	0.0031
646.979	0.0034
647.246	0.003
647.513	0.0039
647.78	0.0019
648.047	0.0007
648.314	-0.001
648.58	-0.0008
648.847	-0.0005
649.114	0.0002
649.38	0.0006
649.647	-0.0005
649.913	-0.0004
650.18	-0.0009
650.446	-0.0001
650.712	-0.001
650.978	-0.0011
651.245	-0.0016
651.511	-0.0011
651.777	-0.0008
652.043	-0.0008
652.309	0.0009
652.574	0.0016
652.84	0.0013
653.106	0.001
653.371	0.0019
653.637	0.0022
653.903	0.0018
654.168	0.0032
654.433	0.0043
654.699	0.0028
654.964	0.0032
655.229	0.0021
655.494	0.0003
655.759	-0.0027
656.024	0.0002
656.289	-0
656.554	0.0007
656.819	-0.0001
657.084	0.0006
657.349	0
657.613	0.001
657.878	-0.0002
658.142	-0.001
658.407	-0.0004
658.671	0.0018
658.936	0.0012
659.2	0.0005
659.464	0.0009
659.728	0.0011
659.992	-0
660.256	0.001
660.52	0.0001
660.784	0
661.048	0.0006
661.312	-0.0001
661.575	0.0004
661.839	0.0007
662.103	0.0003
662.366	-0.0009
662.63	-0
662.893	-0.0002
663.156	-0.0012
663.42	-0.0011
663.683	-0.0024
663.946	-0.003
664.209	-0.0028
664.472	-0.0024
664.735	-0.0018
664.998	-0.0001
665.261	-0.0002
665.524	-0.0013
665.786	-0.0003
666.049	-0.001
666.312	-0.0002
666.574	-0.0004
666.837	-0.0005
667.099	0.0001
667.361	-0.0009
667.624	-0.0011
667.886	-0.0024
668.148	-0.0022
668.41	-0.001
668.672	-0.0008
668.934	0.001
669.196	0.0008
669.458	0.0009
669.72	0.0022
669.982	0.0016
670.243	0.0019
670.505	0.0004
670.766	0.0006
671.028	0.0002
671.289	-0.0008
671.551	-0.0008
671.812	-0.0017
672.073	-0.0003
672.334	-0.0006
672.596	-0.0019
672.857	-0.0017
673.118	-0.0017
673.379	-0.002
673.639	-0.0017
673.9	-0.0022
674.161	-0.0028
674.422	-0.0028
674.682	-0.0017
674.943	-0.0014
675.203	-0.0016
675.464	-0.0026
675.724	-0.0034
675.985	-0.0031
676.245	-0.0036
676.505	-0.0028
676.765	-0.0025
677.025	-0.0018
677.285	-0.0016
677.545	-0.0008
677.805	-0.001
678.065	-0.0005
678.325	0.0003
678.585	-0.0022
678.844	-0.0029
679.104	-0.0024
679.363	-0.0041
679.623	-0.0033
679.882	-0.0032
680.142	-0.0023
680.401	-0.0027
680.66	-0.0015
680.919	0.0004
681.178	-0.001
681.437	-0.0008
681.696	-0.0011
681.955	-0.0011
682.214	-0.0005
682.473	-0.0016
682.732	-0.0004
682.99	-0.0016
683.249	-0.0005
683.508	-0.0016
683.766	-0.0019
684.024	-0.002
684.283	-0.0011
684.541	-0.0005
684.799	-0.0004
685.058	0
685.316	-0.0013
685.574	-0.0009
685.832	-0.0016
686.09	-0.002
686.348	-0.0032
686.606	-0.0032
686.863	-0.0033
687.121	-0.0031
687.379	-0.0017
687.636	-0.0023
687.894	-0.0002
688.151	-0.0002
688.409	-0.0013
688.666	-0.0012
688.923	-0.0023
689.181	-0.0022
689.438	-0.0027
689.695	-0.003
689.952	-0.0037
690.209	-0.003
690.466	-0.0035
690.723	-0.0022
690.979	-0.0025
691.236	-0.0019
691.493	-0.002
691.75	-0.0018
692.006	-0.002
692.263	-0.0017
692.519	-0.0024
692.775	-0.0013
693.032	-0.002
693.288	-0.0018
693.544	-0.0002
693.8	-0.0005
694.056	-0.0007
694.313	-0.0012
694.568	-0.0009
694.824	-0.0015
695.08	-0.002
695.336	-0.0025
695.592	-0.0034
695.847	-0.0019
696.103	-0.0017
696.359	-0.0017
696.614	-0.0027
696.869	-0.0028
697.125	-0.0038
697.38	-0.0024
697.635	-0.0017
697.891	-0.0007
698.146	-0.0012
698.401	-0.0017
698.656	-0.0025
698.911	-0.0017
699.166	-0.0012
699.42	-0.0002
699.675	-0.0008
699.93	-0.0003
700.185	-0.0007
700.439	-0.0008
700.694	-0.0008
700.948	-0.0012
701.203	-0.0021
701.457	-0.0026
701.711	-0.0023
701.965	-0.0029
702.22	-0.0022
702.474	-0.0025
702.728	-0.0014
702.982	-0.0018
703.236	-0.0015
703.49	-0.0005
703.743	-0.0013
703.997	-0.0019
704.251	-0.0023
704.504	-0.002
704.758	-0.003
705.012	-0.0024
705.265	-0.0015
705.518	-0.0003
705.772	-0.0016
706.025	-0.0011
706.278	-0.0024
706.531	-0.003
706.785	-0.0029
707.038	-0.0036
707.291	-0.003
707.543	-0.0028
707.796	-0.0023
708.049	-0.0029
708.302	-0.003
708.555	-0.003
708.807	-0.0011
709.06	-0.0026
709.312	-0.0017
709.565	-0.002
709.817	-0.0027
710.069	-0.003
710.322	-0.0028
710.574	-0.004
710.826	-0.0036
711.078	-0.004
711.33	-0.0032
711.582	-0.0034
711.834	-0.0038
712.086	-0.0049
712.338	-0.0056
712.59	-0.005
712.841	-0.0061
713.093	-0.0059
713.344	-0.0055
713.596	-0.0053
713.847	-0.0037
714.099	-0.0035
714.35	-0.0039
714.601	-0.004
714.853	-0.0028
715.104	-0.0037
715.355	-0.0023
715.606	-0.003
715.857	-0.0019
716.108	-0.003
716.359	-0.0022
716.609	-0.0027
716.86	-0.0034
717.111	-0.0022
717.361	-0.0009
717.612	-0.0003
717.863	0.0001
718.113	0.0011
718.363	0.0002
718.614	0.0015
718.864	0.0014
719.114	0.0003
719.364	0.0012
719.614	0.0005
719.865	0.0015
720.114	0.0025
720.364	0.0013
720.614	0.0023
720.864	0.0017
721.114	0.0015
721.364	0.0021
721.613	0.0014
721.863	0.0013
722.112	0.0012
722.362	0.0003
722.611	-0.0003
722.86	-0.0008
723.11	-0.0008
723.359	-0.0008
723.608	-0.0014
723.857	-0.0014
724.106	-0.0002
724.355	-0.0001
724.604	-0.0012
724.853	-0.0008
725.102	-0.0019
725.351	-0.002
725.599	-0.003
725.848	-0.0033
726.097	-0.0019
726.345	-0.0031
726.594	-0.0028
726.842	-0.0031
727.09	-0.0041
727.339	-0.0046
727.587	-0.0051
727.835	-0.0049
728.083	-0.0037
728.331	-0.0046
728.579	-0.0031
728.827	-0.0024
729.075	-0.0028
729.323	-0.0029
729.571	-0.003
729.818	-0.0025
730.066	-0.0021
730.314	-0.0023
730.561	-0.0003
730.809	-0.0007
731.056	-0.001
731.303	-0.0003
731.551	-0.0007
731.798	-0.0007
732.045	-0.0006
732.292	0.0007
732.539	0.0004
732.786	0.0015
733.033	0.0015
733.28	0.0014
733.527	0.0007
733.774	0.0004
734.021	-0.0012
734.267	-0.002
734.514	-0.003
734.76	-0.0032
735.007	-0.003
735.253	-0.0032
735.5	-0.0037
735.746	-0.0037
735.992	-0.0028
736.238	-0.0028
736.485	-0.0021
736.731	-0.0021
736.977	-0.0029
737.223	-0.0026
737.469	-0.0027
737.715	-0.0019
737.96	-0.0021
738.206	-0.003
738.452	-0.0029
738.697	-0.0031
738.943	-0.0024
739.189	-0.0034
739.434	-0.0023
739.679	-0.0028
739.925	-0.0037
740.17	-0.005
740.415	-0.0054
740.66	-0.0064
740.906	-0.0065
741.151	-0.0058
741.396	-0.0064
741.641	-0.0063
741.886	-0.0062
742.13	-0.0034
742.375	-0.0037
742.62	-0.0043
742.865	-0.0036
743.109	-0.0022
743.354	-0.0013
743.598	-0.0003
743.843	0.0001
744.087	0.0006
744.331	0.0011
744.576	0.0013
744.82	0.0025
745.064	0.002
745.308	0.0024
745.552	0.0014
745.796	0.0005
746.04	0.0008
746.284	-0.0002
746.528	0.0011
746.771	0.0024
747.015	0.0021
747.259	0.0008
747.502	0.0004
747.746	-0.0003
747.989	0.0008
748.233	-0.0004
748.476	0.0008
748.719	0.0009
748.963	0.0018
749.206	0.0025
749.449	0.0007
749.692	0.0003
749.935	0.0011
750.178	-0.0007
750.421	-0.0008
750.664	-0.001
750.906	-0.0001
751.149	0.0003
751.392	0.0002
751.635	-0.0011
751.877	-0.0004
752.12	-0.0014
752.362	-0.0011
752.604	-0.0006
752.847	0.0004
753.089	0.0012
753.331	0.0012
753.573	0.0006
753.816	-0.0006
754.058	-0.0014
754.3	-0.0028
754.542	-0.0025
754.783	-0.0032
755.025	-0.0022
755.267	-0.0018
755.509	-0.0015
755.75	-0.0017
755.992	-0.0017
756.234	-0.0024
756.475	-0.0029
756.716	-0.0031
756.958	-0.0029
757.199	-0.0022
757.44	-0.0018
757.682	-0.0025
757.923	-0.0016
758.164	-0.0013
758.405	-0.0009
758.646	0.0005
758.887	0
759.128	0.0003
759.369	0.0009
759.609	0.0011
759.85	0.0006
760.091	0.0007
760.331	0.0001
760.572	-0.0011
760.812	-0.0007
761.053	-0.0011
761.293	-0.0007
761.533	-0.0007
761.774	0.0006
762.014	0.0003
762.254	-0.0001
762.494	-0.0013
762.734	-0.0014
762.974	-0.0028
763.214	-0.0019
763.454	-0.0019
763.694	-0.0019
763.933	-0.0028
764.173	-0.0046
764.413	-0.0055
764.652	-0.0049
764.892	-0.0043
765.131	-0.0043
765.371	-0.004
765.61	-0.0038
765.849	-0.0035
766.089	-0.0028
766.328	-0.0018
766.567	-0.0028
766.806	-0.0023
767.045	-0.0009
767.284	-0.0015
767.523	-0.0018
767.762	-0.0025
768.001	-0.0014
768.239	-0.002
768.478	-0.0006
768.717	-0.001
768.955	-0.0009
769.194	-0.0005
769.432	0.0008
769.671	0.0019
769.909	0.0021
770.148	0.001
770.386	0.0012
770.624	0.0017
770.862	0.0011
771.1	0.0016
771.338	0.0006
771.576	0.0001
771.814	0.001
772.052	0.0009
772.29	0.0019
772.528	0.003
772.765	0.0032
773.003	0.0032
773.24	0.003
773.478	0.0024
773.716	0.001
773.953	0.0006
774.19	0.0006
774.428	0.0021
774.665	0.002
774.902	0.0031
775.139	0.0031
775.376	0.0022
775.613	0.0027
775.85	0.0018
776.087	0.0009
776.324	0.0011
776.561	0.0008
776.798	0.0001
777.034	0.0005
777.271	0.0007
777.508	0.001
777.744	0.0015
777.981	0.002
778.217	0.0021
778.454	0.0014
778.69	0.0005
778.926	-0.0013
779.162	-0.0013
779.399	-0.0017
779.635	-0.002
779.871	-0.0015
780.107	-0.0017
780.343	-0.0021
780.579	-0.0017
780.814	-0.0023
781.05	-0.0021
781.286	-0.0027
781.522	-0.0022
781.757	-0.0016
781.993	-0.002
782.228	-0.0026
782.464	-0.0022
782.699	-0.0033
782.934	-0.0036
783.17	-0.0027
783.405	-0.0024
783.64	-0.0034
783.875	-0.0039
784.11	-0.0048
784.345	-0.0035
784.58	-0.0028
784.815	-0.002
785.05	-0.0034
785.285	-0.0039
785.52	-0.0042
785.754	-0.0054
785.989	-0.0052
786.223	-0.0066
786.458	-0.0062
786.692	-0.0049
786.927	-0.0046
787.161	-0.0034
787.396	-0.0051
787.63	-0.0047
787.864	-0.0055
788.098	-0.0052
788.332	-0.0048
788.566	-0.0035
788.8	-0.0032
789.034	-0.0027
789.268	-0.0029
789.502	-0.0027
789.736	-0.0031
789.969	-0.0032
790.203	-0.0032
790.437	-0.0044
790.67	-0.0054
790.904	-0.0059
791.137	-0.0067
791.37	-0.0063
791.604	-0.0078
791.837	-0.0074
792.07	-0.0062
792.303	-0.0067
792.537	-0.0057
792.77	-0.0063
793.003	-0.0063
793.236	-0.0053
793.469	-0.0056
793.701	-0.0041
793.934	-0.0033
794.167	-0.0032
794.4	-0.0032
794.632	-0.0017
794.865	-0.0019
795.097	-0.0015
795.33	-0.003
795.562	-0.0019
795.795	-0.0012
796.027	-0.0004
796.259	-0.0005
796.491	-0.0007
796.724	-0.0011
796.956	-0
797.188	0.0003
797.42	-0.0001
797.652	-0.0007
797.883	-0.0007
798.115	0
798.347	-0.0002
798.579	0.0014
798.81	0.0021
799.042	0.0018
799.274	0.0007
799.505	0.0004
799.737	0.0008
799.968	-0.0007
800.199	-0.0002
800.431	-0.0008
800.662	-0.0013
800.893	-0.0009
801.124	-0.0014
801.355	-0.0017
801.586	-0.0019
801.817	-0.0023
802.048	-0.0036
802.279	-0.0038
802.51	-0.0027
802.741	-0.0013
802.971	-0.0002
803.202	-0.0001
803.433	0.0002
803.663	-0.0004
803.894	-0.0013
804.124	-0.0014
804.354	-0.0017
804.585	-0.0009
804.815	-0.0005
805.045	-0.0015
805.275	-0.0007
805.506	-0.0333
805.736	-0.0905
805.966	0.082
806.196	-0.0175
