Data from 03 0.5 mM K2Cr2O7 0.3 mM BQDS 1 M H2SO4 5 min_Absorbance_0136.txt Node
Date: Tue Dec 14 04:59:44 EST 2021
User: kwabilab-user
Spectrometer: HDX00518
Trigger mode: 0
Integration Time (sec): 5.000000E-2
Scans to average: 50
Nonlinearity correction enabled: false
Boxcar width: 0
Storing dark spectrum: false
XAxis mode: Wavelengths
Number of Pixels in Spectrum: 2068
>>>>>Begin Spectral Data<<<<<
195.27	0.0334
195.642	0.0075
196.014	0.029
196.386	0.0733
196.758	-0.0251
197.129	0.0135
197.501	-0.002
197.872	0.0185
198.244	0.0273
198.615	0.0514
198.986	0.0371
199.357	0.0454
199.728	0.0448
200.099	0.0512
200.47	0.0229
200.841	0.0273
201.212	0.0445
201.582	0.0401
201.953	0.0461
202.323	0.0493
202.694	0.0365
203.064	0.0356
203.434	0.0555
203.804	0.0395
204.174	0.0578
204.544	0.054
204.914	0.0643
205.284	0.0536
205.653	0.0424
206.023	0.0358
206.393	0.0098
206.762	0.0334
207.131	0.0435
207.501	0.0383
207.87	0.0413
208.239	0.0633
208.608	0.0437
208.977	0.0265
209.346	0.0359
209.715	0.0439
210.083	0.0133
210.452	0.0262
210.82	0.0568
211.189	0.0186
211.557	0.0513
211.925	0.0162
212.294	0.0455
212.662	0.0369
213.03	0.0302
213.398	0.0497
213.766	0.0656
214.133	0.0314
214.501	0.0688
214.869	0.0651
215.236	0.0541
215.604	0.0355
215.971	0.0424
216.338	0.0764
216.705	0.0807
217.072	0.0767
217.439	0.0719
217.806	0.0729
218.173	0.0864
218.54	0.081
218.907	0.0969
219.273	0.0989
219.64	0.082
220.006	0.1055
220.373	0.1192
220.739	0.126
221.105	0.1314
221.471	0.153
221.837	0.1701
222.203	0.1819
222.569	0.2012
222.935	0.2336
223.3	0.2341
223.666	0.2658
224.031	0.2759
224.397	0.2919
224.762	0.3133
225.127	0.3507
225.493	0.3717
225.858	0.3865
226.223	0.4212
226.588	0.4291
226.952	0.451
227.317	0.4919
227.682	0.492
228.046	0.5113
228.411	0.5193
228.775	0.5383
229.14	0.552
229.504	0.5881
229.868	0.5913
230.232	0.5868
230.596	0.6122
230.96	0.631
231.324	0.617
231.688	0.6227
232.052	0.6565
232.415	0.643
232.779	0.6493
233.142	0.6672
233.505	0.6778
233.869	0.6688
234.232	0.6756
234.595	0.6745
234.958	0.67
235.321	0.6798
235.684	0.6665
236.047	0.6746
236.409	0.6711
236.772	0.6605
237.134	0.6777
237.497	0.6665
237.859	0.6826
238.222	0.6661
238.584	0.6689
238.946	0.66
239.308	0.6641
239.67	0.6563
240.032	0.6574
240.393	0.6681
240.755	0.6554
241.117	0.658
241.478	0.6462
241.84	0.6497
242.201	0.6463
242.562	0.6317
242.924	0.6408
243.285	0.6299
243.646	0.6356
244.007	0.6278
244.368	0.6352
244.728	0.6283
245.089	0.6233
245.45	0.6299
245.81	0.6284
246.171	0.626
246.531	0.6179
246.891	0.6213
247.252	0.6147
247.612	0.6112
247.972	0.6211
248.332	0.6201
248.692	0.6145
249.051	0.6184
249.411	0.6135
249.771	0.606
250.13	0.6108
250.49	0.6095
250.849	0.6165
251.208	0.614
251.568	0.606
251.927	0.6116
252.286	0.613
252.645	0.6102
253.004	0.6088
253.363	0.6099
253.721	0.6081
254.08	0.6056
254.439	0.6013
254.797	0.5986
255.155	0.598
255.514	0.6013
255.872	0.6036
256.23	0.5965
256.588	0.5999
256.946	0.5967
257.304	0.5982
257.662	0.5968
258.02	0.6044
258.377	0.591
258.735	0.5924
259.093	0.5925
259.45	0.5891
259.807	0.5863
260.165	0.5848
260.522	0.5861
260.879	0.5809
261.236	0.5819
261.593	0.5799
261.95	0.5721
262.306	0.573
262.663	0.5702
263.02	0.5693
263.376	0.5653
263.733	0.5701
264.089	0.5645
264.445	0.5605
264.802	0.5567
265.158	0.5606
265.514	0.5484
265.87	0.5486
266.226	0.5512
266.581	0.5509
266.937	0.542
267.293	0.5467
267.648	0.538
268.004	0.5351
268.359	0.5369
268.714	0.5308
269.07	0.5283
269.425	0.5265
269.78	0.5179
270.135	0.5216
270.49	0.5143
270.844	0.5159
271.199	0.5128
271.554	0.5096
271.908	0.5041
272.263	0.5076
272.617	0.4934
272.972	0.4962
273.326	0.4924
273.68	0.4886
274.034	0.488
274.388	0.484
274.742	0.4818
275.096	0.4785
275.45	0.4739
275.803	0.4675
276.157	0.4696
276.51	0.46
276.864	0.4563
277.217	0.4519
277.571	0.4499
277.924	0.4476
278.277	0.4426
278.63	0.4426
278.983	0.4327
279.336	0.4285
279.688	0.4266
280.041	0.4205
280.394	0.4167
280.746	0.4157
281.099	0.4083
281.451	0.4031
281.803	0.3993
282.156	0.3953
282.508	0.3913
282.86	0.3885
283.212	0.3802
283.564	0.3783
283.916	0.3761
284.267	0.3716
284.619	0.3643
284.971	0.3617
285.322	0.3577
285.673	0.3537
286.025	0.3483
286.376	0.3467
286.727	0.3431
287.078	0.3372
287.429	0.3338
287.78	0.3322
288.131	0.3234
288.482	0.3231
288.833	0.3133
289.183	0.313
289.534	0.3084
289.884	0.3039
290.235	0.3012
290.585	0.2968
290.935	0.2931
291.285	0.2871
291.635	0.2874
291.985	0.2809
292.335	0.2775
292.685	0.2753
293.035	0.2716
293.384	0.2669
293.734	0.2635
294.083	0.2591
294.433	0.2536
294.782	0.2513
295.131	0.2478
295.48	0.2421
295.829	0.2403
296.179	0.2371
296.527	0.2327
296.876	0.2287
297.225	0.226
297.574	0.2216
297.922	0.2201
298.271	0.2145
298.619	0.2125
298.968	0.2092
299.316	0.2059
299.664	0.2037
300.012	0.2015
300.36	0.1974
300.708	0.1941
301.056	0.1912
301.404	0.189
301.752	0.1879
302.099	0.1836
302.447	0.1811
302.794	0.1799
303.142	0.1775
303.489	0.1738
303.836	0.1733
304.183	0.1707
304.531	0.169
304.878	0.167
305.224	0.1661
305.571	0.1638
305.918	0.1621
306.265	0.1609
306.611	0.1591
306.958	0.158
307.304	0.1558
307.651	0.1549
307.997	0.1543
308.343	0.1535
308.689	0.152
309.035	0.1507
309.381	0.1502
309.727	0.1495
310.073	0.1489
310.419	0.148
310.764	0.1461
311.11	0.1463
311.455	0.1472
311.801	0.1461
312.146	0.1459
312.491	0.1454
312.837	0.1454
313.182	0.1446
313.527	0.1452
313.872	0.145
314.216	0.1447
314.561	0.1451
314.906	0.1449
315.251	0.1454
315.595	0.1464
315.94	0.1463
316.284	0.1466
316.628	0.1478
316.972	0.1483
317.317	0.1485
317.661	0.1496
318.005	0.1497
318.348	0.1505
318.692	0.152
319.036	0.152
319.38	0.1527
319.723	0.1535
320.067	0.1549
320.41	0.1554
320.754	0.1571
321.097	0.1587
321.44	0.1593
321.783	0.1606
322.126	0.1622
322.469	0.1628
322.812	0.1642
323.155	0.1653
323.498	0.167
323.84	0.1689
324.183	0.1703
324.525	0.172
324.868	0.1737
325.21	0.174
325.552	0.1769
325.894	0.1779
326.236	0.1794
326.578	0.1809
326.92	0.1822
327.262	0.1843
327.604	0.1853
327.946	0.1874
328.287	0.189
328.629	0.1911
328.97	0.192
329.312	0.1931
329.653	0.1953
329.994	0.1973
330.335	0.1988
330.676	0.2011
331.017	0.2024
331.358	0.2045
331.699	0.2067
332.04	0.2082
332.38	0.209
332.721	0.2106
333.061	0.2143
333.402	0.2154
333.742	0.2177
334.083	0.2179
334.423	0.2193
334.763	0.2215
335.103	0.2226
335.443	0.2248
335.783	0.2259
336.123	0.2264
336.462	0.2287
336.802	0.2307
337.141	0.2318
337.481	0.2333
337.82	0.2343
338.16	0.2355
338.499	0.2377
338.838	0.2385
339.177	0.2409
339.516	0.2421
339.855	0.2433
340.194	0.244
340.533	0.2456
340.872	0.247
341.21	0.2474
341.549	0.2482
341.887	0.2494
342.226	0.2512
342.564	0.2514
342.902	0.2515
343.24	0.2521
343.578	0.2526
343.916	0.2548
344.254	0.2543
344.592	0.2548
344.93	0.2555
345.268	0.2559
345.605	0.2552
345.943	0.2566
346.28	0.2567
346.618	0.2567
346.955	0.2571
347.292	0.2568
347.629	0.2575
347.966	0.2578
348.303	0.2582
348.64	0.2585
348.977	0.2582
349.314	0.2587
349.65	0.2588
349.987	0.2586
350.324	0.2592
350.66	0.2587
350.996	0.2573
351.333	0.2583
351.669	0.2569
352.005	0.2568
352.341	0.2556
352.677	0.2548
353.013	0.2539
353.349	0.2531
353.685	0.2518
354.02	0.2504
354.356	0.2491
354.691	0.2489
355.027	0.2475
355.362	0.247
355.697	0.2462
356.033	0.2452
356.368	0.2446
356.703	0.2436
357.038	0.2422
357.373	0.2416
357.707	0.2409
358.042	0.2394
358.377	0.2392
358.711	0.2383
359.046	0.2364
359.38	0.2351
359.715	0.2342
360.049	0.2333
360.383	0.2317
360.717	0.2313
361.051	0.2294
361.385	0.2282
361.719	0.2258
362.053	0.2242
362.387	0.2225
362.72	0.2204
363.054	0.2189
363.387	0.2172
363.721	0.2153
364.054	0.2134
364.387	0.2113
364.721	0.2094
365.054	0.2073
365.387	0.2065
365.72	0.2049
366.053	0.2027
366.385	0.2009
366.718	0.1994
367.051	0.198
367.383	0.1967
367.716	0.1948
368.048	0.1938
368.381	0.1914
368.713	0.1909
369.045	0.1894
369.377	0.1877
369.709	0.1876
370.041	0.1858
370.373	0.1836
370.705	0.1816
371.037	0.1799
371.368	0.1785
371.7	0.1777
372.031	0.1752
372.363	0.1737
372.694	0.1712
373.025	0.1687
373.356	0.1665
373.688	0.165
374.019	0.1627
374.35	0.1608
374.68	0.1585
375.011	0.1559
375.342	0.1543
375.673	0.1539
376.003	0.1503
376.334	0.1487
376.664	0.1472
376.995	0.145
377.325	0.1429
377.655	0.142
377.985	0.1407
378.315	0.1396
378.645	0.1374
378.975	0.136
379.305	0.1344
379.635	0.1336
379.964	0.1325
380.294	0.1303
380.623	0.1296
380.953	0.1279
381.282	0.1267
381.611	0.1242
381.941	0.123
382.27	0.1222
382.599	0.1201
382.928	0.1183
383.257	0.1178
383.585	0.1156
383.914	0.1151
384.243	0.1127
384.571	0.1109
384.9	0.1084
385.228	0.1072
385.557	0.1053
385.885	0.1036
386.213	0.1019
386.541	0.1005
386.869	0.0989
387.197	0.0964
387.525	0.0948
387.853	0.0935
388.181	0.0922
388.508	0.09
388.836	0.0888
389.164	0.0872
389.491	0.0868
389.818	0.0849
390.146	0.0841
390.473	0.0828
390.8	0.0816
391.127	0.0798
391.454	0.0789
391.781	0.0779
392.108	0.0774
392.435	0.0755
392.761	0.074
393.088	0.0733
393.415	0.0731
393.741	0.0727
394.067	0.0714
394.394	0.0706
394.72	0.0693
395.046	0.0679
395.372	0.0677
395.698	0.0667
396.024	0.0656
396.35	0.0651
396.676	0.0636
397.001	0.0632
397.327	0.0619
397.653	0.061
397.978	0.0596
398.303	0.0591
398.629	0.0569
398.954	0.0557
399.279	0.0557
399.604	0.0552
399.929	0.055
400.254	0.0536
400.579	0.0532
400.904	0.0521
401.229	0.0519
401.553	0.0515
401.878	0.051
402.202	0.0502
402.527	0.0496
402.851	0.0492
403.175	0.0483
403.5	0.0486
403.824	0.0477
404.148	0.0479
404.472	0.0464
404.796	0.0464
405.119	0.0451
405.443	0.0457
405.767	0.0445
406.09	0.0447
406.414	0.0445
406.737	0.044
407.061	0.0443
407.384	0.044
407.707	0.0439
408.03	0.0432
408.353	0.0433
408.676	0.0431
408.999	0.0424
409.322	0.0426
409.645	0.0422
409.968	0.0423
410.29	0.0422
410.613	0.0423
410.935	0.0426
411.258	0.0421
411.58	0.0416
411.902	0.0418
412.224	0.0411
412.546	0.0416
412.868	0.041
413.19	0.0413
413.512	0.0414
413.834	0.0399
414.156	0.0409
414.477	0.0414
414.799	0.0401
415.121	0.0415
415.442	0.0406
415.763	0.0411
416.085	0.0406
416.406	0.0414
416.727	0.0404
417.048	0.0408
417.369	0.0405
417.69	0.0403
418.011	0.0401
418.331	0.0407
418.652	0.041
418.973	0.0407
419.293	0.0407
419.614	0.0408
419.934	0.0418
420.254	0.0407
420.574	0.0417
420.895	0.0413
421.215	0.0406
421.535	0.0406
421.855	0.0407
422.174	0.0405
422.494	0.04
422.814	0.04
423.134	0.0402
423.453	0.0407
423.773	0.0406
424.092	0.0408
424.411	0.0409
424.731	0.0405
425.05	0.0401
425.369	0.0404
425.688	0.0407
426.007	0.0401
426.326	0.0406
426.644	0.0405
426.963	0.0411
427.282	0.0407
427.6	0.0407
427.919	0.0406
428.237	0.0408
428.556	0.041
428.874	0.041
429.192	0.0415
429.51	0.0417
429.828	0.0413
430.146	0.0414
430.464	0.0402
430.782	0.0412
431.1	0.0412
431.418	0.0408
431.735	0.0406
432.053	0.041
432.37	0.041
432.688	0.0413
433.005	0.0407
433.322	0.0418
433.639	0.0408
433.957	0.0421
434.274	0.0419
434.591	0.0408
434.907	0.041
435.224	0.0409
435.541	0.0406
435.858	0.042
436.174	0.0421
436.491	0.0411
436.807	0.0403
437.124	0.0405
437.44	0.0409
437.756	0.0407
438.072	0.0415
438.388	0.0415
438.704	0.0406
439.02	0.0414
439.336	0.0405
439.652	0.0406
439.968	0.0399
440.283	0.0393
440.599	0.0402
440.914	0.0403
441.23	0.0409
441.545	0.04
441.86	0.0398
442.175	0.0404
442.491	0.0398
442.806	0.0399
443.121	0.04
443.435	0.0394
443.75	0.0394
444.065	0.0397
444.38	0.0403
444.694	0.0396
445.009	0.0401
445.323	0.04
445.638	0.0386
445.952	0.0394
446.266	0.0401
446.58	0.039
446.894	0.039
447.208	0.0393
447.522	0.0387
447.836	0.0392
448.15	0.0387
448.464	0.0386
448.777	0.0384
449.091	0.0383
449.404	0.038
449.718	0.038
450.031	0.0382
450.345	0.0383
450.658	0.0381
450.971	0.0382
451.284	0.0374
451.597	0.0371
451.91	0.0377
452.223	0.037
452.535	0.0359
452.848	0.0371
453.161	0.0362
453.473	0.0367
453.786	0.0363
454.098	0.0366
454.411	0.0366
454.723	0.0352
455.035	0.036
455.347	0.0354
455.659	0.0354
455.971	0.0367
456.283	0.0352
456.595	0.0355
456.907	0.0355
457.218	0.0348
457.53	0.0344
457.841	0.0348
458.153	0.0346
458.464	0.0348
458.776	0.0351
459.087	0.0337
459.398	0.0344
459.709	0.0334
460.02	0.0344
460.331	0.033
460.642	0.0332
460.953	0.0327
461.263	0.0322
461.574	0.0322
461.885	0.0328
462.195	0.0315
462.506	0.0322
462.816	0.032
463.126	0.0318
463.437	0.0316
463.747	0.031
464.057	0.0305
464.367	0.0306
464.677	0.0304
464.987	0.0297
465.296	0.0303
465.606	0.0291
465.916	0.0295
466.225	0.0294
466.535	0.029
466.844	0.0293
467.154	0.0298
467.463	0.0282
467.772	0.0294
468.081	0.0283
468.39	0.0284
468.699	0.0278
469.008	0.0269
469.317	0.0274
469.626	0.0268
469.935	0.027
470.243	0.0266
470.552	0.0267
470.86	0.0271
471.169	0.0264
471.477	0.0262
471.785	0.0267
472.093	0.0264
472.402	0.0255
472.71	0.0261
473.018	0.025
473.326	0.0243
473.633	0.0251
473.941	0.0246
474.249	0.0241
474.556	0.0252
474.864	0.0239
475.171	0.0235
475.479	0.0237
475.786	0.0236
476.094	0.0229
476.401	0.0228
476.708	0.0228
477.015	0.0229
477.322	0.0231
477.629	0.0222
477.936	0.0223
478.242	0.0207
478.549	0.0214
478.856	0.022
479.162	0.0207
479.469	0.0209
479.775	0.0214
480.081	0.0207
480.388	0.02
480.694	0.0201
481	0.0196
481.306	0.0194
481.612	0.0195
481.918	0.0189
482.224	0.0192
482.53	0.0187
482.835	0.0193
483.141	0.0191
483.446	0.0188
483.752	0.0175
484.057	0.0182
484.363	0.0172
484.668	0.0177
484.973	0.0166
485.278	0.0166
485.583	0.0168
485.888	0.0159
486.193	0.0159
486.498	0.0149
486.803	0.0162
487.107	0.0162
487.412	0.0153
487.717	0.0153
488.021	0.0148
488.325	0.0162
488.63	0.015
488.934	0.0157
489.238	0.0144
489.542	0.0142
489.846	0.014
490.15	0.0144
490.454	0.0134
490.758	0.0132
491.062	0.0133
491.366	0.0133
491.669	0.0132
491.973	0.0136
492.276	0.013
492.58	0.0127
492.883	0.0123
493.186	0.0131
493.489	0.0127
493.792	0.0109
494.096	0.0109
494.399	0.0113
494.701	0.0119
495.004	0.0107
495.307	0.0111
495.61	0.0097
495.912	0.0109
496.215	0.0092
496.517	0.0094
496.82	0.0102
497.122	0.0088
497.424	0.0098
497.727	0.01
498.029	0.0087
498.331	0.0093
498.633	0.0097
498.935	0.0097
499.237	0.0084
499.538	0.0083
499.84	0.0088
500.142	0.0083
500.443	0.0075
500.745	0.008
501.046	0.007
501.348	0.0073
501.649	0.0071
501.95	0.0077
502.251	0.0067
502.552	0.0059
502.853	0.0066
503.154	0.0057
503.455	0.0065
503.756	0.0065
504.057	0.0068
504.357	0.0052
504.658	0.0068
504.958	0.0063
505.259	0.0063
505.559	0.0054
505.859	0.0056
506.16	0.0055
506.46	0.0057
506.76	0.0059
507.06	0.0049
507.36	0.0051
507.66	0.005
507.96	0.0053
508.259	0.0047
508.559	0.0058
508.859	0.0052
509.158	0.0047
509.457	0.0042
509.757	0.0045
510.056	0.0046
510.355	0.0046
510.655	0.0033
510.954	0.0039
511.253	0.0034
511.552	0.0034
511.851	0.0032
512.149	0.0029
512.448	0.0034
512.747	0.0026
513.045	0.0023
513.344	0.0024
513.642	0.0033
513.941	0.0024
514.239	0.0032
514.537	0.0013
514.836	0.0025
515.134	0.001
515.432	0.0036
515.73	0.0021
516.028	0.002
516.326	0.0025
516.623	0.0023
516.921	-0
517.219	0.0019
517.516	0.0023
517.814	0.0016
518.111	0.0017
518.409	0.001
518.706	0.0013
519.003	0.0021
519.3	0.0015
519.597	0.0012
519.894	0.0014
520.191	0.0014
520.488	0.0016
520.785	0.0004
521.082	0.0022
521.378	0.0003
521.675	0.0014
521.971	0.0008
522.268	0.0009
522.564	0.0005
522.861	0.0014
523.157	0.0011
523.453	0.0015
523.749	0.0012
524.045	0.001
524.341	0.0006
524.637	0.0005
524.933	0.0003
525.229	0.001
525.524	-0.0006
525.82	0.0003
526.115	-0.0001
526.411	0.0009
526.706	0.001
527.002	0.0012
527.297	-0.0002
527.592	0.0008
527.887	0.0023
528.182	0.0002
528.477	0.0003
528.772	0.0001
529.067	0.0006
529.362	0.0001
529.657	-0.0005
529.951	0.0005
530.246	-0.0005
530.54	0.0008
530.835	-0.0006
531.129	-0.0005
531.423	0.0001
531.718	0.0001
532.012	0.0001
532.306	-0.0003
532.6	-0.0002
532.894	-0.0007
533.188	0.0001
533.482	-0.0001
533.775	-0
534.069	-0.0008
534.363	-0.0017
534.656	-0.003
534.95	-0.0001
535.243	-0.0017
535.536	0.0004
535.83	-0.0023
536.123	0.0001
536.416	-0.0008
536.709	-0.0004
537.002	-0.0016
537.295	-0.0017
537.588	-0.0014
537.881	-0.0013
538.173	-0.0007
538.466	-0.0007
538.759	-0.002
539.051	-0.0002
539.344	-0.0008
539.636	-0.0005
539.928	-0.0004
540.22	-0.0015
540.513	-0.0003
540.805	-0.0003
541.097	-0.0014
541.389	-0.0004
541.681	0.0005
541.972	0.0004
542.264	0.0007
542.556	0.0001
542.847	0.0003
543.139	-0.0003
543.431	0.0001
543.722	-0.0012
544.013	0.0002
544.305	-0.0004
544.596	-0.0014
544.887	-0.0002
545.178	-0.0006
545.469	-0.0021
545.76	-0.0012
546.051	0.0004
546.342	-0.0019
546.632	-0.001
546.923	-0.0003
547.214	-0.0011
547.504	-0.0015
547.795	-0.001
548.085	-0.0023
548.375	-0.0013
548.666	-0.001
548.956	-0.0015
549.246	-0.0003
549.536	0.0007
549.826	-0.0008
550.116	-0.0006
550.406	-0.0006
550.695	-0.0016
550.985	0.0001
551.275	-0.0009
551.564	-0.0013
551.854	0.0003
552.143	-0.0005
552.433	-0.0016
552.722	-0.0023
553.011	0.0005
553.3	-0.0002
553.589	-0.0003
553.879	-0.0011
554.167	-0.0012
554.456	0.0004
554.745	-0
555.034	-0.001
555.323	0.0006
555.611	-0.0005
555.9	-0.0011
556.188	-0.0012
556.477	-0.0001
556.765	-0.0027
557.053	-0.0007
557.342	-0.0007
557.63	-0.0005
557.918	-0.0004
558.206	0.0005
558.494	0.0001
558.782	-0.0005
559.069	0.0012
559.357	0.001
559.645	0.0005
559.932	0.0009
560.22	-0.0006
560.507	-0.0015
560.795	-0.0015
561.082	-0.0015
561.37	-0.0002
561.657	-0.0011
561.944	-0.0007
562.231	-0
562.518	-0.0001
562.805	-0.0003
563.092	0
563.379	0.0006
563.665	0.0004
563.952	-0.0008
564.239	-0.0001
564.525	0.0008
564.811	0.0019
565.098	0.0003
565.384	-0.0001
565.67	0.0012
565.957	0.0011
566.243	0.0017
566.529	0.0016
566.815	0.0007
567.101	0.0014
567.387	0.0008
567.672	0.0005
567.958	0.0016
568.244	0.0008
568.529	0.0005
568.815	-0.0002
569.1	-0.001
569.386	-0.0016
569.671	0.0002
569.956	-0.0003
570.242	0.0009
570.527	-0.0009
570.812	0.0002
571.097	0.0002
571.382	-0.001
571.666	0.0002
571.951	-0.0004
572.236	0
572.521	0.0003
572.805	-0.0004
573.09	-0.0001
573.374	-0.0012
573.659	-0.0004
573.943	-0.0013
574.227	-0.0008
574.511	-0.0015
574.795	-0.0007
575.079	-0.0007
575.363	-0.0013
575.647	-0.0003
575.931	-0.0001
576.215	-0.001
576.499	-0.0013
576.782	-0.0012
577.066	-0.0005
577.349	0.0009
577.633	-0.0012
577.916	-0.0013
578.2	-0.0003
578.483	-0.0012
578.766	0.0003
579.049	-0.0004
579.332	0.0004
579.615	0.0002
579.898	-0.0006
580.181	0.0003
580.464	0.0011
580.746	0.0003
581.029	-0.0005
581.312	-0.0012
581.594	-0.0014
581.877	-0.0015
582.159	-0.0008
582.441	-0.0007
582.724	-0.0006
583.006	0.0001
583.288	0.0002
583.57	0.0009
583.852	0.0006
584.134	-0.0001
584.416	-0.001
584.697	-0.0003
584.979	-0.0018
585.261	-0.002
585.542	-0.0017
585.824	-0.0014
586.105	-0.0021
586.387	-0.0009
586.668	-0.0006
586.949	-0.0003
587.231	0.0004
587.512	-0.0006
587.793	-0
588.074	-0.001
588.355	-0.0001
588.636	-0.0006
588.916	-0.0013
589.197	0.0004
589.478	-0.0007
589.758	-0.0005
590.039	0.0003
590.319	0.0007
590.6	0.0009
590.88	0.0013
591.16	0.0011
591.441	0.0012
591.721	-0.0005
592.001	-0.0004
592.281	-0.0007
592.561	0.0001
592.841	-0.0007
593.12	-0.0017
593.4	-0.0015
593.68	-0.0019
593.959	-0.0015
594.239	-0.0015
594.518	-0.0009
594.798	0.0006
595.077	-0.0003
595.356	-0.001
595.636	-0.0003
595.915	-0.0002
596.194	0.0008
596.473	-0.0009
596.752	0.0004
597.031	-0.0002
597.31	-0.0003
597.588	-0.0006
597.867	-0.0005
598.146	-0.0008
598.424	-0.0006
598.703	-0.0003
598.981	-0.0018
599.259	-0.0012
599.538	-0.001
599.816	-0.0008
600.094	-0.0008
600.372	-0.0017
600.65	-0.0012
600.928	-0.0007
601.206	-0.0001
601.484	-0.0001
601.762	0.0002
602.04	0.0004
602.317	0.0002
602.595	-0.0005
602.872	0.0002
603.15	0.0012
603.427	-0.0013
603.704	-0.0012
603.982	-0.0009
604.259	-0.0006
604.536	0.0006
604.813	-0.0001
605.09	-0.0009
605.367	-0.0012
605.644	-0.0013
605.921	-0.0011
606.197	-0.0017
606.474	-0.0008
606.751	-0.0009
607.027	-0.0013
607.304	-0.001
607.58	-0.0007
607.856	-0.0015
608.133	-0.0017
608.409	-0.0009
608.685	-0.0003
608.961	-0.0001
609.237	-0.001
609.513	-0.0007
609.789	-0.0006
610.065	0.0003
610.341	-0.0004
610.616	0.0005
610.892	0.0008
611.167	0.0015
611.443	0.0002
611.718	-0.0004
611.994	0.0005
612.269	-0.0001
612.544	-0.0001
612.819	-0.0002
613.095	-0.0009
613.37	0.0004
613.645	-0.0007
613.919	-0.0007
614.194	0.0002
614.469	0.0011
614.744	-0.0005
615.019	-0.0005
615.293	-0.0008
615.568	-0.0006
615.842	0
616.116	0.0017
616.391	0.0018
616.665	0.0015
616.939	0.0013
617.213	0.0012
617.488	0.0008
617.762	0.0004
618.035	-0.0006
618.309	-0.0007
618.583	0.0008
618.857	0.0015
619.131	0.002
619.404	0.0016
619.678	0.0008
619.951	-0.0004
620.225	0.0001
620.498	-0.0004
620.771	-0.0002
621.045	0.0002
621.318	-0.001
621.591	-0.0009
621.864	-0.0015
622.137	-0.0017
622.41	-0.0016
622.683	-0.0007
622.956	0.0001
623.228	-0.0005
623.501	0
623.774	0.0009
624.046	0.0013
624.319	-0.0003
624.591	-0.0009
624.863	-0.0004
625.136	0.0012
625.408	0.0012
625.68	0.001
625.952	0.0016
626.224	0.0016
626.496	0.0014
626.768	0.0006
627.04	0.0009
627.311	0.0003
627.583	0.0004
627.855	0.002
628.126	0.0025
628.398	0.0025
628.669	0.0027
628.941	0.0028
629.212	0.0024
629.483	0.0017
629.755	0.0012
630.026	0.0014
630.297	0.0024
630.568	0.0016
630.839	0.0022
631.11	0.0018
631.38	0.0026
631.651	0.0027
631.922	0.0013
632.192	0.002
632.463	0.0009
632.733	0.0003
633.004	0.0011
633.274	0.0021
633.545	0.0024
633.815	0.0021
634.085	0.0002
634.355	-0.0015
634.625	0.0001
634.895	0.0003
635.165	-0.0003
635.435	-0.0008
635.705	0.0011
635.974	0.0004
636.244	0.0006
636.514	0.002
636.783	0.0003
637.053	0.0007
637.322	0.0013
637.591	0.0017
637.861	0.0005
638.13	0.0002
638.399	-0.0005
638.668	-0.0001
638.937	-0.0009
639.206	-0.001
639.475	0.0005
639.744	-0.0001
640.013	0.0006
640.281	0.0003
640.55	0.0007
640.819	0.0005
641.087	0.0012
641.356	0.0014
641.624	0.0027
641.892	0.0033
642.161	0.0028
642.429	0.0026
642.697	0.001
642.965	0.0012
643.233	0.0008
643.501	0.0008
643.769	0.0013
644.037	0.001
644.305	0.0005
644.572	0.001
644.84	0.0003
645.108	-0.0003
645.375	-0.001
645.643	-0.0016
645.91	0.0013
646.177	0.002
646.445	0.0007
646.712	0.0025
646.979	0.0038
647.246	0.004
647.513	0.0034
647.78	0.003
648.047	0.0011
648.314	-0.0007
648.58	0.0005
648.847	0.0003
649.114	0.0018
649.38	0.0017
649.647	0.0007
649.913	-0.0001
650.18	0.0026
650.446	0.0022
650.712	0.0005
650.978	0.0011
651.245	0.0004
651.511	0.001
651.777	0.0005
652.043	0.0009
652.309	0.0015
652.574	0.0025
652.84	0.0031
653.106	0.0023
653.371	0.0029
653.637	0.0029
653.903	0.0028
654.168	0.0033
654.433	0.0054
654.699	0.0041
654.964	0.0047
655.229	0.0027
655.494	0.0005
655.759	-0.0036
656.024	0.0001
656.289	-0
656.554	-0.0004
656.819	0
657.084	0.0012
657.349	0.002
657.613	0.0015
657.878	0.0015
658.142	0.001
658.407	0.0013
658.671	0.0013
658.936	0.0015
659.2	0.0014
659.464	0.0027
659.728	0.0017
659.992	0.0016
660.256	0.0004
660.52	0.0019
660.784	0.0012
661.048	0.0011
661.312	0.0014
661.575	0.001
661.839	0.0016
662.103	0.0013
662.366	0.0018
662.63	0.0007
662.893	0.0009
663.156	0.0008
663.42	-0.0003
663.683	-0.0002
663.946	-0.0026
664.209	-0.001
664.472	-0.002
664.735	-0.0011
664.998	-0.0001
665.261	-0.0005
665.524	-0.001
665.786	0.0003
666.049	0.0001
666.312	0
666.574	-0.0004
666.837	0.0008
667.099	0.0009
667.361	0.0003
667.624	0.0004
667.886	-0.0008
668.148	-0.0005
668.41	-0
668.672	-0.0004
668.934	0
669.196	0.0007
669.458	0.0011
669.72	0.0012
669.982	0.0015
670.243	0.0018
670.505	0.0009
670.766	0.0019
671.028	0.0018
671.289	0
671.551	-0.0003
671.812	-0.0016
672.073	0.0006
672.334	0.0006
672.596	0.0001
672.857	-0.0003
673.118	0
673.379	-0.0001
673.639	-0.0012
673.9	-0.0006
674.161	-0.0006
674.422	-0.0013
674.682	-0.0011
674.943	-0.0005
675.203	-0.0003
675.464	-0.0012
675.724	-0.0019
675.985	-0.0007
676.245	-0.0012
676.505	-0.001
676.765	-0.0013
677.025	0.0001
677.285	0.0004
677.545	0.0005
677.805	0
678.065	0.0006
678.325	0.0008
678.585	0.0008
678.844	-0.0006
679.104	-0.0004
679.363	-0.002
679.623	-0.0013
679.882	-0.0013
680.142	0.0002
680.401	-0.0003
680.66	0.0007
680.919	0.0027
681.178	0.0015
681.437	0.0015
681.696	-0
681.955	0.0008
682.214	0.0014
682.473	0.0001
682.732	0.0004
682.99	-0.0001
683.249	0.0008
683.508	0.0008
683.766	-0.0002
684.024	-0.0005
684.283	-0.0003
684.541	0.0003
684.799	0.0004
685.058	0.0009
685.316	-0.0008
685.574	-0.001
685.832	-0.0008
686.09	-0.0003
686.348	-0.0023
686.606	-0.0014
686.863	-0.0009
687.121	0.0009
687.379	0.0008
687.636	0.0001
687.894	0.0015
688.151	0.0014
688.409	0.0007
688.666	-0.0005
688.923	-0.0013
689.181	-0.001
689.438	-0.0009
689.695	-0.0018
689.952	-0.002
690.209	-0.0009
690.466	-0.002
690.723	0.0002
690.979	0.0004
691.236	-0.0005
691.493	0.0002
691.75	0.0011
692.006	0.0004
692.263	0.0004
692.519	0.0001
692.775	0.0007
693.032	0
693.288	-0.0003
693.544	0
693.8	0.0002
694.056	-0.0003
694.313	-0.0005
694.568	0.001
694.824	-0.0007
695.08	-0.0011
695.336	-0.002
695.592	-0.0024
695.847	-0.0006
696.103	-0.0002
696.359	0.0001
696.614	-0.0006
696.869	-0.0014
697.125	-0.0034
697.38	-0.002
697.635	-0.0012
697.891	0.0002
698.146	0.0002
698.401	0.0005
698.656	-0.0001
698.911	0.0003
699.166	0.0016
699.42	0.002
699.675	0.0011
699.93	0.0012
700.185	0.0008
700.439	0.0009
700.694	0.0018
700.948	0.0005
701.203	0
701.457	-0.0004
701.711	-0.0009
701.965	-0.0014
702.22	-0.0009
702.474	-0.0019
702.728	-0.0014
702.982	-0.0018
703.236	-0.0006
703.49	-0.0005
703.743	-0.001
703.997	-0.0003
704.251	-0.0009
704.504	-0.0006
704.758	-0.0015
705.012	0.0008
705.265	0.0009
705.518	0.0014
705.772	0.0016
706.025	0.0011
706.278	-0.0001
706.531	-0.0004
706.785	-0.0015
707.038	-0.0022
707.291	-0.0012
707.543	-0.0014
707.796	-0.001
708.049	-0.0021
708.302	-0.0025
708.555	-0.0034
708.807	-0.0022
709.06	-0.0028
709.312	-0.0018
709.565	-0.0013
709.817	-0.0029
710.069	-0.0018
710.322	-0.0021
710.574	-0.0028
710.826	-0.0026
711.078	-0.0026
711.33	-0.0027
711.582	-0.0029
711.834	-0.0032
712.086	-0.0032
712.338	-0.0042
712.59	-0.0033
712.841	-0.0051
713.093	-0.0039
713.344	-0.0036
713.596	-0.0038
713.847	-0.002
714.099	-0.0018
714.35	-0.002
714.601	-0.0026
714.853	-0.0011
715.104	-0.0021
715.355	-0.0017
715.606	-0.0014
715.857	-0.0007
716.108	-0.0015
716.359	-0.0006
716.609	-0.0018
716.86	-0.0018
717.111	-0.0007
717.361	-0.0006
717.612	0.0005
717.863	0.0012
718.113	0.0016
718.363	0.0007
718.614	0.0023
718.864	0.0019
719.114	0.0017
719.364	0.0024
719.614	0.0012
719.865	0.0032
720.114	0.0037
720.364	0.0038
720.614	0.0035
720.864	0.0028
721.114	0.0023
721.364	0.0015
721.613	0.0018
721.863	0.001
722.112	0.0008
722.362	-0.0002
722.611	-0.0001
722.86	0.0002
723.11	0.0002
723.359	-0.0003
723.608	-0.0004
723.857	-0.0009
724.106	-0
724.355	0.0014
724.604	0.0012
724.853	0.0015
725.102	-0.0005
725.351	-0.0002
725.599	-0.0009
725.848	-0.0011
726.097	-0
726.345	-0.0008
726.594	-0.002
726.842	-0.002
727.09	-0.0031
727.339	-0.0036
727.587	-0.0042
727.835	-0.0034
728.083	-0.0023
728.331	-0.003
728.579	-0.0016
728.827	-0.0016
729.075	-0.0007
729.323	-0.0013
729.571	-0.001
729.818	-0.0001
730.066	-0.0001
730.314	-0.0003
730.561	0.0006
730.809	0.0004
731.056	-0.0005
731.303	0.0006
731.551	0.0001
731.798	0.0004
732.045	0.0003
732.292	0.0015
732.539	0.0011
732.786	0.0016
733.033	0.0002
733.28	0.0002
733.527	-0.0001
733.774	-0.0003
734.021	-0.0028
734.267	-0.0022
734.514	-0.0027
734.76	-0.003
735.007	-0.0025
735.253	-0.0026
735.5	-0.0033
735.746	-0.0027
735.992	-0.0017
736.238	-0.0008
736.485	-0.0003
736.731	0.001
736.977	-0.0008
737.223	-0.0009
737.469	0.0001
737.715	0.0011
737.96	0.0011
738.206	-0.0008
738.452	-0.0003
738.697	0.0004
738.943	-0.0007
739.189	-0.0014
739.434	-0.0006
739.679	-0.0015
739.925	-0.0007
740.17	-0.0017
740.415	-0.0023
740.66	-0.0029
740.906	-0.0028
741.151	-0.0024
741.396	-0.0032
741.641	-0.0032
741.886	-0.0032
742.13	-0.0015
742.375	-0.0013
742.62	-0.0028
742.865	-0.0016
743.109	-0.0004
743.354	0.0001
743.598	0.001
743.843	0.002
744.087	0.003
744.331	0.0033
744.576	0.004
744.82	0.0042
745.064	0.0045
745.308	0.0053
745.552	0.0044
745.796	0.0025
746.04	0.0025
746.284	0.0012
746.528	0.0033
746.771	0.0045
747.015	0.004
747.259	0.0029
747.502	0.0025
747.746	0.0017
747.989	0.0029
748.233	0.0015
748.476	0.003
748.719	0.0037
748.963	0.0053
749.206	0.005
749.449	0.0027
749.692	0.0029
749.935	0.0034
750.178	0.0017
750.421	0.0012
750.664	0.0015
750.906	0.0037
751.149	0.0038
751.392	0.0022
751.635	0.0015
751.877	0.0015
752.12	0.0005
752.362	0.0002
752.604	0.0006
752.847	0.0026
753.089	0.0041
753.331	0.004
753.573	0.0029
753.816	0.0016
754.058	0.0011
754.3	-0.0015
754.542	-0.0004
754.783	-0.0016
755.025	-0.0014
755.267	-0.0014
755.509	-0.0012
755.75	-0.0013
755.992	-0.0007
756.234	-0.0008
756.475	-0.0019
756.716	-0.0023
756.958	-0.0023
757.199	-0.0017
757.44	-0.0012
757.682	-0.0011
757.923	0
758.164	0.001
758.405	0.0015
758.646	0.003
758.887	0.0024
759.128	0.0019
759.369	0.0014
759.609	0.0024
759.85	0.0016
760.091	0.0028
760.331	0.0022
760.572	-0.0004
760.812	-0.0005
761.053	-0.001
761.293	-0.0003
761.533	0.0001
761.774	0.0023
762.014	0.0022
762.254	0.0012
762.494	-0.0001
762.734	0.0002
762.974	-0.0004
763.214	-0.0004
763.454	-0.0004
763.694	-0.0009
763.933	-0.0018
764.173	-0.0029
764.413	-0.0046
764.652	-0.0043
764.892	-0.0037
765.131	-0.0031
765.371	-0.0031
765.61	-0.0029
765.849	-0.0028
766.089	-0.0016
766.328	-0.001
766.567	-0.0012
766.806	-0.0008
767.045	-0.0003
767.284	-0.0017
767.523	-0.0015
767.762	-0.0023
768.001	-0.0023
768.239	-0.0029
768.478	-0.0014
768.717	-0.0016
768.955	-0.0012
769.194	-0.0012
769.432	0.0002
769.671	0.0009
769.909	0.001
770.148	0.001
770.386	0.0018
770.624	0.0034
770.862	0.003
771.1	0.0034
771.338	0.003
771.576	0.0023
771.814	0.0041
772.052	0.0033
772.29	0.0038
772.528	0.0044
772.765	0.0053
773.003	0.0059
773.24	0.0059
773.478	0.0039
773.716	0.0038
773.953	0.0035
774.19	0.0039
774.428	0.0055
774.665	0.005
774.902	0.0053
775.139	0.0051
775.376	0.0045
775.613	0.0039
775.85	0.0027
776.087	0.0023
776.324	0.0013
776.561	0.0013
776.798	0.0006
777.034	0.0004
777.271	0.0022
777.508	0.0032
777.744	0.0029
777.981	0.0039
778.217	0.0043
778.454	0.003
778.69	0.0026
778.926	0.0008
779.162	0.0014
779.399	0.0016
779.635	0.002
779.871	0.0023
780.107	0.0025
780.343	0.0015
780.579	0.002
780.814	0.0015
781.05	0.0018
781.286	-0
781.522	0.0009
781.757	0.002
781.993	0.0017
782.228	0.0015
782.464	0.002
782.699	0.0015
782.934	-0.0001
783.17	0.0011
783.405	0.0013
783.64	0.0001
783.875	-0.0005
784.11	-0.0003
784.345	0.0013
784.58	0.0015
784.815	0.0028
785.05	0.001
785.285	0.0002
785.52	-0.0005
785.754	-0.0014
785.989	-0.0016
786.223	-0.0031
786.458	-0.0032
786.692	-0.0023
786.927	-0.0012
787.161	-0.0008
787.396	-0.0014
787.63	-0.0012
787.864	-0.0024
788.098	-0.0031
788.332	-0.0038
788.566	-0.0032
788.8	-0.003
789.034	-0.0013
789.268	-0.002
789.502	-0.0016
789.736	-0.0015
789.969	-0
790.203	-0.0013
790.437	-0.0021
790.67	-0.0026
790.904	-0.0034
791.137	-0.0035
791.37	-0.0042
791.604	-0.0056
791.837	-0.0059
792.07	-0.0042
792.303	-0.005
792.537	-0.004
792.77	-0.0037
793.003	-0.0038
793.236	-0.003
793.469	-0.0036
793.701	-0.0023
793.934	-0.0007
794.167	-0.0014
794.4	-0.0014
794.632	-0.0007
794.865	0.0009
795.097	0.0007
795.33	-0.0008
795.562	-0.0002
795.795	0.0012
796.027	0.0016
796.259	0.0012
796.491	0.001
796.724	0.0008
796.956	0.0019
797.188	0.0021
797.42	0.0011
797.652	0.0009
797.883	0.0016
798.115	0.0026
798.347	0.0027
798.579	0.0052
798.81	0.0051
799.042	0.0055
799.274	0.0034
799.505	0.0027
799.737	0.0029
799.968	0.0014
800.199	0.0009
800.431	0.0015
800.662	0.0012
800.893	0.0011
801.124	0.0007
801.355	0.0005
801.586	0.0005
801.817	0.0004
802.048	-0.0014
802.279	-0.0008
802.51	0.0003
802.741	0.0016
802.971	0.0018
803.202	0.0018
803.433	0.0017
803.663	0.0004
803.894	0.0007
804.124	0.0006
804.354	0.0004
804.585	0.0004
804.815	0.0007
805.045	0.0009
805.275	-0.0002
805.506	-0.044
805.736	-0.0277
805.966	0.0468
806.196	-0.0128
