Data from 03 0.5 mM K2Cr2O7 0.3 mM BQDS 1 M H2SO4 5 min_Absorbance_0020.txt Node
Date: Mon Dec 13 19:19:44 EST 2021
User: kwabilab-user
Spectrometer: HDX00518
Trigger mode: 0
Integration Time (sec): 5.000000E-2
Scans to average: 50
Nonlinearity correction enabled: false
Boxcar width: 0
Storing dark spectrum: false
XAxis mode: Wavelengths
Number of Pixels in Spectrum: 2068
>>>>>Begin Spectral Data<<<<<
195.27	0.0475
195.642	0.0075
196.014	-0.0254
196.386	-0.0021
196.758	-0.0022
197.129	0.0024
197.501	-0.0042
197.872	0.0308
198.244	0.0471
198.615	0.034
198.986	0.0442
199.357	0.0576
199.728	0.0567
200.099	0.0568
200.47	0.0399
200.841	0.031
201.212	0.0528
201.582	0.0523
201.953	0.0584
202.323	0.0523
202.694	0.066
203.064	0.0346
203.434	0.0666
203.804	0.0381
204.174	0.0459
204.544	0.0513
204.914	0.0674
205.284	0.0569
205.653	0.0481
206.023	0.0708
206.393	0.0306
206.762	0.0798
207.131	0.0653
207.501	0.0433
207.87	0.0598
208.239	0.0827
208.608	0.0533
208.977	0.0458
209.346	0.0534
209.715	0.0513
210.083	0.0338
210.452	0.04
210.82	0.0638
211.189	0.0444
211.557	0.0686
211.925	0.0346
212.294	0.056
212.662	0.0804
213.03	0.0374
213.398	0.0695
213.766	0.0784
214.133	0.0702
214.501	0.0642
214.869	0.0749
215.236	0.0707
215.604	0.0644
215.971	0.0723
216.338	0.0893
216.705	0.0853
217.072	0.1035
217.439	0.0823
217.806	0.0756
218.173	0.0883
218.54	0.1109
218.907	0.0988
219.273	0.1245
219.64	0.1121
220.006	0.1121
220.373	0.118
220.739	0.1427
221.105	0.1669
221.471	0.1712
221.837	0.1782
222.203	0.2113
222.569	0.2133
222.935	0.2318
223.3	0.257
223.666	0.2781
224.031	0.3
224.397	0.2988
224.762	0.3257
225.127	0.3749
225.493	0.3978
225.858	0.4114
226.223	0.4552
226.588	0.4599
226.952	0.4899
227.317	0.5047
227.682	0.5118
228.046	0.5209
228.411	0.5748
228.775	0.5654
229.14	0.5779
229.504	0.607
229.868	0.6318
230.232	0.6394
230.596	0.6488
230.96	0.6604
231.324	0.6631
231.688	0.6844
232.052	0.6959
232.415	0.7087
232.779	0.7127
233.142	0.7256
233.505	0.7331
233.869	0.7473
234.232	0.7352
234.595	0.7255
234.958	0.7402
235.321	0.7451
235.684	0.7506
236.047	0.7572
236.409	0.7454
236.772	0.7589
237.134	0.7567
237.497	0.7566
237.859	0.7614
238.222	0.7571
238.584	0.7581
238.946	0.7686
239.308	0.7484
239.67	0.7651
240.032	0.7438
240.393	0.7614
240.755	0.7463
241.117	0.7594
241.478	0.7537
241.84	0.7599
242.201	0.7462
242.562	0.7368
242.924	0.7413
243.285	0.741
243.646	0.7487
244.007	0.7349
244.368	0.7498
244.728	0.7505
245.089	0.7414
245.45	0.7354
245.81	0.7404
246.171	0.7455
246.531	0.7463
246.891	0.7262
247.252	0.7351
247.612	0.7397
247.972	0.7392
248.332	0.7343
248.692	0.7357
249.051	0.7408
249.411	0.735
249.771	0.7371
250.13	0.7353
250.49	0.7373
250.849	0.7425
251.208	0.7399
251.568	0.7403
251.927	0.7378
252.286	0.7421
252.645	0.7388
253.004	0.7427
253.363	0.7344
253.721	0.7432
254.08	0.7429
254.439	0.742
254.797	0.7352
255.155	0.7362
255.514	0.7395
255.872	0.7383
256.23	0.7434
256.588	0.7479
256.946	0.7395
257.304	0.7374
257.662	0.7418
258.02	0.7436
258.377	0.7366
258.735	0.7363
259.093	0.7426
259.45	0.7361
259.807	0.7339
260.165	0.7382
260.522	0.735
260.879	0.7339
261.236	0.7317
261.593	0.7316
261.95	0.7311
262.306	0.7302
262.663	0.7235
263.02	0.7243
263.376	0.7268
263.733	0.7223
264.089	0.7262
264.445	0.7077
264.802	0.7166
265.158	0.7233
265.514	0.7157
265.87	0.7122
266.226	0.7159
266.581	0.7117
266.937	0.7061
267.293	0.7046
267.648	0.6979
268.004	0.697
268.359	0.6903
268.714	0.6916
269.07	0.6918
269.425	0.6855
269.78	0.6827
270.135	0.6807
270.49	0.6856
270.844	0.675
271.199	0.6782
271.554	0.6705
271.908	0.6646
272.263	0.6702
272.617	0.6616
272.972	0.6578
273.326	0.6505
273.68	0.6465
274.034	0.6464
274.388	0.64
274.742	0.6424
275.096	0.6373
275.45	0.6305
275.803	0.6295
276.157	0.6254
276.51	0.6147
276.864	0.6163
277.217	0.6096
277.571	0.6089
277.924	0.6021
278.277	0.5961
278.63	0.5944
278.983	0.5889
279.336	0.5823
279.688	0.5829
280.041	0.5708
280.394	0.5707
280.746	0.5662
281.099	0.5596
281.451	0.5526
281.803	0.547
282.156	0.5451
282.508	0.5407
282.86	0.5329
283.212	0.5262
283.564	0.523
283.916	0.5192
284.267	0.5127
284.619	0.5073
284.971	0.505
285.322	0.496
285.673	0.4901
286.025	0.4856
286.376	0.4853
286.727	0.477
287.078	0.4739
287.429	0.4657
287.78	0.4619
288.131	0.4586
288.482	0.4502
288.833	0.4424
289.183	0.4402
289.534	0.4344
289.884	0.4281
290.235	0.4247
290.585	0.42
290.935	0.4143
291.285	0.4076
291.635	0.4043
291.985	0.3985
292.335	0.3939
292.685	0.3887
293.035	0.3845
293.384	0.3774
293.734	0.3733
294.083	0.3683
294.433	0.3614
294.782	0.3566
295.131	0.3521
295.48	0.3471
295.829	0.3412
296.179	0.3375
296.527	0.3322
296.876	0.3301
297.225	0.3235
297.574	0.3182
297.922	0.3148
298.271	0.3106
298.619	0.3051
298.968	0.3003
299.316	0.2957
299.664	0.2915
300.012	0.2884
300.36	0.2845
300.708	0.2794
301.056	0.2764
301.404	0.2716
301.752	0.2689
302.099	0.2645
302.447	0.2609
302.794	0.2577
303.142	0.2553
303.489	0.2505
303.836	0.2491
304.183	0.2457
304.531	0.2433
304.878	0.2414
305.224	0.2386
305.571	0.2352
305.918	0.2325
306.265	0.2308
306.611	0.228
306.958	0.2265
307.304	0.2239
307.651	0.2216
307.997	0.2201
308.343	0.2183
308.689	0.2171
309.035	0.2147
309.381	0.214
309.727	0.2123
310.073	0.2117
310.419	0.2108
310.764	0.2085
311.11	0.2081
311.455	0.2079
311.801	0.2067
312.146	0.2057
312.491	0.205
312.837	0.2039
313.182	0.2036
313.527	0.2032
313.872	0.2035
314.216	0.2028
314.561	0.2031
314.906	0.203
315.251	0.2029
315.595	0.2032
315.94	0.2035
316.284	0.2028
316.628	0.203
316.972	0.2046
317.317	0.2049
317.661	0.2054
318.005	0.206
318.348	0.207
318.692	0.2084
319.036	0.2074
319.38	0.2078
319.723	0.2095
320.067	0.2104
320.41	0.2108
320.754	0.2123
321.097	0.2138
321.44	0.2145
321.783	0.2164
322.126	0.2177
322.469	0.2184
322.812	0.2199
323.155	0.2217
323.498	0.2221
323.84	0.2245
324.183	0.2258
324.525	0.228
324.868	0.2288
325.21	0.2294
325.552	0.2322
325.894	0.2339
326.236	0.2355
326.578	0.2364
326.92	0.2387
327.262	0.2406
327.604	0.2426
327.946	0.2432
328.287	0.2462
328.629	0.2473
328.97	0.2488
329.312	0.2509
329.653	0.2522
329.994	0.2547
330.335	0.2565
330.676	0.2586
331.017	0.261
331.358	0.2626
331.699	0.265
332.04	0.2667
332.38	0.2689
332.721	0.2695
333.061	0.2725
333.402	0.2748
333.742	0.2767
334.083	0.2779
334.423	0.2796
334.763	0.2812
335.103	0.2826
335.443	0.2839
335.783	0.2857
336.123	0.2874
336.462	0.2891
336.802	0.2905
337.141	0.2922
337.481	0.2936
337.82	0.2953
338.16	0.2962
338.499	0.2982
338.838	0.2987
339.177	0.3016
339.516	0.3027
339.855	0.3047
340.194	0.3059
340.533	0.3062
340.872	0.3073
341.21	0.3089
341.549	0.3099
341.887	0.3117
342.226	0.3126
342.564	0.3129
342.902	0.3145
343.24	0.3147
343.578	0.3152
343.916	0.3158
344.254	0.3162
344.592	0.3172
344.93	0.3172
345.268	0.3176
345.605	0.3171
345.943	0.318
346.28	0.3183
346.618	0.3184
346.955	0.3187
347.292	0.3192
347.629	0.3185
347.966	0.3193
348.303	0.3199
348.64	0.3199
348.977	0.3198
349.314	0.3201
349.65	0.3201
349.987	0.3195
350.324	0.3198
350.66	0.319
350.996	0.3183
351.333	0.3181
351.669	0.3175
352.005	0.3167
352.341	0.3152
352.677	0.3142
353.013	0.3142
353.349	0.3126
353.685	0.3109
354.02	0.3096
354.356	0.3072
354.691	0.3066
355.027	0.306
355.362	0.3049
355.697	0.3038
356.033	0.302
356.368	0.3018
356.703	0.2996
357.038	0.2991
357.373	0.2971
357.707	0.2966
358.042	0.2953
358.377	0.2944
358.711	0.2924
359.046	0.2913
359.38	0.2907
359.715	0.2894
360.049	0.2879
360.383	0.287
360.717	0.2854
361.051	0.2825
361.385	0.2813
361.719	0.2782
362.053	0.2769
362.387	0.2742
362.72	0.2726
363.054	0.2701
363.387	0.2686
363.721	0.2662
364.054	0.2624
364.387	0.2615
364.721	0.2583
365.054	0.2567
365.387	0.2543
365.72	0.2523
366.053	0.2516
366.385	0.248
366.718	0.247
367.051	0.2452
367.383	0.2432
367.716	0.2412
368.048	0.2402
368.381	0.2376
368.713	0.237
369.045	0.2349
369.377	0.2327
369.709	0.2314
370.041	0.2301
370.373	0.228
370.705	0.2255
371.037	0.2239
371.368	0.2218
371.7	0.221
372.031	0.2177
372.363	0.2154
372.694	0.2124
373.025	0.2102
373.356	0.2079
373.688	0.2057
374.019	0.2025
374.35	0.2001
374.68	0.1986
375.011	0.1963
375.342	0.1931
375.673	0.1912
376.003	0.1886
376.334	0.1861
376.664	0.1838
376.995	0.1819
377.325	0.1786
377.655	0.1782
377.985	0.1759
378.315	0.1739
378.645	0.1726
378.975	0.1704
379.305	0.1688
379.635	0.1687
379.964	0.1667
380.294	0.164
380.623	0.1634
380.953	0.162
381.282	0.1599
381.611	0.157
381.941	0.1555
382.27	0.1537
382.599	0.1524
382.928	0.1501
383.257	0.1487
383.585	0.1468
383.914	0.1453
384.243	0.1429
384.571	0.1405
384.9	0.1376
385.228	0.1363
385.557	0.1338
385.885	0.1322
386.213	0.1296
386.541	0.128
386.869	0.1259
387.197	0.1236
387.525	0.1212
387.853	0.1197
388.181	0.1183
388.508	0.1165
388.836	0.114
389.164	0.1122
389.491	0.1114
389.818	0.1099
390.146	0.1079
390.473	0.1072
390.8	0.1057
391.127	0.1031
391.454	0.1018
391.781	0.1001
392.108	0.0994
392.435	0.0974
392.761	0.0966
393.088	0.0957
393.415	0.0951
393.741	0.094
394.067	0.0927
394.394	0.0919
394.72	0.09
395.046	0.0891
395.372	0.0886
395.698	0.0878
396.024	0.0859
396.35	0.0846
396.676	0.0829
397.001	0.0823
397.327	0.0816
397.653	0.0799
397.978	0.0778
398.303	0.0773
398.629	0.0754
398.954	0.0744
399.279	0.0743
399.604	0.0731
399.929	0.0722
400.254	0.0716
400.579	0.0708
400.904	0.0697
401.229	0.0686
401.553	0.0679
401.878	0.0677
402.202	0.0663
402.527	0.0654
402.851	0.0652
403.175	0.0643
403.5	0.064
403.824	0.0628
404.148	0.0627
404.472	0.0617
404.796	0.0612
405.119	0.0607
405.443	0.0603
405.767	0.0598
406.09	0.06
406.414	0.0595
406.737	0.0585
407.061	0.059
407.384	0.0584
407.707	0.058
408.03	0.0571
408.353	0.0578
408.676	0.0569
408.999	0.0564
409.322	0.057
409.645	0.0559
409.968	0.0562
410.29	0.0557
410.613	0.0561
410.935	0.0558
411.258	0.0552
411.58	0.0549
411.902	0.0548
412.224	0.0541
412.546	0.0546
412.868	0.054
413.19	0.0545
413.512	0.0545
413.834	0.053
414.156	0.054
414.477	0.0542
414.799	0.0539
415.121	0.0537
415.442	0.054
415.763	0.0531
416.085	0.0533
416.406	0.0537
416.727	0.0534
417.048	0.0535
417.369	0.0528
417.69	0.0525
418.011	0.0525
418.331	0.0529
418.652	0.0532
418.973	0.0534
419.293	0.0537
419.614	0.0534
419.934	0.0542
420.254	0.0532
420.574	0.0536
420.895	0.0528
421.215	0.0527
421.535	0.0535
421.855	0.0525
422.174	0.0531
422.494	0.0525
422.814	0.0526
423.134	0.0524
423.453	0.0527
423.773	0.0524
424.092	0.0527
424.411	0.0526
424.731	0.0531
425.05	0.0525
425.369	0.0528
425.688	0.0528
426.007	0.0525
426.326	0.0524
426.644	0.0526
426.963	0.0531
427.282	0.0526
427.6	0.0526
427.919	0.0522
428.237	0.0526
428.556	0.0528
428.874	0.0527
429.192	0.0533
429.51	0.0533
429.828	0.0532
430.146	0.0533
430.464	0.0522
430.782	0.0529
431.1	0.0531
431.418	0.0524
431.735	0.0525
432.053	0.053
432.37	0.0534
432.688	0.0525
433.005	0.0529
433.322	0.0529
433.639	0.0527
433.957	0.053
434.274	0.0526
434.591	0.0528
434.907	0.0525
435.224	0.0526
435.541	0.0523
435.858	0.0529
436.174	0.0539
436.491	0.0517
436.807	0.0513
437.124	0.0522
437.44	0.0528
437.756	0.0518
438.072	0.0527
438.388	0.0524
438.704	0.0517
439.02	0.0524
439.336	0.0516
439.652	0.052
439.968	0.0516
440.283	0.0515
440.599	0.0507
440.914	0.0523
441.23	0.0519
441.545	0.0517
441.86	0.0514
442.175	0.0512
442.491	0.0512
442.806	0.0516
443.121	0.0512
443.435	0.0508
443.75	0.0511
444.065	0.0509
444.38	0.0505
444.694	0.0505
445.009	0.0504
445.323	0.0509
445.638	0.0493
445.952	0.0509
446.266	0.0509
446.58	0.0503
446.894	0.0506
447.208	0.0502
447.522	0.0495
447.836	0.0502
448.15	0.0497
448.464	0.0497
448.777	0.0495
449.091	0.0493
449.404	0.0495
449.718	0.0488
450.031	0.0484
450.345	0.0486
450.658	0.049
450.971	0.0492
451.284	0.0484
451.597	0.0474
451.91	0.0475
452.223	0.048
452.535	0.0473
452.848	0.048
453.161	0.0473
453.473	0.0474
453.786	0.0468
454.098	0.0468
454.411	0.0473
454.723	0.0458
455.035	0.0457
455.347	0.0452
455.659	0.0461
455.971	0.0454
456.283	0.0457
456.595	0.0459
456.907	0.0457
457.218	0.0453
457.53	0.044
457.841	0.0446
458.153	0.0446
458.464	0.0445
458.776	0.0447
459.087	0.0438
459.398	0.0445
459.709	0.0436
460.02	0.0436
460.331	0.0423
460.642	0.0434
460.953	0.0425
461.263	0.0423
461.574	0.0417
461.885	0.0419
462.195	0.0412
462.506	0.0417
462.816	0.0411
463.126	0.0413
463.437	0.0406
463.747	0.04
464.057	0.04
464.367	0.04
464.677	0.039
464.987	0.0389
465.296	0.0391
465.606	0.0384
465.916	0.0385
466.225	0.0388
466.535	0.0389
466.844	0.0386
467.154	0.0375
467.463	0.0376
467.772	0.0365
468.081	0.0374
468.39	0.0369
468.699	0.0365
469.008	0.0363
469.317	0.0368
469.626	0.0345
469.935	0.0348
470.243	0.0354
470.552	0.0354
470.86	0.0351
471.169	0.0345
471.477	0.0346
471.785	0.0349
472.093	0.034
472.402	0.0333
472.71	0.033
473.018	0.0328
473.326	0.0324
473.633	0.0334
473.941	0.0321
474.249	0.0318
474.556	0.0329
474.864	0.0322
475.171	0.0321
475.479	0.0309
475.786	0.0306
476.094	0.0307
476.401	0.0296
476.708	0.0297
477.015	0.0304
477.322	0.03
477.629	0.0294
477.936	0.0291
478.242	0.0284
478.549	0.0285
478.856	0.0297
479.162	0.0271
479.469	0.0278
479.775	0.0275
480.081	0.0276
480.388	0.0272
480.694	0.0274
481	0.0266
481.306	0.0262
481.612	0.0259
481.918	0.0263
482.224	0.026
482.53	0.0259
482.835	0.0258
483.141	0.0256
483.446	0.0249
483.752	0.0244
484.057	0.0238
484.363	0.0243
484.668	0.0237
484.973	0.0231
485.278	0.0232
485.583	0.0229
485.888	0.0225
486.193	0.022
486.498	0.0223
486.803	0.0226
487.107	0.0222
487.412	0.0219
487.717	0.0212
488.021	0.0213
488.325	0.0218
488.63	0.0215
488.934	0.0211
489.238	0.0209
489.542	0.0198
489.846	0.02
490.15	0.0201
490.454	0.0195
490.758	0.0194
491.062	0.0197
491.366	0.0184
491.669	0.0185
491.973	0.0195
492.276	0.0184
492.58	0.0181
492.883	0.0171
493.186	0.017
493.489	0.0168
493.792	0.0161
494.096	0.0167
494.399	0.0161
494.701	0.0161
495.004	0.0149
495.307	0.0162
495.61	0.0154
495.912	0.0157
496.215	0.014
496.517	0.0143
496.82	0.0149
497.122	0.0142
497.424	0.0149
497.727	0.0135
498.029	0.0125
498.331	0.0147
498.633	0.0131
498.935	0.0136
499.237	0.0127
499.538	0.0129
499.84	0.012
500.142	0.0125
500.443	0.0123
500.745	0.0119
501.046	0.0115
501.348	0.0117
501.649	0.0111
501.95	0.0109
502.251	0.0105
502.552	0.0107
502.853	0.0103
503.154	0.0106
503.455	0.0099
503.756	0.0103
504.057	0.011
504.357	0.0089
504.658	0.0109
504.958	0.0101
505.259	0.0101
505.559	0.0095
505.859	0.0086
506.16	0.008
506.46	0.0091
506.76	0.009
507.06	0.0084
507.36	0.0093
507.66	0.008
507.96	0.0082
508.259	0.0082
508.559	0.0094
508.859	0.0083
509.158	0.0081
509.457	0.0071
509.757	0.0074
510.056	0.0077
510.355	0.0074
510.655	0.0068
510.954	0.0073
511.253	0.0074
511.552	0.0063
511.851	0.0064
512.149	0.0052
512.448	0.0061
512.747	0.006
513.045	0.0056
513.344	0.0042
513.642	0.005
513.941	0.0051
514.239	0.0058
514.537	0.004
514.836	0.0057
515.134	0.0048
515.432	0.0067
515.73	0.005
516.028	0.0051
516.326	0.0055
516.623	0.0051
516.921	0.0025
517.219	0.0041
517.516	0.0051
517.814	0.0041
518.111	0.0041
518.409	0.0036
518.706	0.0029
519.003	0.0046
519.3	0.0032
519.597	0.0032
519.894	0.004
520.191	0.0027
520.488	0.0031
520.785	0.0029
521.082	0.0031
521.378	0.0023
521.675	0.0026
521.971	0.002
522.268	0.0027
522.564	0.0031
522.861	0.0037
523.157	0.003
523.453	0.0031
523.749	0.0026
524.045	0.0029
524.341	0.0033
524.637	0.0014
524.933	0.0017
525.229	0.0022
525.524	0.001
525.82	0.0009
526.115	0.0012
526.411	0.0016
526.706	0.0013
527.002	0.0024
527.297	0.001
527.592	0.0024
527.887	0.0029
528.182	0.0022
528.477	0.0023
528.772	0.0025
529.067	0.0021
529.362	0.0017
529.657	0.0006
529.951	0.001
530.246	0.0006
530.54	0.0017
530.835	0.0017
531.129	0.0006
531.423	0.0014
531.718	0.0011
532.012	0.0008
532.306	0.0009
532.6	-0.0004
532.894	0.0001
533.188	0.0013
533.482	0.0012
533.775	0.0009
534.069	0.0007
534.363	-0.0003
534.656	-0.0005
534.95	0.0013
535.243	0.0001
535.536	0.0012
535.83	-0.0004
536.123	-0.0008
536.416	-0
536.709	-0.0004
537.002	-0.0006
537.295	-0.0005
537.588	-0.0004
537.881	-0.0002
538.173	0.0002
538.466	-0.0002
538.759	-0.0001
539.051	0.0005
539.344	-0.0007
539.636	-0.0003
539.928	0.0001
540.22	0.0003
540.513	0.0008
540.805	0.0009
541.097	-0.0007
541.389	-0.0003
541.681	0.0007
541.972	0.0015
542.264	0.001
542.556	0.0011
542.847	0.0016
543.139	0.0016
543.431	0.0005
543.722	0.0001
544.013	0.0005
544.305	0.0001
544.596	-0.0003
544.887	-0.0003
545.178	0.0012
545.469	-0.0017
545.76	0.0004
546.051	0.0009
546.342	-0.0009
546.632	0.0005
546.923	0.0002
547.214	0.0004
547.504	-0.0012
547.795	-0.0004
548.085	-0.0007
548.375	-0.001
548.666	-0.0007
548.956	-0.0006
549.246	-0.0005
549.536	0.0003
549.826	-0.0008
550.116	0.0003
550.406	-0.001
550.695	-0.0012
550.985	-0.0001
551.275	-0.0004
551.564	-0.0004
551.854	-0.0001
552.143	-0.0009
552.433	-0.0015
552.722	-0.0016
553.011	0.0006
553.3	-0.0003
553.589	0.0004
553.879	-0.0001
554.167	-0.0011
554.456	0.0005
554.745	0.001
555.034	-0.0014
555.323	0.0005
555.611	-0.0004
555.9	0.0003
556.188	-0.0012
556.477	0.0001
556.765	-0.0018
557.053	-0.001
557.342	-0.0002
557.63	-0.0008
557.918	0.0003
558.206	0.0008
558.494	-0.0003
558.782	0.0002
559.069	0.0009
559.357	0.0004
559.645	-0.0007
559.932	-0.0007
560.22	-0.0007
560.507	-0.0014
560.795	-0.0014
561.082	-0.0014
561.37	-0.0005
561.657	-0.0015
561.944	-0.0013
562.231	-0.0004
562.518	-0.0001
562.805	-0.0005
563.092	0.0004
563.379	0.0005
563.665	-0.0002
563.952	-0.0001
564.239	-0
564.525	-0.0002
564.811	0.0009
565.098	0.0002
565.384	-0.0004
565.67	0.0015
565.957	0.0013
566.243	0.0019
566.529	0.0002
566.815	0.0011
567.101	0.0009
567.387	0.0001
567.672	0.0005
567.958	0.0009
568.244	0.0004
568.529	0.0009
568.815	-0.0002
569.1	-0.0006
569.386	-0.0012
569.671	0.0006
569.956	-0.0002
570.242	0.0001
570.527	-0.0008
570.812	-0.0003
571.097	0.0005
571.382	-0.0004
571.666	0.0009
571.951	0.0001
572.236	0.0003
572.521	0.0011
572.805	-0
573.09	-0.0006
573.374	-0.0007
573.659	-0.0004
573.943	-0.0003
574.227	-0.0002
574.511	-0.0006
574.795	0.0007
575.079	0
575.363	-0.0001
575.647	0.0002
575.931	0.0001
576.215	-0.0009
576.499	-0.0013
576.782	-0.0012
577.066	-0.0009
577.349	-0.0002
577.633	-0.0006
577.916	-0.0007
578.2	-0.0001
578.483	-0.0001
578.766	-0.0002
579.049	0.0002
579.332	0.0003
579.615	-0
579.898	0.001
580.181	0.0007
580.464	0.0014
580.746	-0
581.029	0.0003
581.312	-0.0005
581.594	-0.0009
581.877	-0.0008
582.159	-0.0005
582.441	-0.0004
582.724	-0.0008
583.006	0.0003
583.288	0
583.57	0.0009
583.852	0.0005
584.134	-0.0001
584.416	-0.0001
584.697	0.0004
584.979	-0.0011
585.261	-0.0014
585.542	-0.0009
585.824	-0.0008
586.105	-0.0009
586.387	-0.0007
586.668	-0.0005
586.949	0
587.231	0.0003
587.512	-0.0004
587.793	0.0003
588.074	-0.0004
588.355	0
588.636	-0.0005
588.916	-0.0007
589.197	-0.0003
589.478	-0.0003
589.758	-0.0002
590.039	-0.0002
590.319	0.0004
590.6	0.0005
590.88	0.0006
591.16	0.0008
591.441	0.0007
591.721	-0.0013
592.001	0.0001
592.281	-0.0005
592.561	0.0001
592.841	-0.001
593.12	-0.002
593.4	-0.001
593.68	-0.002
593.959	-0.0007
594.239	-0.0013
594.518	-0.0002
594.798	-0.0001
595.077	-0.0009
595.356	-0.0014
595.636	-0.0006
595.915	-0.0003
596.194	0
596.473	-0.0002
596.752	0.0005
597.031	0.0001
597.31	-0.0005
597.588	-0.0009
597.867	-0.0013
598.146	-0.001
598.424	-0.0004
598.703	-0.0003
598.981	-0.0015
599.259	-0.0013
599.538	-0.0001
599.816	-0.0007
600.094	-0.0007
600.372	-0.0017
600.65	-0.0013
600.928	-0.001
601.206	-0.0005
601.484	0.0001
601.762	0.0001
602.04	-0.0007
602.317	-0.0006
602.595	-0
602.872	-0.0005
603.15	0.0004
603.427	-0.0019
603.704	-0.0008
603.982	-0.0005
604.259	-0.0005
604.536	-0.0007
604.813	-0.0006
605.09	-0.0009
605.367	-0.001
605.644	-0.0016
605.921	-0.0013
606.197	-0.0012
606.474	-0.0002
606.751	-0.0009
607.027	-0.0008
607.304	-0.0012
607.58	-0.0006
607.856	-0.0015
608.133	-0.0016
608.409	-0.0006
608.685	-0.0006
608.961	-0.0013
609.237	-0.0012
609.513	-0.0012
609.789	-0.0014
610.065	-0.0009
610.341	-0.0011
610.616	0.0001
610.892	0.0002
611.167	0.0008
611.443	0.0003
611.718	0
611.994	0.0003
612.269	0.0001
612.544	-0.0007
612.819	-0.0007
613.095	-0.0006
613.37	0.0001
613.645	-0.0003
613.919	-0.0006
614.194	-0.0002
614.469	0.0002
614.744	-0.0001
615.019	-0.0008
615.293	-0.0006
615.568	-0.0009
615.842	-0.0005
616.116	0.001
616.391	0.0012
616.665	0.0009
616.939	0.0008
617.213	0.0013
617.488	0.0004
617.762	-0.0008
618.035	-0.001
618.309	-0.0016
618.583	0.001
618.857	0.0006
619.131	0.0005
619.404	0.0007
619.678	0.0007
619.951	-0.0006
620.225	-0
620.498	-0.0002
620.771	0.0004
621.045	-0.0005
621.318	-0.0011
621.591	-0.0021
621.864	-0.0017
622.137	-0.0021
622.41	-0.0018
622.683	-0.0005
622.956	-0.0008
623.228	-0.0007
623.501	0.0004
623.774	0.0004
624.046	-0.0004
624.319	-0.0013
624.591	-0.0013
624.863	-0.0003
625.136	-0.0001
625.408	0
625.68	0.0006
625.952	0.0005
626.224	0.0009
626.496	-0
626.768	-0.0004
627.04	-0.0003
627.311	-0.001
627.583	0.0007
627.855	0.002
628.126	0.0019
628.398	0.0011
628.669	0.0023
628.941	0.0017
629.212	0.0013
629.483	0.0004
629.755	0
630.026	-0.0004
630.297	0.0002
630.568	0.0003
630.839	0.0009
631.11	0.0003
631.38	0.0009
631.651	0.0015
631.922	0.0003
632.192	-0.0005
632.463	-0.0005
632.733	-0.0004
633.004	-0.0006
633.274	0.0001
633.545	-0.0007
633.815	0.0002
634.085	-0.0008
634.355	-0.0014
634.625	-0.0013
634.895	-0.001
635.165	-0.0014
635.435	-0.0028
635.705	-0.0008
635.974	-0.0021
636.244	-0.0006
636.514	0.0004
636.783	-0.0007
637.053	-0.0015
637.322	-0.0005
637.591	0.0002
637.861	-0.002
638.13	-0.0011
638.399	-0.0027
638.668	-0.0021
638.937	-0.0029
639.206	-0.0038
639.475	-0.0031
639.744	-0.0031
640.013	-0.002
640.281	-0.0028
640.55	-0.0021
640.819	-0.0017
641.087	-0.0016
641.356	-0.0025
641.624	-0.002
641.892	-0.0008
642.161	-0.0013
642.429	-0.0019
642.697	-0.0009
642.965	-0.001
643.233	-0.0015
643.501	-0.0013
643.769	-0.001
644.037	-0.0008
644.305	-0.0015
644.572	-0.0017
644.84	-0.0026
645.108	-0.0016
645.375	-0.0027
645.643	-0.0034
645.91	-0.0018
646.177	-0.0012
646.445	-0.0016
646.712	-0.0004
646.979	0.0004
647.246	0.0017
647.513	0.0008
647.78	-0.0002
648.047	-0.002
648.314	-0.0024
648.58	-0.0012
648.847	-0.0013
649.114	0
649.38	-0.0007
649.647	-0.001
649.913	-0.0017
650.18	-0.0006
650.446	-0.0007
650.712	-0.0017
650.978	-0.0018
651.245	-0.0017
651.511	-0.0013
651.777	-0.0019
652.043	-0.0026
652.309	-0.0019
652.574	-0.0005
652.84	-0.0007
653.106	-0.0009
653.371	-0.0003
653.637	0.0003
653.903	0.0009
654.168	0.0007
654.433	0.0023
654.699	0.0011
654.964	0.002
655.229	0.0007
655.494	-0.0011
655.759	-0.0035
656.024	-0.0003
656.289	-0
656.554	0.0012
656.819	-0.0005
657.084	-0.0005
657.349	-0.0006
657.613	-0.0002
657.878	-0.0011
658.142	-0.0012
658.407	-0.0017
658.671	0.0001
658.936	-0.0008
659.2	-0.0004
659.464	-0.0003
659.728	-0.0007
659.992	-0.0018
660.256	-0.0005
660.52	-0.0016
660.784	-0.0016
661.048	-0.0005
661.312	-0.0001
661.575	-0.0006
661.839	0.0006
662.103	-0.0005
662.366	-0.0008
662.63	-0.0012
662.893	-0.0015
663.156	-0.0011
663.42	-0.0019
663.683	-0.0023
663.946	-0.0044
664.209	-0.0026
664.472	-0.003
664.735	-0.0024
664.998	-0.002
665.261	-0.0028
665.524	-0.0026
665.786	-0.0016
666.049	-0.0018
666.312	-0.0016
666.574	-0.0025
666.837	-0.0019
667.099	-0.0012
667.361	-0.0018
667.624	-0.0019
667.886	-0.0029
668.148	-0.002
668.41	-0.0017
668.672	-0.0027
668.934	-0.0012
669.196	-0.0013
669.458	-0.0003
669.72	0.0005
669.982	0.0005
670.243	0.0009
670.505	-0.0003
670.766	-0.0001
671.028	-0.0009
671.289	-0.0026
671.551	-0.0023
671.812	-0.0038
672.073	-0.0017
672.334	-0.002
672.596	-0.003
672.857	-0.0034
673.118	-0.003
673.379	-0.0032
673.639	-0.0029
673.9	-0.0022
674.161	-0.0034
674.422	-0.003
674.682	-0.0029
674.943	-0.0024
675.203	-0.0033
675.464	-0.0036
675.724	-0.0039
675.985	-0.0039
676.245	-0.0041
676.505	-0.0042
676.765	-0.0032
677.025	-0.0038
677.285	-0.0035
677.545	-0.0024
677.805	-0.0021
678.065	-0.001
678.325	-0.0014
678.585	-0.0026
678.844	-0.003
679.104	-0.0034
679.363	-0.0042
679.623	-0.0034
679.882	-0.0029
680.142	-0.0025
680.401	-0.0024
680.66	-0.0019
680.919	-0.0005
681.178	-0.0021
681.437	-0.0015
681.696	-0.0022
681.955	-0.0012
682.214	-0.0018
682.473	-0.0024
682.732	-0.0036
682.99	-0.0021
683.249	-0.0017
683.508	-0.002
683.766	-0.0024
684.024	-0.0024
684.283	-0.0024
684.541	-0.002
684.799	-0.0024
685.058	-0.0019
685.316	-0.0031
685.574	-0.0027
685.832	-0.0034
686.09	-0.0031
686.348	-0.0051
686.606	-0.0042
686.863	-0.0043
687.121	-0.0025
687.379	-0.002
687.636	-0.0029
687.894	-0.0011
688.151	-0.0015
688.409	-0.0011
688.666	-0.0027
688.923	-0.0029
689.181	-0.0026
689.438	-0.0035
689.695	-0.0033
689.952	-0.0042
690.209	-0.0044
690.466	-0.0036
690.723	-0.0031
690.979	-0.0035
691.236	-0.0031
691.493	-0.002
691.75	-0.0024
692.006	-0.0026
692.263	-0.0035
692.519	-0.0031
692.775	-0.003
693.032	-0.0033
693.288	-0.0027
693.544	-0.0014
693.8	-0.0018
694.056	-0.0021
694.313	-0.0031
694.568	-0.0021
694.824	-0.0034
695.08	-0.0028
695.336	-0.0042
695.592	-0.0039
695.847	-0.0024
696.103	-0.0027
696.359	-0.003
696.614	-0.0035
696.869	-0.0041
697.125	-0.0048
697.38	-0.003
697.635	-0.0026
697.891	-0.0023
698.146	-0.0019
698.401	-0.0027
698.656	-0.0021
698.911	-0.0021
699.166	-0.0022
699.42	-0.0017
699.675	-0.0021
699.93	-0.0017
700.185	-0.0026
700.439	-0.0019
700.694	-0.0025
700.948	-0.0024
701.203	-0.0027
701.457	-0.0035
701.711	-0.0043
701.965	-0.0046
702.22	-0.0045
702.474	-0.0053
702.728	-0.0035
702.982	-0.0032
703.236	-0.0018
703.49	-0.0017
703.743	-0.0014
703.997	-0.0013
704.251	-0.0025
704.504	-0.002
704.758	-0.0026
705.012	-0.0021
705.265	-0.0019
705.518	-0.0008
705.772	-0.0018
706.025	-0.0013
706.278	-0.0017
706.531	-0.0022
706.785	-0.0022
707.038	-0.0029
707.291	-0.0021
707.543	-0.0024
707.796	-0.0023
708.049	-0.0031
708.302	-0.0043
708.555	-0.0054
708.807	-0.0046
709.06	-0.0053
709.312	-0.0044
709.565	-0.0045
709.817	-0.005
710.069	-0.0051
710.322	-0.0052
710.574	-0.0053
710.826	-0.0046
711.078	-0.0048
711.33	-0.0043
711.582	-0.0057
711.834	-0.0053
712.086	-0.0056
712.338	-0.0056
712.59	-0.0049
712.841	-0.0061
713.093	-0.0053
713.344	-0.0051
713.596	-0.0054
713.847	-0.0042
714.099	-0.0044
714.35	-0.0051
714.601	-0.0048
714.853	-0.0032
715.104	-0.0041
715.355	-0.0044
715.606	-0.0039
715.857	-0.0036
716.108	-0.005
716.359	-0.0041
716.609	-0.0047
716.86	-0.0043
717.111	-0.0042
717.361	-0.0045
717.612	-0.0029
717.863	-0.0025
718.113	-0.0022
718.363	-0.0022
718.614	-0.0006
718.864	-0.0002
719.114	-0.0014
719.364	-0.001
719.614	-0.0013
719.865	-0.0005
720.114	0.0001
720.364	0
720.614	0.0006
720.864	-0.0006
721.114	-0.0006
721.364	-0.0013
721.613	-0.0007
721.863	-0.0016
722.112	-0.0023
722.362	-0.0029
722.611	-0.0028
722.86	-0.003
723.11	-0.0027
723.359	-0.0026
723.608	-0.0023
723.857	-0.0019
724.106	-0.0019
724.355	-0.001
724.604	-0.0011
724.853	-0.0012
725.102	-0.0035
725.351	-0.0031
725.599	-0.0038
725.848	-0.0031
726.097	-0.0017
726.345	-0.0024
726.594	-0.0045
726.842	-0.004
727.09	-0.0047
727.339	-0.0056
727.587	-0.0052
727.835	-0.0049
728.083	-0.0048
728.331	-0.0051
728.579	-0.0043
728.827	-0.0036
729.075	-0.0037
729.323	-0.0037
729.571	-0.0036
729.818	-0.0033
730.066	-0.0028
730.314	-0.0033
730.561	-0.0012
730.809	-0.0015
731.056	-0.0013
731.303	0.0001
731.551	-0.0016
731.798	-0.001
732.045	-0.0015
732.292	0.0003
732.539	-0
732.786	-0.0001
733.033	-0.0009
733.28	0.0003
733.527	-0.0004
733.774	-0.0016
734.021	-0.0024
734.267	-0.0035
734.514	-0.0035
734.76	-0.0032
735.007	-0.0027
735.253	-0.0036
735.5	-0.0034
735.746	-0.0028
735.992	-0.0021
736.238	-0.0019
736.485	-0.0014
736.731	-0.0017
736.977	-0.003
737.223	-0.0023
737.469	-0.0019
737.715	-0.0011
737.96	-0.0024
738.206	-0.0036
738.452	-0.003
738.697	-0.0023
738.943	-0.0025
739.189	-0.0024
739.434	-0.0014
739.679	-0.0024
739.925	-0.0029
740.17	-0.0042
740.415	-0.0042
740.66	-0.0056
740.906	-0.005
741.151	-0.0047
741.396	-0.0048
741.641	-0.0052
741.886	-0.0045
742.13	-0.0025
742.375	-0.0019
742.62	-0.0032
742.865	-0.0024
743.109	-0.0011
743.354	-0.0004
743.598	0.0004
743.843	-0.0002
744.087	0.0003
744.331	-0.0003
744.576	-0.0001
744.82	0.0007
745.064	0.0011
745.308	0.0016
745.552	0.002
745.796	0.0013
746.04	0.0019
746.284	0.0005
746.528	0.001
746.771	0.0023
747.015	0.0015
747.259	0.0012
747.502	-0.0006
747.746	-0.0005
747.989	-0.0008
748.233	-0.0014
748.476	0.0004
748.719	0.0005
748.963	0.0015
749.206	0.0008
749.449	-0.0002
749.692	0.0002
749.935	0.0008
750.178	-0.0007
750.421	-0.0008
750.664	0.0002
750.906	0.0013
751.149	0.0011
751.392	0.001
751.635	-0.0005
751.877	-0
752.12	-0.0005
752.362	-0.0015
752.604	-0.0004
752.847	0.001
753.089	0.0018
753.331	0.002
753.573	0.0007
753.816	-0.0008
754.058	-0.0017
754.3	-0.0033
754.542	-0.0032
754.783	-0.0043
755.025	-0.0036
755.267	-0.0026
755.509	-0.003
755.75	-0.0034
755.992	-0.0033
756.234	-0.0037
756.475	-0.0038
756.716	-0.0041
756.958	-0.0021
757.199	-0.0022
757.44	-0.0012
757.682	-0.0018
757.923	0.0003
758.164	0.0006
758.405	0.0001
758.646	0.0019
758.887	0.0017
759.128	0.0016
759.369	0.0004
759.609	0.0018
759.85	0.0008
760.091	0.0009
760.331	0.0009
760.572	-0.0007
760.812	-0.001
761.053	-0.0013
761.293	-0.0006
761.533	0.0001
761.774	0.0016
762.014	0.0015
762.254	0.0013
762.494	-0.0005
762.734	0.0004
762.974	-0.0007
763.214	0.0001
763.454	-0.0004
763.694	-0.0008
763.933	-0.0016
764.173	-0.0038
764.413	-0.0044
764.652	-0.0045
764.892	-0.0034
765.131	-0.0033
765.371	-0.003
765.61	-0.0031
765.849	-0.0032
766.089	-0.003
766.328	-0.0028
766.567	-0.0038
766.806	-0.0026
767.045	-0.0021
767.284	-0.0033
767.523	-0.0027
767.762	-0.0035
768.001	-0.0029
768.239	-0.0033
768.478	-0.0025
768.717	-0.0026
768.955	-0.0023
769.194	-0.0024
769.432	-0.0012
769.671	-0.0005
769.909	0.0001
770.148	0.0004
770.386	0.0003
770.624	0.0012
770.862	0.0011
771.1	0.0021
771.338	0.0013
771.576	0.0001
771.814	0.0013
772.052	0.0017
772.29	0.0031
772.528	0.0032
772.765	0.0045
773.003	0.0052
773.24	0.0046
773.478	0.0028
773.716	0.0031
773.953	0.0017
774.19	0.0018
774.428	0.0026
774.665	0.0021
774.902	0.0028
775.139	0.003
775.376	0.002
775.613	0.0025
775.85	0.0022
776.087	0.0015
776.324	0.0014
776.561	0.0016
776.798	0
777.034	-0
777.271	0.0013
777.508	0.0014
777.744	0.0024
777.981	0.003
778.217	0.0031
778.454	0.0024
778.69	0.0019
778.926	0.0009
779.162	0.0006
779.399	0.0011
779.635	0.0005
779.871	0.0007
780.107	0.001
780.343	-0.0003
780.579	0.0004
780.814	-0.0003
781.05	0.0004
781.286	-0.0013
781.522	-0.0007
781.757	-0.0011
781.993	-0.0009
782.228	-0.0012
782.464	-0.0006
782.699	-0.0013
782.934	-0.002
783.17	-0.0019
783.405	-0.0017
783.64	-0.0023
783.875	-0.0036
784.11	-0.0034
784.345	-0.0019
784.58	-0.001
784.815	-0.0011
785.05	-0.0015
785.285	-0.0024
785.52	-0.0016
785.754	-0.0022
785.989	-0.0022
786.223	-0.0044
786.458	-0.0039
786.692	-0.0026
786.927	-0.0025
787.161	-0.0019
787.396	-0.0032
787.63	-0.0031
787.864	-0.0047
788.098	-0.0056
788.332	-0.0057
788.566	-0.0048
788.8	-0.0048
789.034	-0.0031
789.268	-0.0032
789.502	-0.0028
789.736	-0.0025
789.969	-0.0024
790.203	-0.0035
790.437	-0.0037
790.67	-0.0045
790.904	-0.0064
791.137	-0.0068
791.37	-0.0074
791.604	-0.0072
791.837	-0.0075
792.07	-0.0057
792.303	-0.0059
792.537	-0.0057
792.77	-0.0059
793.003	-0.0052
793.236	-0.0039
793.469	-0.0034
793.701	-0.0023
793.934	-0.0016
794.167	-0.001
794.4	-0.0012
794.632	-0.0005
794.865	0.0002
795.097	-0.0001
795.33	-0.0023
795.562	-0.001
795.795	0.0001
796.027	0
796.259	0.0002
796.491	-0.0001
796.724	-0.0009
796.956	0.0006
797.188	-0.0006
797.42	-0.0003
797.652	-0.0013
797.883	0.0001
798.115	-0.0003
798.347	-0.0008
798.579	0.0008
798.81	0
799.042	0.0006
799.274	-0.0002
799.505	-0.0001
799.737	-0.0006
799.968	-0.0017
800.199	-0.0019
800.431	-0.0022
800.662	-0.0025
800.893	-0.0024
801.124	-0.0032
801.355	-0.004
801.586	-0.0026
801.817	-0.0031
802.048	-0.0044
802.279	-0.0045
802.51	-0.0026
802.741	-0.0021
802.971	-0.0012
803.202	-0.0014
803.433	-0.0012
803.663	-0.0031
803.894	-0.004
804.124	-0.0045
804.354	-0.0043
804.585	-0.0046
804.815	-0.0042
805.045	-0.005
805.275	-0.0034
805.506	-0.044
805.736	0.0271
805.966	-0.0401
806.196	0.0268
