Data from 03 0.5 mM K2Cr2O7 0.3 mM BQDS 1 M H2SO4 5 min_Absorbance_0180.txt Node
Date: Tue Dec 14 08:39:45 EST 2021
User: kwabilab-user
Spectrometer: HDX00518
Trigger mode: 0
Integration Time (sec): 5.000000E-2
Scans to average: 50
Nonlinearity correction enabled: false
Boxcar width: 0
Storing dark spectrum: false
XAxis mode: Wavelengths
Number of Pixels in Spectrum: 2068
>>>>>Begin Spectral Data<<<<<
195.27	0.1523
195.642	0.3979
196.014	0.0211
196.386	0.1999
196.758	0.0478
197.129	0.0327
197.501	0.0238
197.872	0.0164
198.244	0.0493
198.615	0.071
198.986	0.0579
199.357	0.0599
199.728	0.061
200.099	0.0584
200.47	0.0584
200.841	0.0457
201.212	0.0675
201.582	0.0659
201.953	0.0469
202.323	0.0575
202.694	0.0649
203.064	0.039
203.434	0.0734
203.804	0.0444
204.174	0.0801
204.544	0.061
204.914	0.069
205.284	0.0611
205.653	0.0466
206.023	0.0567
206.393	0.0428
206.762	0.0652
207.131	0.0616
207.501	0.0667
207.87	0.0719
208.239	0.055
208.608	0.0644
208.977	0.0613
209.346	0.061
209.715	0.0362
210.083	0.0392
210.452	0.0353
210.82	0.0766
211.189	0.0547
211.557	0.0728
211.925	0.0384
212.294	0.0592
212.662	0.0486
213.03	0.0469
213.398	0.0812
213.766	0.0913
214.133	0.0677
214.501	0.0744
214.869	0.0796
215.236	0.0548
215.604	0.0633
215.971	0.0812
216.338	0.0793
216.705	0.1035
217.072	0.0986
217.439	0.0845
217.806	0.0907
218.173	0.086
218.54	0.0914
218.907	0.0866
219.273	0.1007
219.64	0.1143
220.006	0.1245
220.373	0.1192
220.739	0.1155
221.105	0.1464
221.471	0.172
221.837	0.1687
222.203	0.2123
222.569	0.2073
222.935	0.2301
223.3	0.2493
223.666	0.2698
224.031	0.2812
224.397	0.2936
224.762	0.3447
225.127	0.3614
225.493	0.38
225.858	0.4275
226.223	0.4256
226.588	0.4349
226.952	0.4755
227.317	0.4921
227.682	0.5041
228.046	0.5191
228.411	0.5285
228.775	0.5446
229.14	0.5547
229.504	0.5877
229.868	0.5971
230.232	0.5891
230.596	0.6054
230.96	0.6288
231.324	0.6252
231.688	0.6391
232.052	0.6542
232.415	0.666
232.779	0.6518
233.142	0.6521
233.505	0.6661
233.869	0.6726
234.232	0.6726
234.595	0.6753
234.958	0.6767
235.321	0.6762
235.684	0.6749
236.047	0.6796
236.409	0.6688
236.772	0.6679
237.134	0.6788
237.497	0.6731
237.859	0.6702
238.222	0.6733
238.584	0.6684
238.946	0.6574
239.308	0.6494
239.67	0.6561
240.032	0.6492
240.393	0.6632
240.755	0.648
241.117	0.6568
241.478	0.6444
241.84	0.6397
242.201	0.6343
242.562	0.6188
242.924	0.6319
243.285	0.622
243.646	0.6207
244.007	0.627
244.368	0.6279
244.728	0.6301
245.089	0.6261
245.45	0.6209
245.81	0.6089
246.171	0.6128
246.531	0.6108
246.891	0.613
247.252	0.6076
247.612	0.6046
247.972	0.6005
248.332	0.6048
248.692	0.6014
249.051	0.6003
249.411	0.6047
249.771	0.5882
250.13	0.5925
250.49	0.599
250.849	0.5962
251.208	0.5983
251.568	0.5962
251.927	0.5969
252.286	0.5903
252.645	0.5989
253.004	0.5911
253.363	0.5923
253.721	0.595
254.08	0.5892
254.439	0.5875
254.797	0.5867
255.155	0.5854
255.514	0.5788
255.872	0.5887
256.23	0.5811
256.588	0.5871
256.946	0.5869
257.304	0.5763
257.662	0.5784
258.02	0.5756
258.377	0.5767
258.735	0.5732
259.093	0.5699
259.45	0.5654
259.807	0.5716
260.165	0.5711
260.522	0.5635
260.879	0.5613
261.236	0.5624
261.593	0.5568
261.95	0.5548
262.306	0.5557
262.663	0.5505
263.02	0.5494
263.376	0.552
263.733	0.5464
264.089	0.5424
264.445	0.5394
264.802	0.5394
265.158	0.5377
265.514	0.531
265.87	0.5325
266.226	0.5354
266.581	0.5235
266.937	0.5259
267.293	0.5218
267.648	0.516
268.004	0.517
268.359	0.5125
268.714	0.5084
269.07	0.5075
269.425	0.5034
269.78	0.5021
270.135	0.501
270.49	0.5008
270.844	0.4981
271.199	0.4913
271.554	0.4889
271.908	0.4817
272.263	0.4878
272.617	0.4776
272.972	0.4725
273.326	0.4723
273.68	0.4656
274.034	0.4648
274.388	0.4668
274.742	0.4593
275.096	0.4593
275.45	0.4512
275.803	0.446
276.157	0.4461
276.51	0.4387
276.864	0.4361
277.217	0.4339
277.571	0.4329
277.924	0.4275
278.277	0.4237
278.63	0.419
278.983	0.4139
279.336	0.4089
279.688	0.4072
280.041	0.399
280.394	0.3973
280.746	0.3966
281.099	0.3913
281.451	0.3849
281.803	0.383
282.156	0.376
282.508	0.3719
282.86	0.3701
283.212	0.3651
283.564	0.3617
283.916	0.3584
284.267	0.3544
284.619	0.3512
284.971	0.3446
285.322	0.3413
285.673	0.3366
286.025	0.3326
286.376	0.3275
286.727	0.3235
287.078	0.3229
287.429	0.3175
287.78	0.3139
288.131	0.3092
288.482	0.306
288.833	0.3013
289.183	0.2975
289.534	0.2924
289.884	0.2902
290.235	0.2853
290.585	0.2816
290.935	0.2794
291.285	0.272
291.635	0.2699
291.985	0.2665
292.335	0.2631
292.685	0.2603
293.035	0.2578
293.384	0.2509
293.734	0.2486
294.083	0.2455
294.433	0.2412
294.782	0.237
295.131	0.2332
295.48	0.229
295.829	0.2264
296.179	0.2234
296.527	0.2203
296.876	0.217
297.225	0.214
297.574	0.2092
297.922	0.2063
298.271	0.2032
298.619	0.2006
298.968	0.1975
299.316	0.1937
299.664	0.1916
300.012	0.1897
300.36	0.1861
300.708	0.184
301.056	0.1815
301.404	0.1782
301.752	0.1763
302.099	0.1724
302.447	0.1713
302.794	0.1695
303.142	0.1673
303.489	0.1645
303.836	0.1627
304.183	0.1609
304.531	0.159
304.878	0.1579
305.224	0.1565
305.571	0.1532
305.918	0.1526
306.265	0.1515
306.611	0.1494
306.958	0.149
307.304	0.1461
307.651	0.1462
307.997	0.1451
308.343	0.1444
308.689	0.1427
309.035	0.1421
309.381	0.141
309.727	0.1406
310.073	0.1399
310.419	0.1396
310.764	0.1376
311.11	0.138
311.455	0.1381
311.801	0.1369
312.146	0.1375
312.491	0.1374
312.837	0.1367
313.182	0.1365
313.527	0.1367
313.872	0.1364
314.216	0.1369
314.561	0.1371
314.906	0.1377
315.251	0.1374
315.595	0.1383
315.94	0.1384
316.284	0.1384
316.628	0.1392
316.972	0.1403
317.317	0.1403
317.661	0.1414
318.005	0.1415
318.348	0.1428
318.692	0.1437
319.036	0.1438
319.38	0.1448
319.723	0.1456
320.067	0.1466
320.41	0.1479
320.754	0.1492
321.097	0.1506
321.44	0.1512
321.783	0.1519
322.126	0.1542
322.469	0.1547
322.812	0.1557
323.155	0.1575
323.498	0.1581
323.84	0.1602
324.183	0.1624
324.525	0.1636
324.868	0.1649
325.21	0.1656
325.552	0.1681
325.894	0.169
326.236	0.1703
326.578	0.1717
326.92	0.1732
327.262	0.1751
327.604	0.1764
327.946	0.1787
328.287	0.1799
328.629	0.1824
328.97	0.1834
329.312	0.1851
329.653	0.1863
329.994	0.1887
330.335	0.1896
330.676	0.1923
331.017	0.1928
331.358	0.1953
331.699	0.1979
332.04	0.1989
332.38	0.201
332.721	0.2025
333.061	0.2039
333.402	0.2054
333.742	0.2082
334.083	0.2095
334.423	0.2105
334.763	0.2117
335.103	0.2136
335.443	0.2143
335.783	0.2164
336.123	0.2171
336.462	0.2194
336.802	0.221
337.141	0.2219
337.481	0.2224
337.82	0.2246
338.16	0.2251
338.499	0.2273
338.838	0.2285
339.177	0.2306
339.516	0.2314
339.855	0.2328
340.194	0.2341
340.533	0.235
340.872	0.2365
341.21	0.2371
341.549	0.2382
341.887	0.239
342.226	0.2397
342.564	0.2411
342.902	0.2415
343.24	0.242
343.578	0.2426
343.916	0.2434
344.254	0.244
344.592	0.2441
344.93	0.2451
345.268	0.2447
345.605	0.245
345.943	0.246
346.28	0.2457
346.618	0.2464
346.955	0.2473
347.292	0.247
347.629	0.2465
347.966	0.2471
348.303	0.2477
348.64	0.2487
348.977	0.2479
349.314	0.2485
349.65	0.2474
349.987	0.2494
350.324	0.249
350.66	0.2485
350.996	0.2475
351.333	0.2474
351.669	0.2476
352.005	0.2466
352.341	0.2448
352.677	0.2444
353.013	0.2442
353.349	0.2431
353.685	0.2413
354.02	0.2404
354.356	0.2388
354.691	0.2384
355.027	0.2374
355.362	0.2373
355.697	0.2364
356.033	0.236
356.368	0.2343
356.703	0.2337
357.038	0.2328
357.373	0.2322
357.707	0.2311
358.042	0.2299
358.377	0.23
358.711	0.2284
359.046	0.2267
359.38	0.2267
359.715	0.2258
360.049	0.2243
360.383	0.2235
360.717	0.2216
361.051	0.2206
361.385	0.2189
361.719	0.2162
362.053	0.2156
362.387	0.2131
362.72	0.2111
363.054	0.2097
363.387	0.2084
363.721	0.2067
364.054	0.2043
364.387	0.2031
364.721	0.2015
365.054	0.1998
365.387	0.1977
365.72	0.1957
366.053	0.1951
366.385	0.1926
366.718	0.19
367.051	0.1894
367.383	0.1886
367.716	0.1876
368.048	0.1867
368.381	0.184
368.713	0.1829
369.045	0.1827
369.377	0.1798
369.709	0.1797
370.041	0.1789
370.373	0.1763
370.705	0.174
371.037	0.173
371.368	0.1714
371.7	0.1709
372.031	0.168
372.363	0.1656
372.694	0.1636
373.025	0.1614
373.356	0.1595
373.688	0.1579
374.019	0.1559
374.35	0.1539
374.68	0.1519
375.011	0.1495
375.342	0.1473
375.673	0.1465
376.003	0.1434
376.334	0.1426
376.664	0.1399
376.995	0.1389
377.325	0.1363
377.655	0.1359
377.985	0.1341
378.315	0.1329
378.645	0.1314
378.975	0.1303
379.305	0.1291
379.635	0.1278
379.964	0.1266
380.294	0.1246
380.623	0.1234
380.953	0.122
381.282	0.1207
381.611	0.1199
381.941	0.1179
382.27	0.1168
382.599	0.115
382.928	0.1129
383.257	0.1122
383.585	0.11
383.914	0.1095
384.243	0.1065
384.571	0.1056
384.9	0.1034
385.228	0.1014
385.557	0.0997
385.885	0.098
386.213	0.097
386.541	0.0956
386.869	0.094
387.197	0.092
387.525	0.0904
387.853	0.089
388.181	0.0883
388.508	0.0862
388.836	0.0853
389.164	0.0827
389.491	0.0821
389.818	0.0813
390.146	0.08
390.473	0.079
390.8	0.0779
391.127	0.0756
391.454	0.075
391.781	0.0741
392.108	0.0729
392.435	0.0713
392.761	0.0702
393.088	0.0697
393.415	0.0692
393.741	0.0688
394.067	0.0677
394.394	0.0671
394.72	0.0659
395.046	0.0651
395.372	0.0642
395.698	0.0637
396.024	0.0624
396.35	0.0613
396.676	0.0602
397.001	0.0596
397.327	0.0584
397.653	0.0573
397.978	0.0563
398.303	0.0558
398.629	0.054
398.954	0.0533
399.279	0.0529
399.604	0.053
399.929	0.0519
400.254	0.0509
400.579	0.0503
400.904	0.0497
401.229	0.0487
401.553	0.0485
401.878	0.0481
402.202	0.0471
402.527	0.0466
402.851	0.0466
403.175	0.0455
403.5	0.0453
403.824	0.0451
404.148	0.0452
404.472	0.0435
404.796	0.0435
405.119	0.0435
405.443	0.0426
405.767	0.042
406.09	0.0423
406.414	0.0415
406.737	0.0418
407.061	0.0416
407.384	0.0411
407.707	0.0411
408.03	0.0412
408.353	0.0415
408.676	0.0409
408.999	0.04
409.322	0.0404
409.645	0.0403
409.968	0.0398
410.29	0.0396
410.613	0.0398
410.935	0.0398
411.258	0.0395
411.58	0.0394
411.902	0.0396
412.224	0.0389
412.546	0.0393
412.868	0.0388
413.19	0.0388
413.512	0.0387
413.834	0.0372
414.156	0.0384
414.477	0.0391
414.799	0.0383
415.121	0.0389
415.442	0.039
415.763	0.0388
416.085	0.0387
416.406	0.0387
416.727	0.0383
417.048	0.0387
417.369	0.0383
417.69	0.0381
418.011	0.0378
418.331	0.0385
418.652	0.039
418.973	0.0379
419.293	0.039
419.614	0.0393
419.934	0.0391
420.254	0.039
420.574	0.0387
420.895	0.0391
421.215	0.0385
421.535	0.0381
421.855	0.038
422.174	0.0384
422.494	0.0378
422.814	0.0382
423.134	0.0384
423.453	0.0384
423.773	0.0382
424.092	0.0386
424.411	0.0379
424.731	0.0386
425.05	0.0382
425.369	0.0389
425.688	0.0385
426.007	0.0383
426.326	0.0382
426.644	0.039
426.963	0.039
427.282	0.039
427.6	0.0384
427.919	0.0382
428.237	0.039
428.556	0.0388
428.874	0.0387
429.192	0.0392
429.51	0.0389
429.828	0.0386
430.146	0.0389
430.464	0.0381
430.782	0.0388
431.1	0.0389
431.418	0.0382
431.735	0.0385
432.053	0.0386
432.37	0.0386
432.688	0.0388
433.005	0.0386
433.322	0.0385
433.639	0.0388
433.957	0.0394
434.274	0.0389
434.591	0.039
434.907	0.0389
435.224	0.039
435.541	0.0392
435.858	0.0397
436.174	0.04
436.491	0.0385
436.807	0.0376
437.124	0.0385
437.44	0.039
437.756	0.0388
438.072	0.0395
438.388	0.0391
438.704	0.0381
439.02	0.039
439.336	0.0382
439.652	0.0385
439.968	0.038
440.283	0.0371
440.599	0.0379
440.914	0.039
441.23	0.0384
441.545	0.0382
441.86	0.0381
442.175	0.0383
442.491	0.0388
442.806	0.0383
443.121	0.0377
443.435	0.0378
443.75	0.0381
444.065	0.0377
444.38	0.0376
444.694	0.0372
445.009	0.0379
445.323	0.0376
445.638	0.0371
445.952	0.0374
446.266	0.0378
446.58	0.0376
446.894	0.0372
447.208	0.0373
447.522	0.0375
447.836	0.0372
448.15	0.0366
448.464	0.037
448.777	0.0367
449.091	0.036
449.404	0.037
449.718	0.0359
450.031	0.0362
450.345	0.0357
450.658	0.0359
450.971	0.0356
451.284	0.0362
451.597	0.0353
451.91	0.0352
452.223	0.0358
452.535	0.035
452.848	0.0356
453.161	0.0345
453.473	0.0349
453.786	0.0347
454.098	0.0338
454.411	0.035
454.723	0.0337
455.035	0.0338
455.347	0.0331
455.659	0.0338
455.971	0.034
456.283	0.0333
456.595	0.0332
456.907	0.0338
457.218	0.033
457.53	0.0323
457.841	0.0323
458.153	0.0333
458.464	0.0328
458.776	0.0329
459.087	0.0324
459.398	0.0322
459.709	0.0318
460.02	0.0321
460.331	0.0311
460.642	0.0315
460.953	0.031
461.263	0.031
461.574	0.0304
461.885	0.0307
462.195	0.03
462.506	0.031
462.816	0.0299
463.126	0.03
463.437	0.0302
463.747	0.0293
464.057	0.0293
464.367	0.0293
464.677	0.0289
464.987	0.0279
465.296	0.0283
465.606	0.0271
465.916	0.0283
466.225	0.0277
466.535	0.028
466.844	0.0287
467.154	0.028
467.463	0.0272
467.772	0.0273
468.081	0.0266
468.39	0.0263
468.699	0.027
469.008	0.026
469.317	0.0261
469.626	0.0251
469.935	0.0248
470.243	0.0254
470.552	0.0255
470.86	0.0253
471.169	0.0249
471.477	0.0251
471.785	0.0248
472.093	0.0246
472.402	0.0237
472.71	0.0245
473.018	0.0236
473.326	0.0231
473.633	0.0238
473.941	0.0232
474.249	0.0223
474.556	0.0229
474.864	0.023
475.171	0.0224
475.479	0.0217
475.786	0.0216
476.094	0.0214
476.401	0.0214
476.708	0.0208
477.015	0.0209
477.322	0.0217
477.629	0.0203
477.936	0.02
478.242	0.0195
478.549	0.0206
478.856	0.0203
479.162	0.0198
479.469	0.0188
479.775	0.0199
480.081	0.0192
480.388	0.0185
480.694	0.019
481	0.0186
481.306	0.0186
481.612	0.018
481.918	0.0186
482.224	0.0179
482.53	0.0174
482.835	0.0181
483.141	0.0175
483.446	0.0171
483.752	0.0165
484.057	0.0167
484.363	0.0164
484.668	0.0161
484.973	0.0147
485.278	0.015
485.583	0.0153
485.888	0.0148
486.193	0.0144
486.498	0.015
486.803	0.0148
487.107	0.0143
487.412	0.014
487.717	0.0139
488.021	0.0131
488.325	0.0154
488.63	0.0144
488.934	0.0144
489.238	0.0142
489.542	0.0128
489.846	0.0135
490.15	0.0135
490.454	0.013
490.758	0.0131
491.062	0.0121
491.366	0.0125
491.669	0.012
491.973	0.013
492.276	0.0118
492.58	0.0117
492.883	0.011
493.186	0.0121
493.489	0.0108
493.792	0.0101
494.096	0.0102
494.399	0.011
494.701	0.0115
495.004	0.01
495.307	0.0103
495.61	0.0085
495.912	0.0102
496.215	0.009
496.517	0.0085
496.82	0.0091
497.122	0.0087
497.424	0.0093
497.727	0.0083
498.029	0.0082
498.331	0.0085
498.633	0.0079
498.935	0.0083
499.237	0.0079
499.538	0.0074
499.84	0.0079
500.142	0.0073
500.443	0.007
500.745	0.007
501.046	0.0057
501.348	0.0065
501.649	0.0062
501.95	0.0052
502.251	0.0064
502.552	0.0056
502.853	0.0053
503.154	0.0058
503.455	0.0059
503.756	0.0053
504.057	0.0062
504.357	0.0048
504.658	0.0059
504.958	0.0058
505.259	0.0057
505.559	0.0053
505.859	0.0039
506.16	0.0044
506.46	0.0047
506.76	0.0052
507.06	0.0046
507.36	0.004
507.66	0.0046
507.96	0.0049
508.259	0.004
508.559	0.0051
508.859	0.0045
509.158	0.0037
509.457	0.0034
509.757	0.0035
510.056	0.003
510.355	0.0042
510.655	0.003
510.954	0.0036
511.253	0.0029
511.552	0.0023
511.851	0.0029
512.149	0.0014
512.448	0.003
512.747	0.0027
513.045	0.0025
513.344	0.002
513.642	0.002
513.941	0.0021
514.239	0.0015
514.537	0.0013
514.836	0.0025
515.134	0.0007
515.432	0.0032
515.73	0.0021
516.028	0.0007
516.326	0.0025
516.623	0.0014
516.921	0.0001
517.219	0.0011
517.516	0.0012
517.814	0.0018
518.111	0.0019
518.409	0.0001
518.706	0.001
519.003	0.0013
519.3	0.0013
519.597	0.0002
519.894	0.0016
520.191	0.0008
520.488	0.002
520.785	-0.0001
521.082	0.0013
521.378	0.0007
521.675	0.0003
521.971	0.0006
522.268	0.0018
522.564	0.0004
522.861	0.0009
523.157	0.0017
523.453	0.0013
523.749	0.0004
524.045	0.0013
524.341	0.0012
524.637	-0.0006
524.933	0.0007
525.229	-0
525.524	0.0001
525.82	-0.0002
526.115	0
526.411	0.0012
526.706	0.001
527.002	0.0006
527.297	-0.0001
527.592	-0.0001
527.887	0.0019
528.182	0.0014
528.477	0.0009
528.772	0.0011
529.067	0.0003
529.362	-0
529.657	0.001
529.951	0.0009
530.246	-0.0001
530.54	-0.0003
530.835	-0.0012
531.129	-0.0004
531.423	-0.0003
531.718	-0.0004
532.012	-0.0011
532.306	-0.0008
532.6	-0.001
532.894	-0.0001
533.188	0.0001
533.482	0.0001
533.775	-0.0004
534.069	-0.0007
534.363	-0.0015
534.656	-0.0018
534.95	0.0004
535.243	-0.0018
535.536	0.0006
535.83	-0.0027
536.123	-0.0007
536.416	-0.0004
536.709	-0.001
537.002	-0.0023
537.295	-0.0015
537.588	-0.0018
537.881	-0.0011
538.173	-0.0012
538.466	-0.0006
538.759	-0.0014
539.051	-0.0012
539.344	-0.0021
539.636	-0.001
539.928	-0.0003
540.22	-0.0008
540.513	-0.0011
540.805	-0.0002
541.097	-0.0018
541.389	-0.0007
541.681	-0.0003
541.972	0.0004
542.264	0.0009
542.556	-0.0005
542.847	0.0014
543.139	0.0011
543.431	-0.0007
543.722	0.0001
544.013	0.0001
544.305	-0.0013
544.596	-0.0011
544.887	-0.0014
545.178	0.0003
545.469	-0.0014
545.76	-0.0006
546.051	0.0001
546.342	-0.0002
546.632	-0.0012
546.923	-0.0012
547.214	-0.0013
547.504	-0.0017
547.795	-0.0014
548.085	-0.0021
548.375	-0.0014
548.666	-0.0016
548.956	0.0002
549.246	-0.0005
549.536	-0.0004
549.826	-0.0004
550.116	-0.0004
550.406	-0.0009
550.695	-0.0018
550.985	-0.0008
551.275	-0.001
551.564	-0.001
551.854	-0.0003
552.143	-0.0006
552.433	-0.0027
552.722	-0.0023
553.011	-0.0007
553.3	-0.0009
553.589	-0.0004
553.879	-0.0006
554.167	-0.0011
554.456	0.0003
554.745	-0.0005
555.034	-0.0009
555.323	-0.0001
555.611	-0
555.9	-0.0003
556.188	-0.0019
556.477	-0.0002
556.765	-0.0022
557.053	-0.0007
557.342	-0.0002
557.63	-0.0004
557.918	0
558.206	0.0002
558.494	-0.0003
558.782	0.0001
559.069	0.0012
559.357	0.0015
559.645	0.0002
559.932	-0.0001
560.22	0.0001
560.507	-0.0015
560.795	-0.0018
561.082	-0.0019
561.37	-0.0005
561.657	-0.0009
561.944	-0.001
562.231	-0.0003
562.518	0.0002
562.805	0
563.092	0.0001
563.379	0.0002
563.665	0.0006
563.952	0.0001
564.239	0.0003
564.525	0.0005
564.811	0.001
565.098	0.0011
565.384	0.0007
565.67	0.0008
565.957	0.002
566.243	0.0017
566.529	0.0013
566.815	0.0007
567.101	0.0022
567.387	0.0008
567.672	0.0018
567.958	0.0012
568.244	0.0012
568.529	0.0006
568.815	-0.0005
569.1	-0.0009
569.386	-0.0006
569.671	-0.0001
569.956	0.0001
570.242	-0.0002
570.527	-0.0002
570.812	0.0003
571.097	0.0003
571.382	-0.0009
571.666	0.0004
571.951	-0.0003
572.236	-0.0005
572.521	0.0006
572.805	-0.0002
573.09	-0.0011
573.374	-0.0018
573.659	-0.0004
573.943	-0.0008
574.227	-0.0013
574.511	-0.001
574.795	-0.0007
575.079	-0.0001
575.363	-0.0012
575.647	-0.0007
575.931	-0
576.215	-0.0012
576.499	-0.0011
576.782	-0.0006
577.066	-0.0012
577.349	0.0001
577.633	-0.0019
577.916	-0.0018
578.2	-0.0011
578.483	-0.0006
578.766	-0.0003
579.049	-0.0002
579.332	0.001
579.615	-0.0002
579.898	-0.0008
580.181	0.0007
580.464	0.0007
580.746	-0.0002
581.029	-0.0012
581.312	-0.0022
581.594	-0.0023
581.877	-0.0012
582.159	-0.0018
582.441	-0.0016
582.724	-0.001
583.006	0.0006
583.288	0.0003
583.57	0.0011
583.852	-0
584.134	-0.0001
584.416	-0.0012
584.697	-0.0003
584.979	-0.002
585.261	-0.0026
585.542	-0.0021
585.824	-0.0013
586.105	-0.0014
586.387	-0.0011
586.668	-0.0009
586.949	-0.0007
587.231	-0.0003
587.512	-0.0004
587.793	-0.0008
588.074	-0.0009
588.355	-0.0008
588.636	-0.0013
588.916	-0.0013
589.197	-0.0005
589.478	-0
589.758	-0.0007
590.039	-0.0001
590.319	0.0007
590.6	0.0009
590.88	0.0014
591.16	0.0006
591.441	0.0013
591.721	0.0003
592.001	-0.0001
592.281	-0.0005
592.561	-0.0001
592.841	-0.0017
593.12	-0.0022
593.4	-0.0018
593.68	-0.0023
593.959	-0.0014
594.239	-0.0017
594.518	-0.0001
594.798	0.0008
595.077	-0.0009
595.356	-0.0007
595.636	-0.0004
595.915	0.0002
596.194	0.0012
596.473	0.0004
596.752	0.0001
597.031	-0.0002
597.31	-0.0004
597.588	-0.0009
597.867	-0.0013
598.146	-0.001
598.424	-0.0003
598.703	-0.0002
598.981	-0.0022
599.259	-0.0017
599.538	-0.0009
599.816	-0.0009
600.094	-0.0018
600.372	-0.0023
600.65	-0.0013
600.928	-0.0013
601.206	-0.0009
601.484	-0.0002
601.762	0.0007
602.04	-0.0005
602.317	0
602.595	-0.0001
602.872	0.0002
603.15	0.0007
603.427	-0.0018
603.704	-0.0013
603.982	-0.0009
604.259	-0.0003
604.536	-0.0006
604.813	-0.0004
605.09	-0.0012
605.367	-0.0014
605.644	-0.0015
605.921	-0.0004
606.197	-0.0018
606.474	-0.0001
606.751	-0.0011
607.027	-0.001
607.304	-0.0008
607.58	-0.0011
607.856	-0.0013
608.133	-0.0014
608.409	-0.0002
608.685	-0.0005
608.961	0
609.237	-0.0002
609.513	0.0003
609.789	-0.0005
610.065	-0.0014
610.341	-0.0008
610.616	0.0005
610.892	0.0018
611.167	0.0014
611.443	0.0013
611.718	0.0007
611.994	-0.0001
612.269	0.001
612.544	-0.0003
612.819	-0.0004
613.095	-0.0006
613.37	0.0011
613.645	-0.001
613.919	-0.0007
614.194	0.0002
614.469	0.0009
614.744	-0.0004
615.019	-0.0007
615.293	-0.0005
615.568	-0.0009
615.842	0.0001
616.116	0.0017
616.391	0.002
616.665	0.0008
616.939	0.0007
617.213	0.0017
617.488	0.0009
617.762	-0.0001
618.035	0
618.309	-0.0005
618.583	0.0011
618.857	0.0026
619.131	0.0015
619.404	0.0016
619.678	0.0013
619.951	-0.0003
620.225	0.0001
620.498	0.0013
620.771	0.0012
621.045	0.0011
621.318	0.0001
621.591	-0.0014
621.864	-0.0015
622.137	-0.0018
622.41	-0.0012
622.683	0.0002
622.956	0.0001
623.228	0.0006
623.501	0.0012
623.774	0.0008
624.046	0.002
624.319	-0
624.591	-0.0012
624.863	0.0001
625.136	0.0017
625.408	0.0015
625.68	0.0008
625.952	0.0017
626.224	0.0024
626.496	0.0025
626.768	0.0014
627.04	0.0007
627.311	0.0009
627.583	0.0011
627.855	0.0021
628.126	0.0026
628.398	0.0035
628.669	0.0043
628.941	0.0038
629.212	0.0025
629.483	0.0018
629.755	0.0028
630.026	0.0027
630.297	0.0028
630.568	0.0028
630.839	0.0029
631.11	0.0032
631.38	0.0036
631.651	0.0031
631.922	0.0029
632.192	0.0021
632.463	0.0023
632.733	0.0023
633.004	0.0022
633.274	0.0026
633.545	0.0024
633.815	0.0027
634.085	0.0003
634.355	-0.0005
634.625	0.001
634.895	0.0007
635.165	-0.0001
635.435	-0.0001
635.705	0.0002
635.974	0.0002
636.244	0.0009
636.514	0.0021
636.783	0.0012
637.053	0.0008
637.322	0.0029
637.591	0.0022
637.861	0.0004
638.13	0.0014
638.399	0.0005
638.668	0.0005
638.937	0.0007
639.206	0
639.475	0.0003
639.744	0.0003
640.013	0.0022
640.281	0.0024
640.55	0.0021
640.819	0.001
641.087	0.0019
641.356	0.0026
641.624	0.0034
641.892	0.0046
642.161	0.0033
642.429	0.0022
642.697	0.0022
642.965	0.0024
643.233	0.0018
643.501	0.0015
643.769	0.0013
644.037	0.0024
644.305	0.0017
644.572	0.0017
644.84	0
645.108	0.0002
645.375	-0.0005
645.643	-0.0003
645.91	0.0015
646.177	0.0021
646.445	0.0029
646.712	0.0044
646.979	0.0039
647.246	0.0044
647.513	0.0042
647.78	0.0028
648.047	0.0019
648.314	-0.0006
648.58	0.0014
648.847	0.0017
649.114	0.002
649.38	0.0017
649.647	0.0019
649.913	0.0017
650.18	0.0023
650.446	0.0023
650.712	0.0012
650.978	0.0005
651.245	0.0004
651.511	0.0018
651.777	0.0012
652.043	0.0017
652.309	0.0022
652.574	0.0034
652.84	0.0033
653.106	0.0029
653.371	0.003
653.637	0.0034
653.903	0.0033
654.168	0.0046
654.433	0.0052
654.699	0.0052
654.964	0.0061
655.229	0.0037
655.494	0.0002
655.759	-0.0064
656.024	-0.0004
656.289	-0
656.554	0.0016
656.819	0.001
657.084	0.0023
657.349	0.0013
657.613	0.0024
657.878	0.0024
658.142	0.0014
658.407	0.0015
658.671	0.0029
658.936	0.0021
659.2	0.0028
659.464	0.0029
659.728	0.0036
659.992	0.003
660.256	0.0027
660.52	0.0027
660.784	0.0014
661.048	0.002
661.312	0.0026
661.575	0.0025
661.839	0.0028
662.103	0.0024
662.366	0.003
662.63	0.0012
662.893	0.0016
663.156	0.0011
663.42	0.0009
663.683	-0.0005
663.946	-0.0006
664.209	0
664.472	-0.0016
664.735	0.0005
664.998	0.0008
665.261	0.0003
665.524	0.0002
665.786	0.0006
666.049	0.0013
666.312	0.0014
666.574	0.0003
666.837	0.0013
667.099	0.0017
667.361	0.0012
667.624	0.0018
667.886	-0.0008
668.148	-0
668.41	0.001
668.672	-0.0001
668.934	0.0007
669.196	-0.0006
669.458	0.0006
669.72	0.0016
669.982	0.0012
670.243	0.0021
670.505	0.0008
670.766	0.0024
671.028	0.002
671.289	0.0001
671.551	0
671.812	-0.001
672.073	0.001
672.334	0.0006
672.596	0
672.857	0.0004
673.118	0.0008
673.379	0.0005
673.639	-0.0003
673.9	-0.0003
674.161	0.0006
674.422	0.0001
674.682	-0.0003
674.943	0.0003
675.203	0.0002
675.464	-0.0001
675.724	-0.0016
675.985	-0.0013
676.245	-0.0008
676.505	-0.0001
676.765	-0.0006
677.025	0.0002
677.285	0.0005
677.545	0.0013
677.805	0.0004
678.065	0.001
678.325	0.0018
678.585	0.0004
678.844	-0.0003
679.104	-0.0005
679.363	-0.0008
679.623	-0.0008
679.882	-0.0005
680.142	0.0012
680.401	0.0003
680.66	0.0017
680.919	0.0032
681.178	0.0026
681.437	0.0021
681.696	0
681.955	0.002
682.214	0.002
682.473	0
682.732	-0.0007
682.99	0.0009
683.249	0.0013
683.508	0.0012
683.766	-0.0004
684.024	-0.0001
684.283	0.0006
684.541	0.0006
684.799	0.0008
685.058	0.0011
685.316	-0.0005
685.574	-0.0016
685.832	-0.0008
686.09	-0
686.348	-0.0019
686.606	-0.0013
686.863	0.0008
687.121	0.0013
687.379	0.0016
687.636	0.0007
687.894	0.0028
688.151	0.0025
688.409	0.0014
688.666	0.0003
688.923	-0.0001
689.181	-0.0008
689.438	-0.0008
689.695	-0.0007
689.952	-0.0007
690.209	-0.0001
690.466	0.0001
690.723	0.0014
690.979	0.0018
691.236	0.0003
691.493	0.0006
691.75	0.0013
692.006	0.0011
692.263	0.0004
692.519	0.0005
692.775	0.0013
693.032	0.0013
693.288	0.0007
693.544	0.0007
693.8	0.001
694.056	0.0015
694.313	0.0016
694.568	0.0015
694.824	0.0007
695.08	-0
695.336	-0.0014
695.592	-0.0015
695.847	0.0003
696.103	0.0003
696.359	0.0012
696.614	0.0003
696.869	-0.0009
697.125	-0.004
697.38	-0.0016
697.635	-0.0005
697.891	0.0006
698.146	0.0012
698.401	0.0013
698.656	0.001
698.911	0.0021
699.166	0.0025
699.42	0.0034
699.675	0.0023
699.93	0.0025
700.185	0.0021
700.439	0.0013
700.694	0.0025
700.948	0.001
701.203	0.0008
701.457	0.0012
701.711	0.0006
701.965	0.0007
702.22	-0.0008
702.474	-0.0009
702.728	-0.0015
702.982	-0.0013
703.236	0
703.49	0.001
703.743	-0.0002
703.997	0.0005
704.251	0.0004
704.504	0.0005
704.758	0.0005
705.012	0.0015
705.265	0.0019
705.518	0.0031
705.772	0.0026
706.025	0.0022
706.278	0.0014
706.531	0.0004
706.785	-0.0007
707.038	-0.0013
707.291	-0.0006
707.543	-0.0005
707.796	-0.0005
708.049	-0.0014
708.302	-0.0023
708.555	-0.0025
708.807	-0.0009
709.06	-0.0025
709.312	-0.0016
709.565	-0.0012
709.817	-0.0012
710.069	-0.0016
710.322	-0.0014
710.574	-0.0026
710.826	-0.0024
711.078	-0.0019
711.33	-0.0016
711.582	-0.0031
711.834	-0.0022
712.086	-0.0024
712.338	-0.0031
712.59	-0.0021
712.841	-0.0045
713.093	-0.0032
713.344	-0.0034
713.596	-0.004
713.847	-0.0013
714.099	-0.0015
714.35	-0.0017
714.601	-0.0012
714.853	-0.0011
715.104	-0.0004
715.355	-0.0017
715.606	-0.001
715.857	-0.0001
716.108	-0.0004
716.359	-0.0003
716.609	-0.0009
716.86	-0.0009
717.111	-0.0004
717.361	-0
717.612	0.0009
717.863	0.0016
718.113	0.0026
718.363	-0.0003
718.614	0.0026
718.864	0.0034
719.114	0.0024
719.364	0.0025
719.614	0.0022
719.865	0.0037
720.114	0.0042
720.364	0.0041
720.614	0.0042
720.864	0.0026
721.114	0.0021
721.364	0.0017
721.613	0.002
721.863	0.0016
722.112	0.0014
722.362	0.0001
722.611	0.0004
722.86	0.0004
723.11	-0.0002
723.359	-0.0003
723.608	-0.0001
723.857	0.0001
724.106	0.0009
724.355	0.001
724.604	0.002
724.853	0.0009
725.102	-0.0009
725.351	-0.0002
725.599	-0.0012
725.848	-0.0005
726.097	0.0002
726.345	-0.0006
726.594	-0.0017
726.842	-0.0009
727.09	-0.0022
727.339	-0.003
727.587	-0.0031
727.835	-0.0026
728.083	-0.0016
728.331	-0.0024
728.579	-0.001
728.827	-0.0003
729.075	0.0001
729.323	-0.0006
729.571	-0.0002
729.818	-0.0006
730.066	-0.0004
730.314	-0.0003
730.561	0.002
730.809	0.0006
731.056	-0.0005
731.303	0.0012
731.551	0.0013
731.798	0.0008
732.045	0.0008
732.292	0.0021
732.539	0.0023
732.786	0.0016
733.033	0.0006
733.28	0.0008
733.527	0.0008
733.774	-0.0006
734.021	-0.002
734.267	-0.0019
734.514	-0.0026
734.76	-0.0027
735.007	-0.0014
735.253	-0.0023
735.5	-0.0025
735.746	-0.0022
735.992	-0.0017
736.238	-0.0008
736.485	0.0001
736.731	0.0016
736.977	-0.0005
737.223	0.0003
737.469	0.0005
737.715	0.0021
737.96	0.001
738.206	-0.0003
738.452	0.0011
738.697	0.0011
738.943	0.0003
739.189	-0.0008
739.434	-0.0006
739.679	-0.0002
739.925	0.0009
740.17	-0.0005
740.415	-0.0006
740.66	-0.0026
740.906	-0.0022
741.151	-0.002
741.396	-0.0024
741.641	-0.0021
741.886	-0.0025
742.13	-0.0004
742.375	-0.0013
742.62	-0.0012
742.865	-0.0018
743.109	0.0007
743.354	0.0021
743.598	0.0025
743.843	0.0029
744.087	0.0034
744.331	0.0045
744.576	0.005
744.82	0.0056
745.064	0.0059
745.308	0.0065
745.552	0.0057
745.796	0.0033
746.04	0.0042
746.284	0.0024
746.528	0.0041
746.771	0.006
747.015	0.0053
747.259	0.0041
747.502	0.0028
747.746	0.0028
747.989	0.0042
748.233	0.0035
748.476	0.0046
748.719	0.0055
748.963	0.0058
749.206	0.0063
749.449	0.0036
749.692	0.0039
749.935	0.0054
750.178	0.0034
750.421	0.0033
750.664	0.0036
750.906	0.0048
751.149	0.0051
751.392	0.0034
751.635	0.0023
751.877	0.0027
752.12	0.0024
752.362	0.0019
752.604	0.0022
752.847	0.0037
753.089	0.0046
753.331	0.0052
753.573	0.0031
753.816	0.0026
754.058	0.0014
754.3	0.0006
754.542	0.0006
754.783	-0.0005
755.025	-0.0003
755.267	-0.0007
755.509	-0.0005
755.75	-0.0012
755.992	0.0002
756.234	-0.0009
756.475	-0.0014
756.716	-0.0021
756.958	-0.0019
757.199	-0.0014
757.44	-0.0006
757.682	-0.0017
757.923	0.0006
758.164	0.0025
758.405	0.0023
758.646	0.0041
758.887	0.0039
759.128	0.0031
759.369	0.0019
759.609	0.003
759.85	0.0022
760.091	0.004
760.331	0.003
760.572	-0.0001
760.812	0.0001
761.053	-0.0002
761.293	0.0003
761.533	0.0005
761.774	0.0025
762.014	0.0029
762.254	0.0014
762.494	0.0005
762.734	0.0008
762.974	-0.0009
763.214	0.0002
763.454	0.0006
763.694	-0.0008
763.933	-0.0012
764.173	-0.0028
764.413	-0.0043
764.652	-0.0047
764.892	-0.0035
765.131	-0.0035
765.371	-0.0024
765.61	-0.0026
765.849	-0.0025
766.089	-0.0014
766.328	-0.001
766.567	-0.0004
766.806	-0.0007
767.045	-0.0006
767.284	-0.0015
767.523	-0.0019
767.762	-0.0027
768.001	-0.0026
768.239	-0.0025
768.478	-0.0019
768.717	-0.001
768.955	-0.0016
769.194	-0.0016
769.432	0.0008
769.671	0.0004
769.909	0.0016
770.148	0.0017
770.386	0.0025
770.624	0.0028
770.862	0.0029
771.1	0.0049
771.338	0.004
771.576	0.0031
771.814	0.0044
772.052	0.004
772.29	0.0047
772.528	0.0051
772.765	0.0059
773.003	0.0064
773.24	0.0065
773.478	0.0049
773.716	0.0054
773.953	0.0042
774.19	0.0042
774.428	0.0054
774.665	0.0054
774.902	0.0067
775.139	0.006
775.376	0.0046
775.613	0.0044
775.85	0.0041
776.087	0.003
776.324	0.0029
776.561	0.0025
776.798	0.0016
777.034	0.0016
777.271	0.0028
777.508	0.0026
777.744	0.0036
777.981	0.0053
778.217	0.0057
778.454	0.005
778.69	0.0031
778.926	0.0024
779.162	0.0028
779.399	0.0029
779.635	0.0028
779.871	0.0037
780.107	0.0029
780.343	0.003
780.579	0.0026
780.814	0.0022
781.05	0.0025
781.286	0.0006
781.522	0.0018
781.757	0.0016
781.993	0.003
782.228	0.0027
782.464	0.0034
782.699	0.0019
782.934	0.001
783.17	0.001
783.405	0.0021
783.64	0.001
783.875	0.0009
784.11	0.0005
784.345	0.0026
784.58	0.0035
784.815	0.0038
785.05	0.0025
785.285	0.0015
785.52	0.0013
785.754	0.0001
785.989	-0.0006
786.223	-0.0023
786.458	-0.0017
786.692	-0.0011
786.927	0.0005
787.161	0.0013
787.396	-0.0001
787.63	0.0002
787.864	-0.0012
788.098	-0.003
788.332	-0.0024
788.566	-0.0025
788.8	-0.0022
789.034	-0.002
789.268	-0.0012
789.502	0.0003
789.736	0.0003
789.969	0.0005
790.203	0.0003
790.437	-0.0016
790.67	-0.0017
790.904	-0.0026
791.137	-0.003
791.37	-0.0031
791.604	-0.005
791.837	-0.0052
792.07	-0.0035
792.303	-0.0041
792.537	-0.0026
792.77	-0.0029
793.003	-0.0023
793.236	-0.0024
793.469	-0.0024
793.701	-0.0006
793.934	0.0001
794.167	-0.0006
794.4	-0.0004
794.632	0.0009
794.865	0.0024
795.097	0.002
795.33	-0.0001
795.562	0.0012
795.795	0.0023
796.027	0.0025
796.259	0.0022
796.491	0.0023
796.724	0.0021
796.956	0.0023
797.188	0.0015
797.42	0.0015
797.652	0.0014
797.883	0.0022
798.115	0.0033
798.347	0.0038
798.579	0.0054
798.81	0.0062
799.042	0.0058
799.274	0.0045
799.505	0.0038
799.737	0.0038
799.968	0.0024
800.199	0.0024
800.431	0.0012
800.662	0.0013
800.893	0.0017
801.124	0.0014
801.355	0.0014
801.586	0.0014
801.817	0.0013
802.048	-0.0003
802.279	0.0003
802.51	0.0016
802.741	0.0019
802.971	0.0029
803.202	0.0026
803.433	0.0025
803.663	0.0009
803.894	0.0013
804.124	0.001
804.354	0.001
804.585	0.0012
804.815	0.002
805.045	0.0016
805.275	0.0024
805.506	-0.0575
805.736	0.0023
805.966	0.5061
806.196	0.1255
