Data from 03 0.5 mM K2Cr2O7 0.3 mM BQDS 1 M H2SO4 5 min_Absorbance_0026.txt Node
Date: Mon Dec 13 19:49:44 EST 2021
User: kwabilab-user
Spectrometer: HDX00518
Trigger mode: 0
Integration Time (sec): 5.000000E-2
Scans to average: 50
Nonlinearity correction enabled: false
Boxcar width: 0
Storing dark spectrum: false
XAxis mode: Wavelengths
Number of Pixels in Spectrum: 2068
>>>>>Begin Spectral Data<<<<<
195.27	0.065
195.642	0.0699
196.014	-0.0848
196.386	0.2101
196.758	0.0224
197.129	-0.003
197.501	0.0148
197.872	0.0195
198.244	0.0386
198.615	0.077
198.986	0.0508
199.357	0.0732
199.728	0.0509
200.099	0.0588
200.47	0.033
200.841	0.061
201.212	0.0587
201.582	0.073
201.953	0.0497
202.323	0.0838
202.694	0.0447
203.064	0.0625
203.434	0.071
203.804	0.0347
204.174	0.0727
204.544	0.0739
204.914	0.0467
205.284	0.0696
205.653	0.0525
206.023	0.0588
206.393	0.0156
206.762	0.0551
207.131	0.0721
207.501	0.0656
207.87	0.0663
208.239	0.0606
208.608	0.0562
208.977	0.064
209.346	0.0718
209.715	0.0521
210.083	0.0422
210.452	0.0615
210.82	0.0841
211.189	0.0378
211.557	0.07
211.925	0.0134
212.294	0.0808
212.662	0.0665
213.03	0.0666
213.398	0.0682
213.766	0.0691
214.133	0.0539
214.501	0.0799
214.869	0.0789
215.236	0.06
215.604	0.0758
215.971	0.0655
216.338	0.0863
216.705	0.0938
217.072	0.1132
217.439	0.0811
217.806	0.0868
218.173	0.0914
218.54	0.0995
218.907	0.1192
219.273	0.1285
219.64	0.1079
220.006	0.1216
220.373	0.1122
220.739	0.1378
221.105	0.1593
221.471	0.1572
221.837	0.1886
222.203	0.2234
222.569	0.228
222.935	0.2372
223.3	0.2478
223.666	0.2974
224.031	0.3
224.397	0.3047
224.762	0.3303
225.127	0.368
225.493	0.3821
225.858	0.4275
226.223	0.4322
226.588	0.4676
226.952	0.4748
227.317	0.526
227.682	0.5218
228.046	0.508
228.411	0.5673
228.775	0.5745
229.14	0.582
229.504	0.6118
229.868	0.6323
230.232	0.6256
230.596	0.6262
230.96	0.6705
231.324	0.6647
231.688	0.7017
232.052	0.7034
232.415	0.688
232.779	0.7268
233.142	0.7174
233.505	0.7218
233.869	0.7455
234.232	0.7452
234.595	0.731
234.958	0.73
235.321	0.7437
235.684	0.7448
236.047	0.7456
236.409	0.7405
236.772	0.7481
237.134	0.7573
237.497	0.7528
237.859	0.7577
238.222	0.7484
238.584	0.7503
238.946	0.754
239.308	0.7533
239.67	0.7576
240.032	0.7431
240.393	0.7505
240.755	0.7489
241.117	0.7521
241.478	0.7455
241.84	0.7438
242.201	0.7369
242.562	0.735
242.924	0.7421
243.285	0.73
243.646	0.7378
244.007	0.7372
244.368	0.7362
244.728	0.7456
245.089	0.7376
245.45	0.7215
245.81	0.7267
246.171	0.7294
246.531	0.7361
246.891	0.7219
247.252	0.726
247.612	0.729
247.972	0.7287
248.332	0.7425
248.692	0.7294
249.051	0.7227
249.411	0.7366
249.771	0.7217
250.13	0.7223
250.49	0.7295
250.849	0.7272
251.208	0.7316
251.568	0.7303
251.927	0.7237
252.286	0.7381
252.645	0.7247
253.004	0.7304
253.363	0.732
253.721	0.7271
254.08	0.7269
254.439	0.7227
254.797	0.7262
255.155	0.7251
255.514	0.7286
255.872	0.7356
256.23	0.7282
256.588	0.7322
256.946	0.727
257.304	0.7211
257.662	0.7249
258.02	0.7246
258.377	0.7236
258.735	0.7216
259.093	0.7192
259.45	0.7234
259.807	0.7196
260.165	0.7127
260.522	0.7189
260.879	0.7152
261.236	0.7191
261.593	0.7138
261.95	0.7087
262.306	0.71
262.663	0.7024
263.02	0.7068
263.376	0.7038
263.733	0.7001
264.089	0.7023
264.445	0.7013
264.802	0.6986
265.158	0.7078
265.514	0.6951
265.87	0.6926
266.226	0.6892
266.581	0.6956
266.937	0.6903
267.293	0.6847
267.648	0.6805
268.004	0.6847
268.359	0.676
268.714	0.6723
269.07	0.6719
269.425	0.6638
269.78	0.6613
270.135	0.6669
270.49	0.661
270.844	0.6554
271.199	0.6527
271.554	0.648
271.908	0.6438
272.263	0.6437
272.617	0.6392
272.972	0.6441
273.326	0.6336
273.68	0.6264
274.034	0.6251
274.388	0.6241
274.742	0.6275
275.096	0.618
275.45	0.6136
275.803	0.6072
276.157	0.6089
276.51	0.5999
276.864	0.5989
277.217	0.5872
277.571	0.5901
277.924	0.5824
278.277	0.5813
278.63	0.5741
278.983	0.5683
279.336	0.5595
279.688	0.5593
280.041	0.5502
280.394	0.5522
280.746	0.5436
281.099	0.5382
281.451	0.5348
281.803	0.5295
282.156	0.5227
282.508	0.5215
282.86	0.5107
283.212	0.5056
283.564	0.5044
283.916	0.5011
284.267	0.4912
284.619	0.4865
284.971	0.4859
285.322	0.4803
285.673	0.4744
286.025	0.4672
286.376	0.4634
286.727	0.4597
287.078	0.4566
287.429	0.4486
287.78	0.4431
288.131	0.4392
288.482	0.4333
288.833	0.4265
289.183	0.4203
289.534	0.4161
289.884	0.4134
290.235	0.4074
290.585	0.4018
290.935	0.3962
291.285	0.3907
291.635	0.3877
291.985	0.3804
292.335	0.3767
292.685	0.3728
293.035	0.3682
293.384	0.3609
293.734	0.3553
294.083	0.3541
294.433	0.3475
294.782	0.3413
295.131	0.3379
295.48	0.3312
295.829	0.3273
296.179	0.3228
296.527	0.3188
296.876	0.314
297.225	0.3101
297.574	0.3039
297.922	0.2997
298.271	0.2958
298.619	0.2922
298.968	0.2873
299.316	0.2833
299.664	0.2804
300.012	0.2766
300.36	0.2712
300.708	0.2674
301.056	0.2646
301.404	0.2599
301.752	0.258
302.099	0.2533
302.447	0.2506
302.794	0.2465
303.142	0.2439
303.489	0.2405
303.836	0.2387
304.183	0.2349
304.531	0.2326
304.878	0.2295
305.224	0.2284
305.571	0.2255
305.918	0.2221
306.265	0.2211
306.611	0.2187
306.958	0.2162
307.304	0.2137
307.651	0.2124
307.997	0.2115
308.343	0.209
308.689	0.2075
309.035	0.2059
309.381	0.2052
309.727	0.2033
310.073	0.2026
310.419	0.201
310.764	0.1998
311.11	0.1987
311.455	0.1983
311.801	0.198
312.146	0.1964
312.491	0.1967
312.837	0.1953
313.182	0.195
313.527	0.1947
313.872	0.1951
314.216	0.195
314.561	0.1944
314.906	0.1942
315.251	0.1945
315.595	0.1946
315.94	0.1946
316.284	0.1954
316.628	0.1956
316.972	0.1959
317.317	0.1962
317.661	0.196
318.005	0.198
318.348	0.1987
318.692	0.1989
319.036	0.1989
319.38	0.2002
319.723	0.2012
320.067	0.2033
320.41	0.2033
320.754	0.2051
321.097	0.2058
321.44	0.2071
321.783	0.2078
322.126	0.21
322.469	0.2104
322.812	0.211
323.155	0.2128
323.498	0.2149
323.84	0.2159
324.183	0.218
324.525	0.2197
324.868	0.2211
325.21	0.2223
325.552	0.2246
325.894	0.2249
326.236	0.2275
326.578	0.2282
326.92	0.2307
327.262	0.2326
327.604	0.2337
327.946	0.2353
328.287	0.2379
328.629	0.24
328.97	0.241
329.312	0.2426
329.653	0.2439
329.994	0.2464
330.335	0.2475
330.676	0.251
331.017	0.2527
331.358	0.255
331.699	0.2568
332.04	0.2584
332.38	0.2593
332.721	0.2617
333.061	0.2645
333.402	0.2656
333.742	0.2678
334.083	0.2693
334.423	0.2703
334.763	0.2726
335.103	0.2742
335.443	0.2759
335.783	0.2769
336.123	0.2791
336.462	0.2804
336.802	0.2829
337.141	0.2838
337.481	0.2846
337.82	0.2867
338.16	0.2874
338.499	0.2899
338.838	0.2913
339.177	0.2937
339.516	0.2943
339.855	0.2965
340.194	0.2981
340.533	0.2981
340.872	0.2996
341.21	0.3008
341.549	0.3009
341.887	0.303
342.226	0.3046
342.564	0.3046
342.902	0.3053
343.24	0.3058
343.578	0.3062
343.916	0.3071
344.254	0.3076
344.592	0.3075
344.93	0.308
345.268	0.309
345.605	0.3086
345.943	0.309
346.28	0.3097
346.618	0.3093
346.955	0.3101
347.292	0.3101
347.629	0.31
347.966	0.3103
348.303	0.3106
348.64	0.3105
348.977	0.3106
349.314	0.3117
349.65	0.31
349.987	0.3106
350.324	0.3108
350.66	0.311
350.996	0.3092
351.333	0.3093
351.669	0.3097
352.005	0.3087
352.341	0.3066
352.677	0.3058
353.013	0.3051
353.349	0.3047
353.685	0.3022
354.02	0.3
354.356	0.2994
354.691	0.2976
355.027	0.2965
355.362	0.2972
355.697	0.2948
356.033	0.2946
356.368	0.293
356.703	0.2911
357.038	0.2912
357.373	0.2898
357.707	0.2882
358.042	0.2869
358.377	0.2864
358.711	0.2845
359.046	0.2826
359.38	0.2828
359.715	0.2808
360.049	0.2801
360.383	0.2779
360.717	0.2762
361.051	0.2748
361.385	0.273
361.719	0.2702
362.053	0.2685
362.387	0.2665
362.72	0.2647
363.054	0.263
363.387	0.2605
363.721	0.2583
364.054	0.2558
364.387	0.254
364.721	0.252
365.054	0.2493
365.387	0.2469
365.72	0.2445
366.053	0.2431
366.385	0.241
366.718	0.24
367.051	0.2372
367.383	0.2367
367.716	0.2344
368.048	0.2329
368.381	0.2306
368.713	0.2285
369.045	0.229
369.377	0.2262
369.709	0.2243
370.041	0.2232
370.373	0.2211
370.705	0.2188
371.037	0.2175
371.368	0.2151
371.7	0.2141
372.031	0.2116
372.363	0.2091
372.694	0.2062
373.025	0.2038
373.356	0.2017
373.688	0.1992
374.019	0.1966
374.35	0.1945
374.68	0.1918
375.011	0.1899
375.342	0.1865
375.673	0.185
376.003	0.1817
376.334	0.1803
376.664	0.178
376.995	0.1764
377.325	0.1739
377.655	0.1719
377.985	0.1698
378.315	0.1691
378.645	0.167
378.975	0.165
379.305	0.1639
379.635	0.1623
379.964	0.1612
380.294	0.1587
380.623	0.1574
380.953	0.1563
381.282	0.1535
381.611	0.1519
381.941	0.1508
382.27	0.1488
382.599	0.1468
382.928	0.1448
383.257	0.1442
383.585	0.1414
383.914	0.1403
384.243	0.138
384.571	0.1361
384.9	0.133
385.228	0.1312
385.557	0.129
385.885	0.1267
386.213	0.1253
386.541	0.1236
386.869	0.1219
387.197	0.1195
387.525	0.1178
387.853	0.1156
388.181	0.1142
388.508	0.1121
388.836	0.1099
389.164	0.1081
389.491	0.1071
389.818	0.1055
390.146	0.1048
390.473	0.103
390.8	0.1011
391.127	0.0998
391.454	0.0978
391.781	0.097
392.108	0.0963
392.435	0.0944
392.761	0.0929
393.088	0.0925
393.415	0.0909
393.741	0.0902
394.067	0.0887
394.394	0.0889
394.72	0.0869
395.046	0.0858
395.372	0.0849
395.698	0.0841
396.024	0.0824
396.35	0.0815
396.676	0.0806
397.001	0.079
397.327	0.0775
397.653	0.0764
397.978	0.0755
398.303	0.0752
398.629	0.0723
398.954	0.0718
399.279	0.0709
399.604	0.0705
399.929	0.0697
400.254	0.0689
400.579	0.0679
400.904	0.0666
401.229	0.0657
401.553	0.0654
401.878	0.0646
402.202	0.0636
402.527	0.0629
402.851	0.0623
403.175	0.0619
403.5	0.0613
403.824	0.0611
404.148	0.0605
404.472	0.0598
404.796	0.0592
405.119	0.0585
405.443	0.0578
405.767	0.057
406.09	0.0573
406.414	0.0572
406.737	0.0564
407.061	0.0562
407.384	0.0557
407.707	0.0556
408.03	0.0549
408.353	0.0558
408.676	0.0546
408.999	0.0552
409.322	0.0549
409.645	0.0539
409.968	0.0537
410.29	0.0535
410.613	0.0539
410.935	0.0537
411.258	0.0531
411.58	0.0529
411.902	0.053
412.224	0.0521
412.546	0.0524
412.868	0.052
413.19	0.0519
413.512	0.0519
413.834	0.0518
414.156	0.0508
414.477	0.0522
414.799	0.0511
415.121	0.0525
415.442	0.0515
415.763	0.0516
416.085	0.0517
416.406	0.0518
416.727	0.0514
417.048	0.0515
417.369	0.0512
417.69	0.051
418.011	0.0508
418.331	0.0518
418.652	0.0517
418.973	0.0516
419.293	0.0515
419.614	0.0519
419.934	0.0516
420.254	0.0515
420.574	0.0518
420.895	0.0514
421.215	0.0517
421.535	0.0509
421.855	0.0517
422.174	0.0507
422.494	0.0501
422.814	0.0507
423.134	0.0504
423.453	0.0512
423.773	0.0512
424.092	0.0509
424.411	0.0509
424.731	0.051
425.05	0.0505
425.369	0.0509
425.688	0.0512
426.007	0.0505
426.326	0.0509
426.644	0.0512
426.963	0.0511
427.282	0.0507
427.6	0.0508
427.919	0.0503
428.237	0.051
428.556	0.0506
428.874	0.0511
429.192	0.0517
429.51	0.0515
429.828	0.0512
430.146	0.0513
430.464	0.0506
430.782	0.0514
431.1	0.0513
431.418	0.0511
431.735	0.051
432.053	0.0513
432.37	0.0517
432.688	0.0512
433.005	0.0508
433.322	0.0512
433.639	0.0511
433.957	0.0518
434.274	0.0508
434.591	0.0511
434.907	0.0509
435.224	0.0503
435.541	0.051
435.858	0.0518
436.174	0.0516
436.491	0.0508
436.807	0.0505
437.124	0.0503
437.44	0.051
437.756	0.0508
438.072	0.0512
438.388	0.0515
438.704	0.0504
439.02	0.0514
439.336	0.0499
439.652	0.0498
439.968	0.0497
440.283	0.0492
440.599	0.0487
440.914	0.0502
441.23	0.0503
441.545	0.0501
441.86	0.0495
442.175	0.0496
442.491	0.0498
442.806	0.0495
443.121	0.0503
443.435	0.0495
443.75	0.0496
444.065	0.0487
444.38	0.049
444.694	0.0489
445.009	0.0489
445.323	0.0484
445.638	0.0485
445.952	0.0485
446.266	0.0492
446.58	0.0489
446.894	0.049
447.208	0.0483
447.522	0.0485
447.836	0.0486
448.15	0.0475
448.464	0.0481
448.777	0.0482
449.091	0.0473
449.404	0.0477
449.718	0.047
450.031	0.0472
450.345	0.0467
450.658	0.0474
450.971	0.0474
451.284	0.0469
451.597	0.0464
451.91	0.0467
452.223	0.046
452.535	0.0462
452.848	0.0464
453.161	0.0453
453.473	0.0463
453.786	0.0454
454.098	0.045
454.411	0.0459
454.723	0.0447
455.035	0.0443
455.347	0.0443
455.659	0.0445
455.971	0.0446
456.283	0.0434
456.595	0.0446
456.907	0.0442
457.218	0.0438
457.53	0.043
457.841	0.0433
458.153	0.0433
458.464	0.0427
458.776	0.043
459.087	0.0422
459.398	0.0432
459.709	0.0424
460.02	0.0424
460.331	0.0414
460.642	0.0417
460.953	0.0416
461.263	0.0407
461.574	0.04
461.885	0.0402
462.195	0.0402
462.506	0.0404
462.816	0.0395
463.126	0.0397
463.437	0.0398
463.747	0.0389
464.057	0.0384
464.367	0.0384
464.677	0.0375
464.987	0.0373
465.296	0.0381
465.606	0.0374
465.916	0.0376
466.225	0.0381
466.535	0.0369
466.844	0.0373
467.154	0.0366
467.463	0.0361
467.772	0.036
468.081	0.0362
468.39	0.0351
468.699	0.0354
469.008	0.0353
469.317	0.0349
469.626	0.0339
469.935	0.0337
470.243	0.0334
470.552	0.0331
470.86	0.0334
471.169	0.0334
471.477	0.0333
471.785	0.033
472.093	0.0328
472.402	0.0318
472.71	0.0323
473.018	0.0315
473.326	0.0308
473.633	0.0328
473.941	0.0311
474.249	0.0315
474.556	0.0317
474.864	0.0312
475.171	0.0304
475.479	0.0301
475.786	0.0295
476.094	0.0303
476.401	0.0289
476.708	0.0294
477.015	0.0292
477.322	0.0293
477.629	0.0285
477.936	0.0288
478.242	0.0273
478.549	0.0279
478.856	0.028
479.162	0.0267
479.469	0.0267
479.775	0.0273
480.081	0.0268
480.388	0.0261
480.694	0.0263
481	0.026
481.306	0.0256
481.612	0.0252
481.918	0.0255
482.224	0.025
482.53	0.0246
482.835	0.0251
483.141	0.0242
483.446	0.0245
483.752	0.0237
484.057	0.0236
484.363	0.0238
484.668	0.0225
484.973	0.0219
485.278	0.0223
485.583	0.0221
485.888	0.0218
486.193	0.0213
486.498	0.0204
486.803	0.0206
487.107	0.0214
487.412	0.0212
487.717	0.0203
488.021	0.02
488.325	0.0214
488.63	0.0203
488.934	0.0196
489.238	0.0203
489.542	0.018
489.846	0.0193
490.15	0.0191
490.454	0.0179
490.758	0.0179
491.062	0.0183
491.366	0.0181
491.669	0.0168
491.973	0.0182
492.276	0.0174
492.58	0.0172
492.883	0.0167
493.186	0.0166
493.489	0.017
493.792	0.0153
494.096	0.015
494.399	0.0155
494.701	0.016
495.004	0.0141
495.307	0.0154
495.61	0.0142
495.912	0.0152
496.215	0.0141
496.517	0.0144
496.82	0.015
497.122	0.0129
497.424	0.0146
497.727	0.0138
498.029	0.0128
498.331	0.0137
498.633	0.0135
498.935	0.013
499.237	0.0125
499.538	0.012
499.84	0.0119
500.142	0.0115
500.443	0.0118
500.745	0.0108
501.046	0.0105
501.348	0.0112
501.649	0.0105
501.95	0.0102
502.251	0.0106
502.552	0.0099
502.853	0.0101
503.154	0.0102
503.455	0.0103
503.756	0.009
504.057	0.0105
504.357	0.0092
504.658	0.0103
504.958	0.0092
505.259	0.0101
505.559	0.0091
505.859	0.0085
506.16	0.008
506.46	0.0079
506.76	0.009
507.06	0.0079
507.36	0.0078
507.66	0.0081
507.96	0.0086
508.259	0.0082
508.559	0.0084
508.859	0.008
509.158	0.0075
509.457	0.0065
509.757	0.007
510.056	0.0069
510.355	0.0067
510.655	0.0066
510.954	0.0074
511.253	0.0065
511.552	0.0069
511.851	0.0064
512.149	0.0052
512.448	0.0065
512.747	0.0065
513.045	0.0049
513.344	0.0054
513.642	0.0049
513.941	0.0053
514.239	0.0045
514.537	0.004
514.836	0.005
515.134	0.0042
515.432	0.0051
515.73	0.0047
516.028	0.0048
516.326	0.0052
516.623	0.0037
516.921	0.0034
517.219	0.0041
517.516	0.0036
517.814	0.0039
518.111	0.0031
518.409	0.0024
518.706	0.0031
519.003	0.0042
519.3	0.0026
519.597	0.0024
519.894	0.0038
520.191	0.0027
520.488	0.003
520.785	0.0026
521.082	0.0023
521.378	0.0017
521.675	0.002
521.971	0.0021
522.268	0.0029
522.564	0.002
522.861	0.0024
523.157	0.0029
523.453	0.0027
523.749	0.0028
524.045	0.0032
524.341	0.0025
524.637	0.0023
524.933	0.002
525.229	0.002
525.524	0.0007
525.82	0.0011
526.115	0.0013
526.411	0.0009
526.706	0.0004
527.002	0.0014
527.297	0.0004
527.592	0.0017
527.887	0.0025
528.182	0.0021
528.477	0.003
528.772	0.002
529.067	0.0011
529.362	0.001
529.657	0.0013
529.951	0.0015
530.246	0.0001
530.54	0.0012
530.835	0.0009
531.129	0.0007
531.423	0.0006
531.718	0.0001
532.012	0.0017
532.306	0.0004
532.6	-0.0008
532.894	0.0008
533.188	0.001
533.482	0.001
533.775	0.0003
534.069	-0.0002
534.363	-0.0011
534.656	-0.0007
534.95	0.0008
535.243	-0.0002
535.536	-0.0001
535.83	-0.0016
536.123	-0.0003
536.416	0.0006
536.709	-0.0002
537.002	-0.0006
537.295	0.0004
537.588	-0.0004
537.881	-0.0005
538.173	-0.0002
538.466	-0.0012
538.759	-0.0003
539.051	-0.0004
539.344	-0.0003
539.636	-0.0004
539.928	0.0003
540.22	0.0004
540.513	0.0006
540.805	0.0013
541.097	-0.0006
541.389	-0.0007
541.681	0.0007
541.972	0.0012
542.264	0.0008
542.556	0.0003
542.847	0.0015
543.139	0.0009
543.431	0.0003
543.722	0.0004
544.013	0.0011
544.305	-0.0006
544.596	0.0004
544.887	-0.0002
545.178	0.0004
545.469	-0.0016
545.76	0.0002
546.051	0.0009
546.342	-0.0001
546.632	-0.0013
546.923	-0.0003
547.214	-0.0004
547.504	0.0006
547.795	-0.002
548.085	-0.0016
548.375	-0.0013
548.666	-0.0007
548.956	0.0002
549.246	-0.0009
549.536	-0.0001
549.826	-0.001
550.116	-0.001
550.406	-0.0012
550.695	-0.0014
550.985	0.0001
551.275	-0.001
551.564	-0.0009
551.854	0.0001
552.143	-0.001
552.433	-0.002
552.722	-0.0023
553.011	-0
553.3	-0.0003
553.589	-0.0003
553.879	-0.0003
554.167	-0.0008
554.456	0.0007
554.745	-0.0002
555.034	-0.0011
555.323	0.0004
555.611	-0.0002
555.9	0
556.188	-0.0015
556.477	-0.0011
556.765	-0.0012
557.053	-0.0018
557.342	-0.0005
557.63	-0.0013
557.918	-0.0001
558.206	-0
558.494	-0.0004
558.782	-0.0004
559.069	0.0003
559.357	0.0009
559.645	0.0002
559.932	-0.0008
560.22	-0.0001
560.507	-0.0011
560.795	-0.0012
561.082	-0.0018
561.37	-0.0003
561.657	-0.0012
561.944	-0.0002
562.231	-0.001
562.518	-0.0003
562.805	-0.0002
563.092	0.0005
563.379	0.0002
563.665	0.001
563.952	-0.0007
564.239	0.0006
564.525	-0.0005
564.811	0.0009
565.098	-0.0005
565.384	0.0004
565.67	0.0006
565.957	0.0011
566.243	0.0009
566.529	-0.0003
566.815	0.0001
567.101	0.0013
567.387	0.0006
567.672	0.0003
567.958	0.0009
568.244	0.0003
568.529	0.0011
568.815	0.0001
569.1	-0.0003
569.386	-0.0013
569.671	0.0005
569.956	0.0003
570.242	-0
570.527	-0.0002
570.812	0
571.097	0.0002
571.382	-0.0008
571.666	0.0008
571.951	0.0004
572.236	0.0003
572.521	-0.0004
572.805	-0.001
573.09	-0.0005
573.374	-0.0007
573.659	0.0002
573.943	-0.0008
574.227	0.0001
574.511	-0.0013
574.795	-0.0002
575.079	0.0002
575.363	-0.0004
575.647	-0.001
575.931	0.0002
576.215	-0.0011
576.499	-0.0008
576.782	-0.0006
577.066	-0.0012
577.349	0
577.633	-0.001
577.916	-0.0012
578.2	0.0002
578.483	-0.0004
578.766	-0.0003
579.049	-0.0007
579.332	0.0003
579.615	0.0002
579.898	0.0005
580.181	0.0002
580.464	0.0006
580.746	0.0004
581.029	-0.0005
581.312	-0.0001
581.594	-0.0006
581.877	-0.0007
582.159	-0.0007
582.441	-0.001
582.724	-0.0005
583.006	0.001
583.288	-0.0001
583.57	0.0007
583.852	0
584.134	0.0004
584.416	0
584.697	0.0003
584.979	-0.0005
585.261	-0.0012
585.542	-0.0016
585.824	-0.001
586.105	-0.0011
586.387	-0.002
586.668	-0.0006
586.949	-0.0005
587.231	0
587.512	-0.0009
587.793	0.0006
588.074	-0.0008
588.355	0.0002
588.636	-0.0004
588.916	-0.0012
589.197	-0.0004
589.478	-0.0001
589.758	0.0001
590.039	0
590.319	-0.0005
590.6	0.0006
590.88	-0.0002
591.16	0.0009
591.441	0.0005
591.721	-0.0003
592.001	-0.0002
592.281	-0.0003
592.561	0.0001
592.841	-0.0008
593.12	-0.0017
593.4	-0.0008
593.68	-0.0024
593.959	-0.0018
594.239	-0.0017
594.518	-0.0015
594.798	-0.0003
595.077	-0.0015
595.356	-0.0008
595.636	-0.0013
595.915	-0.0001
596.194	0.0002
596.473	-0.0005
596.752	0.0004
597.031	0.0001
597.31	-0.0002
597.588	-0.0007
597.867	-0.0001
598.146	-0.001
598.424	-0.0009
598.703	-0.0001
598.981	-0.0014
599.259	-0.0012
599.538	-0.0013
599.816	-0.0002
600.094	-0
600.372	-0.0009
600.65	-0.002
600.928	-0.0014
601.206	-0.0001
601.484	-0.0007
601.762	-0.0001
602.04	-0.0006
602.317	-0.0005
602.595	-0.0003
602.872	0
603.15	0.001
603.427	-0.0011
603.704	-0.0011
603.982	-0.0007
604.259	-0.0011
604.536	-0.0001
604.813	-0.0009
605.09	-0.0011
605.367	-0.0004
605.644	-0.0017
605.921	-0.0008
606.197	-0.0007
606.474	-0.0006
606.751	-0.0013
607.027	-0.001
607.304	-0.0003
607.58	-0.001
607.856	-0.0012
608.133	-0.0013
608.409	-0.0006
608.685	-0.0003
608.961	-0.0016
609.237	-0.0006
609.513	-0.0014
609.789	-0.0007
610.065	-0.0008
610.341	-0.0011
610.616	-0.0005
610.892	0.001
611.167	0.0012
611.443	0.0005
611.718	-0.0002
611.994	-0.0001
612.269	-0.0006
612.544	-0.0003
612.819	-0.0006
613.095	-0.0008
613.37	0.0002
613.645	-0.0009
613.919	-0.0011
614.194	-0.0003
614.469	0.0007
614.744	-0.0009
615.019	-0.0005
615.293	-0.001
615.568	-0.0012
615.842	-0.0005
616.116	-0.0005
616.391	0.0001
616.665	0.0008
616.939	0.0005
617.213	0.0003
617.488	0.0009
617.762	-0.0006
618.035	-0.0003
618.309	-0.0013
618.583	-0.0002
618.857	0.0002
619.131	0.0003
619.404	0.0006
619.678	0.0002
619.951	-0.0006
620.225	-0.0009
620.498	-0.0007
620.771	-0.0001
621.045	-0.001
621.318	-0.0019
621.591	-0.0019
621.864	-0.0014
622.137	-0.0013
622.41	-0.002
622.683	-0.0017
622.956	-0.0012
623.228	-0.0005
623.501	-0.0005
623.774	-0.0006
624.046	-0.0002
624.319	-0.0014
624.591	-0.0016
624.863	-0.0019
625.136	-0.0001
625.408	-0.0006
625.68	0.0001
625.952	0.0002
626.224	-0.0002
626.496	-0.0001
626.768	-0.0007
627.04	-0.0008
627.311	0.0001
627.583	0.0001
627.855	0.0009
628.126	0.0009
628.398	0.0016
628.669	0.002
628.941	0.0018
629.212	0.0008
629.483	0.0008
629.755	-0.0003
630.026	0.0004
630.297	0.0006
630.568	0.0005
630.839	0.0001
631.11	0.0005
631.38	0.0005
631.651	0.0008
631.922	0.0007
632.192	-0.0005
632.463	0.0002
632.733	-0.0004
633.004	0.0003
633.274	-0.0005
633.545	-0.0006
633.815	-0.0007
634.085	-0.002
634.355	-0.0022
634.625	-0.0015
634.895	-0.001
635.165	-0.0015
635.435	-0.0021
635.705	-0.0008
635.974	-0.0021
636.244	-0.001
636.514	-0.0004
636.783	-0.0014
637.053	-0.001
637.322	-0.0013
637.591	-0.0013
637.861	-0.001
638.13	-0.0013
638.399	-0.0022
638.668	-0.0018
638.937	-0.0034
639.206	-0.0032
639.475	-0.0027
639.744	-0.0026
640.013	-0.0027
640.281	-0.0019
640.55	-0.0013
640.819	-0.0023
641.087	-0.0026
641.356	-0.0018
641.624	-0.002
641.892	-0.0011
642.161	-0.001
642.429	-0.0017
642.697	-0.0012
642.965	-0.0016
643.233	-0.0012
643.501	-0.0013
643.769	-0.0009
644.037	-0.0005
644.305	-0.0015
644.572	-0.0016
644.84	-0.001
645.108	-0.0023
645.375	-0.0023
645.643	-0.0033
645.91	-0.0014
646.177	-0.0001
646.445	-0.0008
646.712	0.0002
646.979	0.0011
647.246	0.0021
647.513	0.0012
647.78	0.0003
648.047	-0.0005
648.314	-0.0022
648.58	-0.002
648.847	-0.0019
649.114	-0.0005
649.38	-0.0002
649.647	-0.0012
649.913	-0.0013
650.18	-0.0019
650.446	-0.0013
650.712	-0.002
650.978	-0.0017
651.245	-0.003
651.511	-0.0024
651.777	-0.0023
652.043	-0.0017
652.309	-0.0005
652.574	0.0005
652.84	0.0003
653.106	0.0004
653.371	-0.0002
653.637	0.0006
653.903	0.0007
654.168	0.0008
654.433	0.0005
654.699	0.0014
654.964	0.002
655.229	0.0005
655.494	0.0003
655.759	-0.0012
656.024	0.0003
656.289	-0
656.554	-0.0025
656.819	-0.002
657.084	-0.0001
657.349	0.0002
657.613	0.0005
657.878	-0.0008
658.142	-0.001
658.407	-0.001
658.671	-0.0002
658.936	0.0004
659.2	0.0001
659.464	0
659.728	-0.0002
659.992	-0.0009
660.256	-0.0005
660.52	-0.0011
660.784	-0.0012
661.048	-0.0002
661.312	0.0001
661.575	0.0005
661.839	0.0012
662.103	-0.0008
662.366	0.0002
662.63	-0.0022
662.893	-0.0012
663.156	-0.0016
663.42	-0.0027
663.683	-0.0031
663.946	-0.003
664.209	-0.0028
664.472	-0.0029
664.735	-0.0027
664.998	-0.0017
665.261	-0.0016
665.524	-0.0036
665.786	-0.0018
666.049	-0.0022
666.312	-0.0018
666.574	-0.0024
666.837	-0.0009
667.099	-0.0005
667.361	-0.0026
667.624	-0.0022
667.886	-0.0027
668.148	-0.0026
668.41	-0.002
668.672	-0.0024
668.934	-0.0011
669.196	-0.0003
669.458	0.0001
669.72	0.0006
669.982	0.0008
670.243	0.001
670.505	-0.0002
670.766	-0.0003
671.028	-0.0013
671.289	-0.003
671.551	-0.0011
671.812	-0.0024
672.073	-0.0021
672.334	-0.0022
672.596	-0.0027
672.857	-0.0029
673.118	-0.0031
673.379	-0.003
673.639	-0.0033
673.9	-0.0039
674.161	-0.0022
674.422	-0.0034
674.682	-0.0033
674.943	-0.003
675.203	-0.0033
675.464	-0.0034
675.724	-0.0041
675.985	-0.0033
676.245	-0.0043
676.505	-0.0037
676.765	-0.0037
677.025	-0.0032
677.285	-0.0039
677.545	-0.0015
677.805	-0.0016
678.065	-0.0015
678.325	-0.0006
678.585	-0.0022
678.844	-0.0036
679.104	-0.0032
679.363	-0.0038
679.623	-0.0039
679.882	-0.0027
680.142	-0.0032
680.401	-0.0033
680.66	-0.0016
680.919	-0.0008
681.178	-0.0013
681.437	-0.0014
681.696	-0.0013
681.955	-0.0012
682.214	-0.0017
682.473	-0.002
682.732	-0.0034
682.99	-0.0023
683.249	-0.0013
683.508	-0.0016
683.766	-0.0024
684.024	-0.0022
684.283	-0.0012
684.541	-0.0014
684.799	-0.0019
685.058	-0.0018
685.316	-0.0026
685.574	-0.0024
685.832	-0.0034
686.09	-0.0035
686.348	-0.005
686.606	-0.0042
686.863	-0.0042
687.121	-0.0031
687.379	-0.0012
687.636	-0.0026
687.894	-0.0019
688.151	-0.0016
688.409	-0.0015
688.666	-0.0024
688.923	-0.004
689.181	-0.0038
689.438	-0.0031
689.695	-0.003
689.952	-0.0046
690.209	-0.0038
690.466	-0.0049
690.723	-0.003
690.979	-0.0026
691.236	-0.0031
691.493	-0.0022
691.75	-0.0022
692.006	-0.0034
692.263	-0.0025
692.519	-0.0035
692.775	-0.0025
693.032	-0.0033
693.288	-0.0019
693.544	-0.0014
693.8	-0.0021
694.056	-0.0016
694.313	-0.0024
694.568	-0.002
694.824	-0.0021
695.08	-0.0028
695.336	-0.0042
695.592	-0.0044
695.847	-0.0024
696.103	-0.0028
696.359	-0.0028
696.614	-0.003
696.869	-0.0038
697.125	-0.0042
697.38	-0.0036
697.635	-0.0024
697.891	-0.0027
698.146	-0.0021
698.401	-0.0022
698.656	-0.0029
698.911	-0.0029
699.166	-0.0023
699.42	-0.0013
699.675	-0.0019
699.93	-0.0016
700.185	-0.0022
700.439	-0.0024
700.694	-0.0022
700.948	-0.0029
701.203	-0.0034
701.457	-0.0039
701.711	-0.0045
701.965	-0.0044
702.22	-0.0041
702.474	-0.0047
702.728	-0.0028
702.982	-0.0033
703.236	-0.0029
703.49	-0.0017
703.743	-0.0019
703.997	-0.0018
704.251	-0.0029
704.504	-0.0021
704.758	-0.0033
705.012	-0.0028
705.265	-0.0024
705.518	-0.0008
705.772	-0.0016
706.025	-0.002
706.278	-0.0021
706.531	-0.0026
706.785	-0.0014
707.038	-0.0027
707.291	-0.0029
707.543	-0.0024
707.796	-0.0031
708.049	-0.0035
708.302	-0.0041
708.555	-0.0049
708.807	-0.0036
709.06	-0.0044
709.312	-0.004
709.565	-0.004
709.817	-0.0053
710.069	-0.0046
710.322	-0.0053
710.574	-0.0054
710.826	-0.0051
711.078	-0.0051
711.33	-0.0039
711.582	-0.0046
711.834	-0.0062
712.086	-0.0058
712.338	-0.006
712.59	-0.0052
712.841	-0.006
713.093	-0.0053
713.344	-0.0056
713.596	-0.0055
713.847	-0.0043
714.099	-0.0052
714.35	-0.0048
714.601	-0.0038
714.853	-0.0031
715.104	-0.004
715.355	-0.0039
715.606	-0.004
715.857	-0.0029
716.108	-0.0046
716.359	-0.0041
716.609	-0.0047
716.86	-0.0044
717.111	-0.0029
717.361	-0.0037
717.612	-0.0026
717.863	-0.0023
718.113	-0.0008
718.363	-0.0018
718.614	-0.0011
718.864	-0.001
719.114	-0.0013
719.364	-0.0005
719.614	-0.0009
719.865	-0
720.114	0.0005
720.364	0.0002
720.614	0.0008
720.864	-0.0003
721.114	-0.0002
721.364	-0.0003
721.613	-0.0003
721.863	-0.0008
722.112	-0.0008
722.362	-0.0011
722.611	-0.0023
722.86	-0.0022
723.11	-0.0023
723.359	-0.0024
723.608	-0.0018
723.857	-0.002
724.106	-0.0013
724.355	-0.0013
724.604	-0.0018
724.853	-0.0013
725.102	-0.004
725.351	-0.0027
725.599	-0.0038
725.848	-0.0032
726.097	-0.0026
726.345	-0.0033
726.594	-0.0041
726.842	-0.0045
727.09	-0.0047
727.339	-0.0061
727.587	-0.006
727.835	-0.0047
728.083	-0.0049
728.331	-0.0046
728.579	-0.0045
728.827	-0.004
729.075	-0.0035
729.323	-0.0035
729.571	-0.0039
729.818	-0.0035
730.066	-0.003
730.314	-0.0032
730.561	-0.0009
730.809	-0.0004
731.056	-0.0011
731.303	-0.0008
731.551	-0.0013
731.798	-0.001
732.045	-0.0012
732.292	-0
732.539	0.0003
732.786	0.0012
733.033	-0.0003
733.28	-0.0004
733.527	-0.0006
733.774	-0.0009
734.021	-0.003
734.267	-0.0032
734.514	-0.0026
734.76	-0.0036
735.007	-0.0034
735.253	-0.0032
735.5	-0.0031
735.746	-0.0033
735.992	-0.0021
736.238	-0.0022
736.485	-0.0022
736.731	-0.0023
736.977	-0.0026
737.223	-0.0019
737.469	-0.0022
737.715	-0.002
737.96	-0.0026
738.206	-0.0034
738.452	-0.0024
738.697	-0.0026
738.943	-0.0018
739.189	-0.0021
739.434	-0.0019
739.679	-0.0026
739.925	-0.0037
740.17	-0.0046
740.415	-0.0054
740.66	-0.0065
740.906	-0.0065
741.151	-0.0047
741.396	-0.0057
741.641	-0.0053
741.886	-0.0053
742.13	-0.0034
742.375	-0.0026
742.62	-0.0034
742.865	-0.0033
743.109	-0.0016
743.354	-0.0016
743.598	-0.0005
743.843	-0.0003
744.087	-0.0002
744.331	-0.0007
744.576	0.0003
744.82	0.0014
745.064	0.0007
745.308	0.0024
745.552	0.0015
745.796	0.0009
746.04	0.0005
746.284	-0.0005
746.528	0.0003
746.771	0.0023
747.015	0.0015
747.259	0.0007
747.502	-0.0005
747.746	-0.0013
747.989	-0.0007
748.233	-0.0022
748.476	0.0002
748.719	0.0001
748.963	0.0006
749.206	0.0009
749.449	-0.0002
749.692	-0.0003
749.935	0.0001
750.178	-0.0004
750.421	-0.0013
750.664	-0.0006
750.906	0.0007
751.149	0.0012
751.392	-0.0005
751.635	-0.0008
751.877	-0.0004
752.12	-0.0003
752.362	-0.0004
752.604	-0.0009
752.847	0.001
753.089	0.0014
753.331	0.0013
753.573	0.0012
753.816	-0.0008
754.058	-0.0022
754.3	-0.0039
754.542	-0.0033
754.783	-0.0034
755.025	-0.0031
755.267	-0.0023
755.509	-0.0034
755.75	-0.0033
755.992	-0.0028
756.234	-0.0038
756.475	-0.0036
756.716	-0.0035
756.958	-0.0028
757.199	-0.0029
757.44	-0.0014
757.682	-0.0007
757.923	-0.001
758.164	-0
758.405	-0.0006
758.646	0.0006
758.887	0.0009
759.128	0.0012
759.369	0.0005
759.609	0.001
759.85	0.0008
760.091	0.0007
760.331	0.0004
760.572	-0.001
760.812	-0.0012
761.053	-0.0011
761.293	-0.0007
761.533	-0.0003
761.774	0.0006
762.014	0.001
762.254	0.0014
762.494	-0.0003
762.734	-0.0003
762.974	-0.0017
763.214	-0.0007
763.454	-0.0007
763.694	-0.0011
763.933	-0.0029
764.173	-0.0038
764.413	-0.0039
764.652	-0.0042
764.892	-0.0042
765.131	-0.0035
765.371	-0.0033
765.61	-0.0041
765.849	-0.003
766.089	-0.0033
766.328	-0.0031
766.567	-0.0032
766.806	-0.0033
767.045	-0.0019
767.284	-0.0029
767.523	-0.0027
767.762	-0.0032
768.001	-0.0032
768.239	-0.0031
768.478	-0.0027
768.717	-0.0023
768.955	-0.0022
769.194	-0.0026
769.432	-0.0006
769.671	-0.0008
769.909	-0.0007
770.148	-0.0001
770.386	0.0006
770.624	0.0009
770.862	0.0019
771.1	0.0017
771.338	0.0011
771.576	0.0002
771.814	0.0006
772.052	0.0011
772.29	0.0028
772.528	0.003
772.765	0.0036
773.003	0.0043
773.24	0.004
773.478	0.0025
773.716	0.0017
773.953	0.002
774.19	0.0018
774.428	0.0029
774.665	0.0024
774.902	0.0033
775.139	0.0032
775.376	0.0024
775.613	0.0028
775.85	0.0022
776.087	0.0013
776.324	0.0017
776.561	0.0012
776.798	0.0003
777.034	0.0003
777.271	0.0016
777.508	0.0012
777.744	0.0021
777.981	0.003
778.217	0.0027
778.454	0.0018
778.69	0.0007
778.926	0.0001
779.162	-0.0008
779.399	-0.0001
779.635	-0.0011
779.871	-0.0001
780.107	-0.0007
780.343	-0.001
780.579	-0.0008
780.814	-0.0014
781.05	-0.0009
781.286	-0.0017
781.522	-0.0016
781.757	-0.0014
781.993	-0.0019
782.228	-0.0028
782.464	-0.0014
782.699	-0.0025
782.934	-0.003
783.17	-0.0028
783.405	-0.0026
783.64	-0.0027
783.875	-0.0034
784.11	-0.004
784.345	-0.0024
784.58	-0.0023
784.815	-0.0009
785.05	-0.003
785.285	-0.0028
785.52	-0.0023
785.754	-0.0036
785.989	-0.0033
786.223	-0.0039
786.458	-0.0048
786.692	-0.0036
786.927	-0.0033
787.161	-0.002
787.396	-0.0037
787.63	-0.004
787.864	-0.005
788.098	-0.0055
788.332	-0.0052
788.566	-0.0044
788.8	-0.0044
789.034	-0.0035
789.268	-0.0031
789.502	-0.0024
789.736	-0.0027
789.969	-0.0032
790.203	-0.0042
790.437	-0.0044
790.67	-0.0059
790.904	-0.0066
791.137	-0.0078
791.37	-0.0068
791.604	-0.009
791.837	-0.0078
792.07	-0.0074
792.303	-0.0074
792.537	-0.0061
792.77	-0.0059
793.003	-0.0061
793.236	-0.0046
793.469	-0.0051
793.701	-0.0033
793.934	-0.003
794.167	-0.0015
794.4	-0.0024
794.632	-0.0015
794.865	-0.001
795.097	-0.0014
795.33	-0.0022
795.562	-0.002
795.795	-0.0013
796.027	-0.001
796.259	-0.0001
796.491	0.0005
796.724	-0.001
796.956	0.0006
797.188	-0.0001
797.42	-0.0003
797.652	-0.0005
797.883	-0
798.115	0
798.347	-0.001
798.579	0.0003
798.81	0.0006
799.042	0.0011
799.274	-0.0004
799.505	-0.0002
799.737	-0.0006
799.968	-0.0011
800.199	-0.0018
800.431	-0.0016
800.662	-0.0018
800.893	-0.0027
801.124	-0.0029
801.355	-0.0033
801.586	-0.0029
801.817	-0.0032
802.048	-0.0054
802.279	-0.0039
802.51	-0.0026
802.741	-0.0022
802.971	-0.0009
803.202	-0.0004
803.433	-0.0016
803.663	-0.0029
803.894	-0.0033
804.124	-0.0043
804.354	-0.0039
804.585	-0.0043
804.815	-0.0035
805.045	-0.004
805.275	-0.0033
805.506	-0.0449
805.736	-0.0577
805.966	-0.0315
806.196	-0.0268
