Data from 03 0.5 mM K2Cr2O7 0.3 mM BQDS 1 M H2SO4 5 min_Absorbance_0163.txt Node
Date: Tue Dec 14 07:14:44 EST 2021
User: kwabilab-user
Spectrometer: HDX00518
Trigger mode: 0
Integration Time (sec): 5.000000E-2
Scans to average: 50
Nonlinearity correction enabled: false
Boxcar width: 0
Storing dark spectrum: false
XAxis mode: Wavelengths
Number of Pixels in Spectrum: 2068
>>>>>Begin Spectral Data<<<<<
195.27	-0.0238
195.642	0.1392
196.014	0.0114
196.386	0.257
196.758	-0.0477
197.129	-0.0055
197.501	-0.0204
197.872	0.0034
198.244	0.0146
198.615	0.0335
198.986	0.0222
199.357	0.0299
199.728	0.0258
200.099	0.0404
200.47	0.0182
200.841	0.0117
201.212	0.0383
201.582	0.0266
201.953	0.0256
202.323	0.0352
202.694	0.0256
203.064	0.018
203.434	0.0434
203.804	0.0099
204.174	0.0411
204.544	0.0219
204.914	0.0222
205.284	0.0314
205.653	0.0101
206.023	0.0291
206.393	0.0161
206.762	0.034
207.131	0.0342
207.501	0.0136
207.87	0.039
208.239	0.0429
208.608	0.0203
208.977	0.0167
209.346	0.0252
209.715	0.0189
210.083	0.0239
210.452	0.0204
210.82	0.0325
211.189	0.014
211.557	0.0258
211.925	0.0077
212.294	0.0174
212.662	0.0158
213.03	0.0057
213.398	0.0372
213.766	0.0433
214.133	0.0299
214.501	0.0287
214.869	0.0354
215.236	0.027
215.604	0.0384
215.971	0.0405
216.338	0.033
216.705	0.061
217.072	0.0426
217.439	0.0346
217.806	0.0365
218.173	0.0307
218.54	0.0587
218.907	0.0689
219.273	0.0719
219.64	0.0714
220.006	0.0691
220.373	0.0826
220.739	0.123
221.105	0.1057
221.471	0.1271
221.837	0.1579
222.203	0.1644
222.569	0.1793
222.935	0.1992
223.3	0.2064
223.666	0.2291
224.031	0.2632
224.397	0.2725
224.762	0.2972
225.127	0.3455
225.493	0.3473
225.858	0.358
226.223	0.3914
226.588	0.4072
226.952	0.4378
227.317	0.4512
227.682	0.4705
228.046	0.4709
228.411	0.4926
228.775	0.5105
229.14	0.5221
229.504	0.5492
229.868	0.5399
230.232	0.5697
230.596	0.5748
230.96	0.5833
231.324	0.59
231.688	0.6046
232.052	0.634
232.415	0.6218
232.779	0.6047
233.142	0.6382
233.505	0.6374
233.869	0.656
234.232	0.6462
234.595	0.6427
234.958	0.6496
235.321	0.6559
235.684	0.6502
236.047	0.6565
236.409	0.6424
236.772	0.6475
237.134	0.6545
237.497	0.6489
237.859	0.6488
238.222	0.6614
238.584	0.6489
238.946	0.6405
239.308	0.6474
239.67	0.6484
240.032	0.634
240.393	0.632
240.755	0.6279
241.117	0.6279
241.478	0.6326
241.84	0.6346
242.201	0.6193
242.562	0.6128
242.924	0.6205
243.285	0.6235
243.646	0.6176
244.007	0.6159
244.368	0.6172
244.728	0.6132
245.089	0.622
245.45	0.6132
245.81	0.6089
246.171	0.6075
246.531	0.6033
246.891	0.5968
247.252	0.5994
247.612	0.603
247.972	0.6033
248.332	0.5995
248.692	0.6017
249.051	0.6009
249.411	0.5923
249.771	0.5941
250.13	0.5894
250.49	0.5941
250.849	0.5953
251.208	0.5917
251.568	0.5915
251.927	0.5914
252.286	0.5925
252.645	0.5891
253.004	0.5966
253.363	0.5833
253.721	0.5958
254.08	0.5941
254.439	0.5841
254.797	0.5831
255.155	0.5824
255.514	0.586
255.872	0.5813
256.23	0.5801
256.588	0.588
256.946	0.5791
257.304	0.5777
257.662	0.5796
258.02	0.5819
258.377	0.572
258.735	0.5692
259.093	0.568
259.45	0.5739
259.807	0.5718
260.165	0.5644
260.522	0.5704
260.879	0.5623
261.236	0.5614
261.593	0.5616
261.95	0.5604
262.306	0.5546
262.663	0.5521
263.02	0.5521
263.376	0.5495
263.733	0.546
264.089	0.5463
264.445	0.5368
264.802	0.5384
265.158	0.5432
265.514	0.5375
265.87	0.5266
266.226	0.5308
266.581	0.5343
266.937	0.5296
267.293	0.5268
267.648	0.5202
268.004	0.5204
268.359	0.5154
268.714	0.5092
269.07	0.5097
269.425	0.5087
269.78	0.4985
270.135	0.5031
270.49	0.4949
270.844	0.5002
271.199	0.4917
271.554	0.4892
271.908	0.4862
272.263	0.4866
272.617	0.4773
272.972	0.4801
273.326	0.4725
273.68	0.47
274.034	0.4652
274.388	0.4654
274.742	0.4661
275.096	0.4599
275.45	0.4555
275.803	0.4489
276.157	0.4477
276.51	0.4457
276.864	0.4419
277.217	0.4371
277.571	0.436
277.924	0.4309
278.277	0.4266
278.63	0.4214
278.983	0.4184
279.336	0.413
279.688	0.4083
280.041	0.404
280.394	0.4032
280.746	0.399
281.099	0.3921
281.451	0.3874
281.803	0.385
282.156	0.3814
282.508	0.3773
282.86	0.3725
283.212	0.3686
283.564	0.363
283.916	0.3635
284.267	0.3601
284.619	0.3542
284.971	0.3502
285.322	0.3479
285.673	0.3421
286.025	0.3357
286.376	0.3355
286.727	0.3282
287.078	0.3259
287.429	0.3224
287.78	0.3191
288.131	0.3128
288.482	0.309
288.833	0.3051
289.183	0.3004
289.534	0.2964
289.884	0.295
290.235	0.2898
290.585	0.2863
290.935	0.2831
291.285	0.277
291.635	0.2757
291.985	0.2703
292.335	0.2664
292.685	0.2649
293.035	0.2604
293.384	0.2554
293.734	0.2525
294.083	0.2504
294.433	0.2445
294.782	0.2419
295.131	0.238
295.48	0.2332
295.829	0.2309
296.179	0.2286
296.527	0.2242
296.876	0.2204
297.225	0.2181
297.574	0.2142
297.922	0.2125
298.271	0.2077
298.619	0.2046
298.968	0.201
299.316	0.1986
299.664	0.1961
300.012	0.1933
300.36	0.1902
300.708	0.1875
301.056	0.1849
301.404	0.1823
301.752	0.1805
302.099	0.178
302.447	0.1751
302.794	0.1731
303.142	0.1708
303.489	0.1685
303.836	0.1673
304.183	0.1639
304.531	0.1636
304.878	0.1604
305.224	0.1597
305.571	0.1575
305.918	0.1565
306.265	0.1549
306.611	0.153
306.958	0.153
307.304	0.1509
307.651	0.1498
307.997	0.1482
308.343	0.1477
308.689	0.1466
309.035	0.1454
309.381	0.1448
309.727	0.1443
310.073	0.1436
310.419	0.1427
310.764	0.1416
311.11	0.1417
311.455	0.1416
311.801	0.1414
312.146	0.1407
312.491	0.1407
312.837	0.1402
313.182	0.1399
313.527	0.1405
313.872	0.1402
314.216	0.1404
314.561	0.1404
314.906	0.1402
315.251	0.141
315.595	0.1413
315.94	0.1414
316.284	0.1421
316.628	0.143
316.972	0.1437
317.317	0.1437
317.661	0.1445
318.005	0.1457
318.348	0.1462
318.692	0.1464
319.036	0.1469
319.38	0.1483
319.723	0.149
320.067	0.1498
320.41	0.1504
320.754	0.1515
321.097	0.1532
321.44	0.1545
321.783	0.1559
322.126	0.1573
322.469	0.1577
322.812	0.159
323.155	0.1607
323.498	0.162
323.84	0.1642
324.183	0.1658
324.525	0.1666
324.868	0.1686
325.21	0.1688
325.552	0.1718
325.894	0.1725
326.236	0.1741
326.578	0.1757
326.92	0.1767
327.262	0.1794
327.604	0.1806
327.946	0.1819
328.287	0.1838
328.629	0.1861
328.97	0.1866
329.312	0.1881
329.653	0.19
329.994	0.1918
330.335	0.1933
330.676	0.1961
331.017	0.1969
331.358	0.1997
331.699	0.2002
332.04	0.2026
332.38	0.2042
332.721	0.2053
333.061	0.2082
333.402	0.2095
333.742	0.2111
334.083	0.2128
334.423	0.2134
334.763	0.2154
335.103	0.2174
335.443	0.2191
335.783	0.2209
336.123	0.2206
336.462	0.2222
336.802	0.225
337.141	0.226
337.481	0.2268
337.82	0.228
338.16	0.2295
338.499	0.2323
338.838	0.2317
339.177	0.2339
339.516	0.2358
339.855	0.237
340.194	0.2376
340.533	0.2395
340.872	0.2404
341.21	0.2412
341.549	0.2421
341.887	0.2424
342.226	0.2443
342.564	0.2447
342.902	0.2458
343.24	0.2462
343.578	0.2467
343.916	0.2479
344.254	0.2473
344.592	0.2483
344.93	0.2493
345.268	0.2488
345.605	0.2489
345.943	0.25
346.28	0.2506
346.618	0.2504
346.955	0.2498
347.292	0.251
347.629	0.2515
347.966	0.2511
348.303	0.2514
348.64	0.2525
348.977	0.2522
349.314	0.2526
349.65	0.2526
349.987	0.2526
350.324	0.2526
350.66	0.252
350.996	0.2509
351.333	0.2511
351.669	0.2514
352.005	0.251
352.341	0.2498
352.677	0.2484
353.013	0.2483
353.349	0.2469
353.685	0.2459
354.02	0.2442
354.356	0.2427
354.691	0.243
355.027	0.241
355.362	0.2413
355.697	0.2406
356.033	0.24
356.368	0.2382
356.703	0.237
357.038	0.2367
357.373	0.2353
357.707	0.2345
358.042	0.2341
358.377	0.2333
358.711	0.2319
359.046	0.2303
359.38	0.2294
359.715	0.2292
360.049	0.2282
360.383	0.2263
360.717	0.2248
361.051	0.2241
361.385	0.2227
361.719	0.2206
362.053	0.2194
362.387	0.217
362.72	0.2153
363.054	0.2132
363.387	0.2118
363.721	0.2102
364.054	0.2081
364.387	0.2069
364.721	0.2042
365.054	0.203
365.387	0.2008
365.72	0.1999
366.053	0.1976
366.385	0.1962
366.718	0.1947
367.051	0.1936
367.383	0.1916
367.716	0.1904
368.048	0.1891
368.381	0.1872
368.713	0.1861
369.045	0.1852
369.377	0.1834
369.709	0.182
370.041	0.1812
370.373	0.1791
370.705	0.1779
371.037	0.1754
371.368	0.1743
371.7	0.1731
372.031	0.1707
372.363	0.1689
372.694	0.1667
373.025	0.1645
373.356	0.1622
373.688	0.1609
374.019	0.1589
374.35	0.1569
374.68	0.1545
375.011	0.1529
375.342	0.1506
375.673	0.149
376.003	0.1473
376.334	0.1449
376.664	0.1432
376.995	0.1425
377.325	0.1392
377.655	0.1386
377.985	0.1366
378.315	0.1355
378.645	0.1337
378.975	0.1322
379.305	0.1312
379.635	0.1301
379.964	0.1292
380.294	0.1269
380.623	0.1262
380.953	0.1248
381.282	0.1233
381.611	0.1213
381.941	0.1204
382.27	0.1192
382.599	0.1171
382.928	0.1154
383.257	0.1149
383.585	0.1126
383.914	0.1116
384.243	0.1099
384.571	0.1079
384.9	0.1056
385.228	0.1048
385.557	0.1027
385.885	0.1005
386.213	0.0991
386.541	0.0981
386.869	0.0965
387.197	0.0944
387.525	0.0932
387.853	0.0916
388.181	0.0905
388.508	0.088
388.836	0.0868
389.164	0.0856
389.491	0.0846
389.818	0.0825
390.146	0.082
390.473	0.0812
390.8	0.0794
391.127	0.0781
391.454	0.0768
391.781	0.0764
392.108	0.0745
392.435	0.0737
392.761	0.0725
393.088	0.0719
393.415	0.0706
393.741	0.0702
394.067	0.069
394.394	0.0691
394.72	0.0673
395.046	0.0664
395.372	0.0661
395.698	0.0653
396.024	0.0642
396.35	0.0634
396.676	0.0617
397.001	0.0616
397.327	0.0602
397.653	0.0593
397.978	0.0579
398.303	0.0576
398.629	0.0556
398.954	0.055
399.279	0.0546
399.604	0.0543
399.929	0.0538
400.254	0.0528
400.579	0.0526
400.904	0.0518
401.229	0.0505
401.553	0.0493
401.878	0.0495
402.202	0.0487
402.527	0.0485
402.851	0.0479
403.175	0.0467
403.5	0.047
403.824	0.0465
404.148	0.046
404.472	0.0456
404.796	0.0444
405.119	0.0451
405.443	0.0443
405.767	0.0436
406.09	0.0442
406.414	0.0436
406.737	0.0434
407.061	0.0429
407.384	0.0427
407.707	0.0429
408.03	0.0416
408.353	0.043
408.676	0.0418
408.999	0.0419
409.322	0.0413
409.645	0.0414
409.968	0.0419
410.29	0.0412
410.613	0.0414
410.935	0.0416
411.258	0.0407
411.58	0.0404
411.902	0.0403
412.224	0.0405
412.546	0.0404
412.868	0.0398
413.19	0.0407
413.512	0.0403
413.834	0.0395
414.156	0.0395
414.477	0.04
414.799	0.0402
415.121	0.0409
415.442	0.0398
415.763	0.04
416.085	0.0397
416.406	0.0401
416.727	0.0399
417.048	0.0397
417.369	0.0395
417.69	0.0393
418.011	0.0392
418.331	0.0397
418.652	0.04
418.973	0.0398
419.293	0.0401
419.614	0.0396
419.934	0.0404
420.254	0.0404
420.574	0.0398
420.895	0.0396
421.215	0.0395
421.535	0.0395
421.855	0.0389
422.174	0.0391
422.494	0.039
422.814	0.0396
423.134	0.0395
423.453	0.0397
423.773	0.04
424.092	0.0402
424.411	0.0394
424.731	0.0401
425.05	0.0394
425.369	0.0396
425.688	0.0399
426.007	0.0396
426.326	0.0402
426.644	0.0398
426.963	0.0406
427.282	0.0395
427.6	0.0399
427.919	0.0391
428.237	0.0399
428.556	0.0398
428.874	0.04
429.192	0.0406
429.51	0.0406
429.828	0.0403
430.146	0.0401
430.464	0.0393
430.782	0.04
431.1	0.0402
431.418	0.0394
431.735	0.0401
432.053	0.0409
432.37	0.0405
432.688	0.0404
433.005	0.0402
433.322	0.04
433.639	0.0406
433.957	0.0412
434.274	0.0402
434.591	0.0404
434.907	0.0403
435.224	0.0405
435.541	0.0399
435.858	0.0412
436.174	0.0412
436.491	0.0403
436.807	0.0389
437.124	0.0399
437.44	0.0404
437.756	0.0397
438.072	0.0409
438.388	0.0404
438.704	0.0398
439.02	0.0402
439.336	0.0399
439.652	0.0396
439.968	0.0397
440.283	0.0392
440.599	0.0394
440.914	0.0403
441.23	0.0402
441.545	0.0392
441.86	0.0392
442.175	0.0395
442.491	0.0394
442.806	0.0397
443.121	0.0391
443.435	0.0389
443.75	0.0389
444.065	0.039
444.38	0.0386
444.694	0.0387
445.009	0.0392
445.323	0.0389
445.638	0.0384
445.952	0.0384
446.266	0.0395
446.58	0.0384
446.894	0.0387
447.208	0.0386
447.522	0.0379
447.836	0.0379
448.15	0.037
448.464	0.0382
448.777	0.0383
449.091	0.037
449.404	0.0372
449.718	0.0371
450.031	0.0375
450.345	0.0367
450.658	0.0376
450.971	0.0364
451.284	0.0366
451.597	0.0365
451.91	0.0364
452.223	0.0367
452.535	0.0356
452.848	0.0361
453.161	0.0351
453.473	0.0362
453.786	0.0354
454.098	0.0351
454.411	0.036
454.723	0.0348
455.035	0.0347
455.347	0.0342
455.659	0.035
455.971	0.0355
456.283	0.0344
456.595	0.0347
456.907	0.0348
457.218	0.034
457.53	0.0322
457.841	0.0335
458.153	0.0342
458.464	0.0337
458.776	0.0336
459.087	0.0335
459.398	0.0336
459.709	0.0329
460.02	0.0336
460.331	0.0318
460.642	0.0332
460.953	0.033
461.263	0.0313
461.574	0.0319
461.885	0.0313
462.195	0.0314
462.506	0.0315
462.816	0.0308
463.126	0.0316
463.437	0.0313
463.747	0.0305
464.057	0.0305
464.367	0.0303
464.677	0.03
464.987	0.0292
465.296	0.0295
465.606	0.0289
465.916	0.0289
466.225	0.029
466.535	0.0289
466.844	0.0288
467.154	0.0286
467.463	0.0277
467.772	0.028
468.081	0.0283
468.39	0.0282
468.699	0.0281
469.008	0.0267
469.317	0.0267
469.626	0.0262
469.935	0.0263
470.243	0.0267
470.552	0.0258
470.86	0.0263
471.169	0.0258
471.477	0.0259
471.785	0.0259
472.093	0.0255
472.402	0.0254
472.71	0.0254
473.018	0.0242
473.326	0.0238
473.633	0.0247
473.941	0.0242
474.249	0.0238
474.556	0.0244
474.864	0.0237
475.171	0.0239
475.479	0.0232
475.786	0.0226
476.094	0.0227
476.401	0.0216
476.708	0.0223
477.015	0.0228
477.322	0.0218
477.629	0.022
477.936	0.022
478.242	0.0211
478.549	0.0212
478.856	0.0216
479.162	0.0205
479.469	0.0209
479.775	0.0215
480.081	0.0202
480.388	0.0199
480.694	0.02
481	0.0192
481.306	0.02
481.612	0.0193
481.918	0.0194
482.224	0.0186
482.53	0.0189
482.835	0.0181
483.141	0.018
483.446	0.0184
483.752	0.0166
484.057	0.0168
484.363	0.0169
484.668	0.017
484.973	0.0161
485.278	0.016
485.583	0.0165
485.888	0.0158
486.193	0.015
486.498	0.0154
486.803	0.0156
487.107	0.0152
487.412	0.015
487.717	0.0149
488.021	0.0145
488.325	0.0159
488.63	0.0147
488.934	0.0148
489.238	0.0143
489.542	0.0132
489.846	0.0144
490.15	0.0142
490.454	0.0136
490.758	0.0133
491.062	0.0125
491.366	0.0125
491.669	0.0124
491.973	0.0128
492.276	0.0129
492.58	0.0121
492.883	0.0116
493.186	0.0124
493.489	0.0111
493.792	0.0109
494.096	0.0113
494.399	0.0106
494.701	0.012
495.004	0.0101
495.307	0.0113
495.61	0.01
495.912	0.0103
496.215	0.0093
496.517	0.0086
496.82	0.0094
497.122	0.0093
497.424	0.0098
497.727	0.0097
498.029	0.0078
498.331	0.0093
498.633	0.0089
498.935	0.0092
499.237	0.0079
499.538	0.008
499.84	0.0081
500.142	0.0079
500.443	0.0072
500.745	0.0065
501.046	0.0065
501.348	0.0065
501.649	0.0063
501.95	0.0058
502.251	0.0067
502.552	0.0065
502.853	0.0062
503.154	0.0058
503.455	0.0071
503.756	0.006
504.057	0.0071
504.357	0.0056
504.658	0.0066
504.958	0.0061
505.259	0.006
505.559	0.006
505.859	0.005
506.16	0.0046
506.46	0.005
506.76	0.0057
507.06	0.0051
507.36	0.0047
507.66	0.0043
507.96	0.005
508.259	0.005
508.559	0.0047
508.859	0.0043
509.158	0.0041
509.457	0.004
509.757	0.0046
510.056	0.0048
510.355	0.0039
510.655	0.0031
510.954	0.0039
511.253	0.0036
511.552	0.0037
511.851	0.003
512.149	0.0026
512.448	0.0035
512.747	0.0033
513.045	0.0025
513.344	0.0028
513.642	0.0012
513.941	0.0026
514.239	0.0022
514.537	0.0016
514.836	0.0022
515.134	0.0014
515.432	0.0032
515.73	0.0023
516.028	0.0019
516.326	0.0024
516.623	0.0021
516.921	0.0003
517.219	0.0017
517.516	0.0018
517.814	0.0015
518.111	0.0016
518.409	-0.0004
518.706	0.002
519.003	0.0012
519.3	0.0015
519.597	0.001
519.894	0.0016
520.191	0.0014
520.488	0.0019
520.785	0.0009
521.082	0.0011
521.378	0.0004
521.675	0.0011
521.971	0.0001
522.268	0.0005
522.564	0.0002
522.861	0.0017
523.157	0.0021
523.453	0.0023
523.749	0.0006
524.045	0.0011
524.341	0.0013
524.637	0.0002
524.933	-0.0003
525.229	0.0007
525.524	-0.0004
525.82	-0.0005
526.115	-0.0005
526.411	0.0004
526.706	-0.0001
527.002	0.0015
527.297	-0.0007
527.592	0.0002
527.887	0.0014
528.182	0.0007
528.477	0.0006
528.772	0.0005
529.067	-0.0006
529.362	-0
529.657	0.0005
529.951	0.0001
530.246	-0.0011
530.54	0.0005
530.835	-0.0008
531.129	0.0003
531.423	-0.0005
531.718	-0.001
532.012	-0.0003
532.306	-0.0009
532.6	-0.001
532.894	-0.0002
533.188	0.0003
533.482	-0.001
533.775	-0.0007
534.069	-0.0002
534.363	-0.0015
534.656	-0.0019
534.95	0.0001
535.243	0.0002
535.536	0.0003
535.83	-0.0012
536.123	-0.0007
536.416	-0.0003
536.709	-0.0005
537.002	-0.0014
537.295	-0.0013
537.588	-0.0009
537.881	-0.0011
538.173	-0.0011
538.466	-0.0009
538.759	-0.001
539.051	-0.0007
539.344	-0.0012
539.636	-0.0009
539.928	0.0003
540.22	-0.0004
540.513	-0.0012
540.805	0
541.097	-0.0017
541.389	-0.0009
541.681	-0.0001
541.972	-0.0001
542.264	0.0001
542.556	-0.0005
542.847	0.0013
543.139	0.0003
543.431	-0.0001
543.722	0.0001
544.013	0.0008
544.305	-0.0006
544.596	-0.001
544.887	-0.0001
545.178	0.0002
545.469	-0.001
545.76	-0.0004
546.051	0.0007
546.342	0.0003
546.632	-0.0009
546.923	-0.0016
547.214	-0.0016
547.504	-0.0015
547.795	-0.0013
548.085	-0.0017
548.375	-0.0016
548.666	-0.0018
548.956	-0.0013
549.246	-0.0002
549.536	-0.0008
549.826	-0.0005
550.116	-0.0006
550.406	-0.0013
550.695	-0.0018
550.985	-0.0012
551.275	-0.0006
551.564	-0.0021
551.854	0.0004
552.143	-0.0018
552.433	-0.0015
552.722	-0.0021
553.011	-0.0007
553.3	0.0002
553.589	-0.0003
553.879	-0.0004
554.167	-0.0003
554.456	0.0008
554.745	0.0003
555.034	-0.0016
555.323	0.0005
555.611	-0.0004
555.9	-0.0008
556.188	-0.0011
556.477	-0.0006
556.765	-0.0018
557.053	-0.0019
557.342	-0.0013
557.63	-0.001
557.918	-0.0006
558.206	0.0006
558.494	0.0004
558.782	-0.0011
559.069	0.0011
559.357	0.0008
559.645	-0
559.932	-0.0003
560.22	-0.0004
560.507	-0.0013
560.795	-0.0008
561.082	-0.0022
561.37	-0.0003
561.657	-0.0013
561.944	-0.0004
562.231	-0.0003
562.518	-0.0004
562.805	-0.0001
563.092	0
563.379	-0.0001
563.665	-0.0003
563.952	-0.0001
564.239	-0.0008
564.525	-0.0002
564.811	0.001
565.098	-0.0003
565.384	-0.0005
565.67	0.0003
565.957	0.0021
566.243	0.001
566.529	-0.0002
566.815	-0.0001
567.101	0.0007
567.387	0.0004
567.672	0.0005
567.958	0.001
568.244	0.0013
568.529	0.0004
568.815	-0.0008
569.1	-0.0016
569.386	-0.0008
569.671	0.0006
569.956	-0.0001
570.242	-0.0007
570.527	-0.0012
570.812	-0.0001
571.097	-0.0002
571.382	-0.0011
571.666	-0.0002
571.951	-0.0009
572.236	-0.0008
572.521	0
572.805	-0.0004
573.09	-0.0008
573.374	-0.0012
573.659	-0.001
573.943	-0.0008
574.227	-0.0011
574.511	-0.0011
574.795	-0.0009
575.079	-0.0004
575.363	-0.001
575.647	-0.0008
575.931	-0.0001
576.215	-0.0011
576.499	-0.0007
576.782	-0.0015
577.066	-0.0008
577.349	-0.0001
577.633	-0.0008
577.916	-0.0012
578.2	-0.001
578.483	-0.0008
578.766	-0.0003
579.049	-0.0004
579.332	0.0015
579.615	0.0003
579.898	-0.0011
580.181	-0.0003
580.464	0.0015
580.746	-0
581.029	-0.0003
581.312	-0.0016
581.594	-0.0021
581.877	-0.0016
582.159	-0.0009
582.441	-0.0015
582.724	-0.0009
583.006	0.0003
583.288	-0.0005
583.57	0.0009
583.852	0.0001
584.134	-0.0003
584.416	-0.0001
584.697	0.0003
584.979	-0.0015
585.261	-0.0022
585.542	-0.0013
585.824	-0.0012
586.105	-0.0016
586.387	-0.0004
586.668	-0.0003
586.949	-0.0004
587.231	0.0003
587.512	0.0002
587.793	0.0001
588.074	-0.0012
588.355	0.0004
588.636	-0.0007
588.916	-0.0011
589.197	-0.0001
589.478	-0.0004
589.758	-0.0008
590.039	-0.0005
590.319	0.0003
590.6	0.0008
590.88	0.0007
591.16	0.0004
591.441	0.0011
591.721	-0.0003
592.001	-0.0004
592.281	-0.0004
592.561	0.0006
592.841	-0.0017
593.12	-0.0026
593.4	-0.0024
593.68	-0.0021
593.959	-0.0017
594.239	-0.001
594.518	0
594.798	0.0003
595.077	-0.0021
595.356	-0.0006
595.636	-0.0013
595.915	0.0004
596.194	0.0002
596.473	-0.0001
596.752	0.0009
597.031	0.0006
597.31	-0.0001
597.588	-0.0006
597.867	-0.0007
598.146	-0.0014
598.424	0.0001
598.703	-0.0004
598.981	-0.0021
599.259	-0.0019
599.538	-0.0013
599.816	-0.0001
600.094	-0.0012
600.372	-0.002
600.65	-0.0013
600.928	-0.0008
601.206	-0.0006
601.484	-0.0002
601.762	-0.0002
602.04	0.0002
602.317	-0.001
602.595	0.0002
602.872	-0.0005
603.15	0.0006
603.427	-0.001
603.704	-0.001
603.982	-0.0001
604.259	-0.0004
604.536	0
604.813	-0.0004
605.09	-0.0003
605.367	-0.0005
605.644	-0.0011
605.921	-0.0001
606.197	-0.001
606.474	-0.0003
606.751	-0.0003
607.027	-0.001
607.304	-0.001
607.58	-0.0011
607.856	-0.0013
608.133	-0.002
608.409	-0.0002
608.685	-0.001
608.961	-0.001
609.237	-0.0004
609.513	-0.0007
609.789	-0.0004
610.065	-0.0005
610.341	-0.0012
610.616	0.0002
610.892	0.0015
611.167	0.0003
611.443	0.0007
611.718	0.0001
611.994	-0.0003
612.269	0.0007
612.544	-0.0004
612.819	-0.0003
613.095	-0.0008
613.37	0.0003
613.645	-0.0012
613.919	-0.0006
614.194	-0.0005
614.469	0.0008
614.744	-0.0006
615.019	-0.001
615.293	-0.0007
615.568	-0.0006
615.842	-0.0005
616.116	0.0005
616.391	0.0014
616.665	-0.0004
616.939	0.0002
617.213	0.0009
617.488	0.0016
617.762	0
618.035	-0.0003
618.309	-0.0003
618.583	0.0007
618.857	0.0013
619.131	0.0013
619.404	0.0013
619.678	0.0012
619.951	-0.0003
620.225	-0.0004
620.498	-0.0005
620.771	0.0005
621.045	-0.001
621.318	-0.0007
621.591	-0.0011
621.864	-0.0022
622.137	-0.0016
622.41	-0.0017
622.683	-0.0006
622.956	-0.0004
623.228	0.0001
623.501	0.0003
623.774	0.0002
624.046	0.0004
624.319	-0.0013
624.591	-0.0018
624.863	-0.0014
625.136	0.0005
625.408	0.0012
625.68	0.0001
625.952	0.0005
626.224	0.0005
626.496	0.001
626.768	0.0002
627.04	-0.0003
627.311	-0.0011
627.583	-0.0008
627.855	0.0009
628.126	0.0013
628.398	0.0022
628.669	0.0027
628.941	0.0025
629.212	0.0021
629.483	0.0016
629.755	0.0009
630.026	0.0013
630.297	0.0019
630.568	0.0008
630.839	0.0009
631.11	0.0021
631.38	0.002
631.651	0.0017
631.922	0.0017
632.192	0.0001
632.463	0.0008
632.733	0.0002
633.004	0.0004
633.274	0.0017
633.545	0.0016
633.815	0.0014
634.085	0.0002
634.355	-0.0018
634.625	-0.0013
634.895	0.0002
635.165	0.0001
635.435	-0.0003
635.705	-0.0004
635.974	-0.0008
636.244	0.0004
636.514	0.0015
636.783	-0.0008
637.053	0.0001
637.322	0.0011
637.591	0.0014
637.861	-0.0006
638.13	0.0001
638.399	-0.0003
638.668	-0.0004
638.937	-0.0007
639.206	-0.0016
639.475	-0.0002
639.744	-0.0017
640.013	-0.0007
640.281	0.0002
640.55	0
640.819	0.0001
641.087	0.0009
641.356	0.0002
641.624	0.0028
641.892	0.0032
642.161	0.003
642.429	0.0014
642.697	0.0008
642.965	0.0018
643.233	-0.0011
643.501	-0.0002
643.769	0.0006
644.037	0.0019
644.305	0.0001
644.572	0.0005
644.84	0.0006
645.108	0.0002
645.375	0.0001
645.643	0.0003
645.91	0.0022
646.177	0.0029
646.445	0.0033
646.712	0.0048
646.979	0.0043
647.246	0.0046
647.513	0.0048
647.78	0.0033
648.047	0.0019
648.314	0.0001
648.58	0.0006
648.847	0.0015
649.114	0.0022
649.38	0.0018
649.647	0.0017
649.913	0.0018
650.18	0.0018
650.446	0.0025
650.712	0.0016
650.978	0.0006
651.245	-0.0002
651.511	0.0004
651.777	0.0008
652.043	0.0007
652.309	0.0019
652.574	0.0028
652.84	0.0025
653.106	0.0023
653.371	0.003
653.637	0.0024
653.903	0.0033
654.168	0.0043
654.433	0.005
654.699	0.0041
654.964	0.0051
655.229	0.0043
655.494	0.0014
655.759	-0.0027
656.024	-0.0002
656.289	-0
656.554	0.0009
656.819	0.0015
657.084	0.0022
657.349	0.0015
657.613	0.0024
657.878	0.0015
658.142	0.0012
658.407	0.0018
658.671	0.0025
658.936	0.0026
659.2	0.0023
659.464	0.0029
659.728	0.0029
659.992	0.0023
660.256	0.0022
660.52	0.0024
660.784	0.0012
661.048	0.0012
661.312	0.001
661.575	0.0011
661.839	0.0011
662.103	0.0005
662.366	0.0008
662.63	0.0009
662.893	0.0005
663.156	0.0003
663.42	0.0002
663.683	-0.0015
663.946	-0.0016
664.209	-0.0007
664.472	-0.0023
664.735	-0.0007
664.998	0.0004
665.261	-0.0002
665.524	-0.0006
665.786	-0.0001
666.049	-0.0003
666.312	0.0008
666.574	-0.0002
666.837	0.0002
667.099	0.0018
667.361	0.001
667.624	0.0005
667.886	-0.0004
668.148	0.0003
668.41	0.0011
668.672	0
668.934	0.0006
669.196	0.0007
669.458	0.0022
669.72	0.0024
669.982	0.0021
670.243	0.0023
670.505	0.0011
670.766	0.0018
671.028	0.0021
671.289	-0.0004
671.551	0.0002
671.812	-0.0017
672.073	-0.0001
672.334	0.0003
672.596	-0.0003
672.857	-0.0006
673.118	-0.0002
673.379	-0.0013
673.639	-0.0009
673.9	-0.0008
674.161	-0
674.422	-0.0014
674.682	-0.0013
674.943	-0
675.203	-0.0002
675.464	0
675.724	-0.0021
675.985	-0.0018
676.245	-0.0008
676.505	-0.0019
676.765	-0.0016
677.025	-0.0008
677.285	-0.0003
677.545	0.0015
677.805	0.0004
678.065	0.0003
678.325	0.0015
678.585	0.0009
678.844	-0.0006
679.104	-0.0009
679.363	-0.0013
679.623	-0.0017
679.882	-0.0013
680.142	-0
680.401	0
680.66	0.001
680.919	0.0026
681.178	0.0027
681.437	0.0019
681.696	-0.0002
681.955	0.0012
682.214	0.0021
682.473	0.0011
682.732	-0.0003
682.99	-0.0001
683.249	0.0009
683.508	-0.0002
683.766	-0.0006
684.024	-0.001
684.283	-0.0003
684.541	-0.0001
684.799	0.0008
685.058	0.0014
685.316	-0.0005
685.574	-0.0003
685.832	-0.0008
686.09	-0.0006
686.348	-0.0021
686.606	-0.0012
686.863	-0.0006
687.121	-0.0009
687.379	-0.0001
687.636	-0.0014
687.894	0.0011
688.151	0.0012
688.409	0.0002
688.666	-0.001
688.923	-0.0019
689.181	-0.0017
689.438	-0.001
689.695	-0.0022
689.952	-0.0025
690.209	-0.0013
690.466	-0.0024
690.723	-0.0007
690.979	-0.0001
691.236	-0.0015
691.493	-0.0009
691.75	0.0006
692.006	-0.0007
692.263	0.0005
692.519	0.0002
692.775	0.0001
693.032	0.0001
693.288	-0.0002
693.544	-0.0002
693.8	-0.0003
694.056	-0.0005
694.313	-0.0009
694.568	0.0002
694.824	-0.0004
695.08	-0.0007
695.336	-0.002
695.592	-0.0031
695.847	-0.0007
696.103	-0.001
696.359	-0.0011
696.614	-0.0017
696.869	-0.0023
697.125	-0.0038
697.38	-0.0024
697.635	-0.0006
697.891	-0.0006
698.146	0.0002
698.401	0
698.656	-0.0008
698.911	0.0002
699.166	0.0006
699.42	0.0008
699.675	0.0007
699.93	-0.0001
700.185	-0.0001
700.439	0.0004
700.694	0.0005
700.948	-0.0001
701.203	-0.0007
701.457	-0.0003
701.711	-0.0007
701.965	-0.0011
702.22	-0.0015
702.474	-0.0012
702.728	-0.0009
702.982	-0.0016
703.236	-0.0006
703.49	-0.0004
703.743	-0.0003
703.997	-0.0004
704.251	-0.0007
704.504	-0.0012
704.758	-0.0015
705.012	-0.0002
705.265	-0.0002
705.518	0.0011
705.772	0.0006
706.025	0.0006
706.278	-0.001
706.531	-0.0005
706.785	-0.0021
707.038	-0.0025
707.291	-0.001
707.543	-0.0019
707.796	-0.0012
708.049	-0.0021
708.302	-0.0014
708.555	-0.0019
708.807	0.0001
709.06	-0.0018
709.312	-0.0007
709.565	-0.0006
709.817	-0.0021
710.069	-0.0019
710.322	-0.0019
710.574	-0.0025
710.826	-0.0035
711.078	-0.0023
711.33	-0.0012
711.582	-0.0029
711.834	-0.0029
712.086	-0.0022
712.338	-0.0037
712.59	-0.0027
712.841	-0.0048
713.093	-0.0045
713.344	-0.0043
713.596	-0.0034
713.847	-0.0024
714.099	-0.0023
714.35	-0.0029
714.601	-0.0027
714.853	-0.0015
715.104	-0.002
715.355	-0.0015
715.606	-0.0013
715.857	-0.0006
716.108	-0.0012
716.359	-0.001
716.609	-0.0016
716.86	-0.0004
717.111	-0.0002
717.361	-0.0001
717.612	0.0012
717.863	0.0026
718.113	0.0027
718.363	0.0015
718.614	0.0028
718.864	0.0036
719.114	0.0022
719.364	0.0023
719.614	0.0013
719.865	0.0026
720.114	0.0036
720.364	0.0027
720.614	0.004
720.864	0.0029
721.114	0.0026
721.364	0.0024
721.613	0.0029
721.863	0.0023
722.112	0.0018
722.362	0.0013
722.611	0.0007
722.86	0.0002
723.11	0.0012
723.359	0.0002
723.608	0.0003
723.857	-0.0001
724.106	0.0004
724.355	0.0009
724.604	0.0012
724.853	0.0007
725.102	-0.0016
725.351	-0.0002
725.599	-0.0014
725.848	-0.0013
726.097	-0.0005
726.345	-0.001
726.594	-0.002
726.842	-0.0016
727.09	-0.0025
727.339	-0.0037
727.587	-0.0028
727.835	-0.0036
728.083	-0.0023
728.331	-0.0028
728.579	-0.0019
728.827	-0.0011
729.075	-0.0007
729.323	-0.0014
729.571	-0.0011
729.818	-0.0006
730.066	-0.0007
730.314	-0.0008
730.561	0.0004
730.809	0
731.056	-0.0007
731.303	0.0006
731.551	0.0004
731.798	0.0006
732.045	0.0008
732.292	0.002
732.539	0.0016
732.786	0.0024
733.033	0.0017
733.28	0.0015
733.527	0.0019
733.774	0.0001
734.021	-0.002
734.267	-0.002
734.514	-0.0026
734.76	-0.0033
735.007	-0.002
735.253	-0.0026
735.5	-0.0031
735.746	-0.0036
735.992	-0.0022
736.238	-0.002
736.485	-0.0007
736.731	-0.0006
736.977	-0.0011
737.223	-0.0011
737.469	-0.0007
737.715	-0.0002
737.96	-0.0005
738.206	-0.0014
738.452	-0.0014
738.697	-0.0007
738.943	-0.001
739.189	-0.0022
739.434	-0.0014
739.679	-0.0021
739.925	-0.0018
740.17	-0.0028
740.415	-0.0027
740.66	-0.0036
740.906	-0.0038
741.151	-0.0027
741.396	-0.0031
741.641	-0.0037
741.886	-0.0035
742.13	-0.0018
742.375	-0.0016
742.62	-0.0022
742.865	-0.0029
743.109	-0.0004
743.354	0
743.598	0.0009
743.843	0.001
744.087	0.0023
744.331	0.0025
744.576	0.0044
744.82	0.0056
745.064	0.0047
745.308	0.0052
745.552	0.0043
745.796	0.0023
746.04	0.0031
746.284	0.002
746.528	0.0026
746.771	0.0044
747.015	0.0042
747.259	0.0034
747.502	0.0018
747.746	0.0018
747.989	0.0025
748.233	0.0021
748.476	0.0033
748.719	0.004
748.963	0.0055
749.206	0.0047
749.449	0.0031
749.692	0.0031
749.935	0.0033
750.178	0.0026
750.421	0.0013
750.664	0.0016
750.906	0.0028
751.149	0.0025
751.392	0.0024
751.635	0.0007
751.877	0.0012
752.12	0.0002
752.362	0.0002
752.604	0.0002
752.847	0.0027
753.089	0.0024
753.331	0.0029
753.573	0.0022
753.816	0.0009
754.058	0.0011
754.3	-0.0001
754.542	0.0004
754.783	-0.0005
755.025	-0.0002
755.267	0.0006
755.509	0.0007
755.75	0
755.992	-0.0002
756.234	-0.0005
756.475	-0.001
756.716	-0.0024
756.958	-0.0022
757.199	-0.0014
757.44	-0.0013
757.682	-0.0016
757.923	-0.0006
758.164	-0.0002
758.405	-0.0002
758.646	0.0011
758.887	0.0013
759.128	0.0002
759.369	0.0001
759.609	0.001
759.85	0.001
760.091	0.0018
760.331	0.001
760.572	-0.0002
760.812	-0.0013
761.053	-0.0018
761.293	-0.0014
761.533	-0.0014
761.774	0.0008
762.014	0.0008
762.254	-0.0003
762.494	-0.0013
762.734	-0.0011
762.974	-0.003
763.214	-0.0024
763.454	-0.002
763.694	-0.0022
763.933	-0.002
764.173	-0.004
764.413	-0.0052
764.652	-0.0057
764.892	-0.0038
765.131	-0.0041
765.371	-0.0036
765.61	-0.0031
765.849	-0.0035
766.089	-0.0013
766.328	-0.0011
766.567	-0.0012
766.806	-0.0007
767.045	-0.0005
767.284	-0.0017
767.523	-0.0002
767.762	-0.0012
768.001	-0.0014
768.239	-0.0013
768.478	-0.0007
768.717	-0.0004
768.955	-0.0006
769.194	-0.0007
769.432	-0
769.671	0.0015
769.909	0.0021
770.148	0.0018
770.386	0.0016
770.624	0.0028
770.862	0.003
771.1	0.0033
771.338	0.0027
771.576	0.0023
771.814	0.0025
772.052	0.0032
772.29	0.0036
772.528	0.0038
772.765	0.0044
773.003	0.0038
773.24	0.004
773.478	0.0025
773.716	0.0026
773.953	0.0028
774.19	0.003
774.428	0.0043
774.665	0.0045
774.902	0.0048
775.139	0.0046
775.376	0.0032
775.613	0.0037
775.85	0.0025
776.087	0.0017
776.324	0.0019
776.561	0.0015
776.798	0.0011
777.034	0.0011
777.271	0.0019
777.508	0.0022
777.744	0.0024
777.981	0.0034
778.217	0.003
778.454	0.0022
778.69	0.0006
778.926	0.0001
779.162	0.0003
779.399	0.0003
779.635	0.0004
779.871	0.0002
780.107	0.0003
780.343	-0.0013
780.579	-0.0003
780.814	-0.0002
781.05	0.0003
781.286	-0.0006
781.522	0.0001
781.757	0.0004
781.993	0.0004
782.228	0.0003
782.464	0.0012
782.699	-0.0006
782.934	-0.0017
783.17	-0.0003
783.405	-0.0005
783.64	-0.0013
783.875	-0.0016
784.11	-0.0017
784.345	0.0001
784.58	0.0005
784.815	0.0007
785.05	-0.0005
785.285	-0.0021
785.52	-0.0021
785.754	-0.0033
785.989	-0.004
786.223	-0.0051
786.458	-0.005
786.692	-0.0031
786.927	-0.0027
787.161	-0.002
787.396	-0.0026
787.63	-0.0023
787.864	-0.003
788.098	-0.0038
788.332	-0.0033
788.566	-0.0025
788.8	-0.0019
789.034	-0.0008
789.268	-0.001
789.502	-0.0009
789.736	-0.0014
789.969	-0.0015
790.203	-0.0016
790.437	-0.003
790.67	-0.0032
790.904	-0.0027
791.137	-0.0033
791.37	-0.0032
791.604	-0.0054
791.837	-0.0052
792.07	-0.0051
792.303	-0.0048
792.537	-0.0047
792.77	-0.0042
793.003	-0.0043
793.236	-0.0042
793.469	-0.0044
793.701	-0.0037
793.934	-0.0026
794.167	-0.0027
794.4	-0.0024
794.632	-0.0008
794.865	-0.0004
795.097	-0.0003
795.33	-0.0013
795.562	-0.0007
795.795	-0.0005
796.027	-0.0002
796.259	-0.0007
796.491	-0.0003
796.724	-0.0012
796.956	0.0005
797.188	-0.0002
797.42	0.0004
797.652	-0.0007
797.883	0.0009
798.115	0.0018
798.347	0.0025
798.579	0.0041
798.81	0.0042
799.042	0.0042
799.274	0.0027
799.505	0.002
799.737	0.0024
799.968	0.0006
800.199	0.0005
800.431	0.0005
800.662	0.0009
800.893	0.0008
801.124	0.0003
801.355	0.0001
801.586	0.001
801.817	0.0005
802.048	-0.0013
802.279	-0.0018
802.51	-0
802.741	0.0002
802.971	0.0007
803.202	0.0018
803.433	0.0022
803.663	0.0011
803.894	0.0011
804.124	0.0011
804.354	0.0018
804.585	0.0019
804.815	0.0023
805.045	0.0014
805.275	0.0034
805.506	-0.0467
805.736	-0
805.966	-0.0903
806.196	0.0066
