Data from 04 0.5 mM K2Cr2O7 0.3 mM BQDS 1 M H2SO4 5 min_ 29_min_gap_Absorbance_0025.txt Node
Date: Tue Dec 14 14:47:56 EST 2021
User: kwabilab-user
Spectrometer: HDX00518
Trigger mode: 0
Integration Time (sec): 5.000000E-2
Scans to average: 50
Nonlinearity correction enabled: false
Boxcar width: 0
Storing dark spectrum: false
XAxis mode: Wavelengths
Number of Pixels in Spectrum: 2068
>>>>>Begin Spectral Data<<<<<
195.27	0.2651
195.642	0.4731
196.014	0.2207
196.386	0.2665
196.758	0.0898
197.129	0.0448
197.501	0.0637
197.872	0.0837
198.244	0.071
198.615	0.081
198.986	0.0922
199.357	0.0741
199.728	0.0783
200.099	0.0914
200.47	0.0839
200.841	0.0941
201.212	0.0804
201.582	0.0894
201.953	0.0792
202.323	0.0968
202.694	0.085
203.064	0.0652
203.434	0.1025
203.804	0.0911
204.174	0.0989
204.544	0.103
204.914	0.0913
205.284	0.0952
205.653	0.1005
206.023	0.0931
206.393	0.0674
206.762	0.0859
207.131	0.1048
207.501	0.0738
207.87	0.083
208.239	0.1118
208.608	0.1123
208.977	0.0912
209.346	0.1404
209.715	0.1101
210.083	0.0981
210.452	0.1071
210.82	0.1035
211.189	0.0911
211.557	0.0971
211.925	0.1037
212.294	0.1239
212.662	0.1195
213.03	0.1155
213.398	0.1158
213.766	0.1142
214.133	0.0978
214.501	0.1109
214.869	0.1017
215.236	0.117
215.604	0.1132
215.971	0.1177
216.338	0.1396
216.705	0.1021
217.072	0.1155
217.439	0.1265
217.806	0.124
218.173	0.1602
218.54	0.1619
218.907	0.15
219.273	0.1805
219.64	0.1892
220.006	0.196
220.373	0.1933
220.739	0.2337
221.105	0.2421
221.471	0.2627
221.837	0.2737
222.203	0.3097
222.569	0.2996
222.935	0.325
223.3	0.3538
223.666	0.409
224.031	0.4053
224.397	0.4244
224.762	0.4586
225.127	0.5056
225.493	0.4976
225.858	0.5245
226.223	0.5674
226.588	0.5746
226.952	0.5989
227.317	0.6478
227.682	0.6473
228.046	0.6382
228.411	0.6837
228.775	0.7082
229.14	0.7021
229.504	0.7213
229.868	0.7457
230.232	0.7457
230.596	0.7452
230.96	0.7824
231.324	0.7726
231.688	0.7603
232.052	0.789
232.415	0.7875
232.779	0.795
233.142	0.8051
233.505	0.7923
233.869	0.797
234.232	0.8086
234.595	0.7883
234.958	0.8004
235.321	0.7965
235.684	0.7812
236.047	0.7831
236.409	0.7699
236.772	0.7733
237.134	0.7774
237.497	0.7754
237.859	0.7634
238.222	0.7709
238.584	0.767
238.946	0.7541
239.308	0.7445
239.67	0.7465
240.032	0.7406
240.393	0.7336
240.755	0.7337
241.117	0.7367
241.478	0.7214
241.84	0.7141
242.201	0.7132
242.562	0.7013
242.924	0.6987
243.285	0.6912
243.646	0.6915
244.007	0.6908
244.368	0.6814
244.728	0.6863
245.089	0.6762
245.45	0.6699
245.81	0.67
246.171	0.6711
246.531	0.6618
246.891	0.654
247.252	0.6539
247.612	0.6539
247.972	0.6586
248.332	0.6478
248.692	0.6451
249.051	0.6468
249.411	0.6385
249.771	0.642
250.13	0.6357
250.49	0.632
250.849	0.6323
251.208	0.6336
251.568	0.6272
251.927	0.6271
252.286	0.6278
252.645	0.623
253.004	0.6212
253.363	0.6172
253.721	0.6217
254.08	0.6201
254.439	0.613
254.797	0.6116
255.155	0.6101
255.514	0.6105
255.872	0.6131
256.23	0.6094
256.588	0.6091
256.946	0.6056
257.304	0.5988
257.662	0.6004
258.02	0.6007
258.377	0.5953
258.735	0.6007
259.093	0.5963
259.45	0.5931
259.807	0.595
260.165	0.5904
260.522	0.5887
260.879	0.5845
261.236	0.5898
261.593	0.5871
261.95	0.585
262.306	0.5828
262.663	0.5808
263.02	0.5753
263.376	0.5691
263.733	0.5761
264.089	0.5726
264.445	0.57
264.802	0.5697
265.158	0.5654
265.514	0.5692
265.87	0.5609
266.226	0.5585
266.581	0.5595
266.937	0.5584
267.293	0.554
267.648	0.5517
268.004	0.5473
268.359	0.5512
268.714	0.5453
269.07	0.5438
269.425	0.5426
269.78	0.5385
270.135	0.5383
270.49	0.5378
270.844	0.535
271.199	0.5285
271.554	0.5294
271.908	0.5235
272.263	0.5229
272.617	0.5194
272.972	0.5197
273.326	0.5151
273.68	0.5135
274.034	0.5131
274.388	0.5048
274.742	0.5064
275.096	0.5058
275.45	0.4984
275.803	0.5002
276.157	0.4928
276.51	0.4905
276.864	0.4878
277.217	0.483
277.571	0.4814
277.924	0.4759
278.277	0.4747
278.63	0.4713
278.983	0.4681
279.336	0.4661
279.688	0.4586
280.041	0.4543
280.394	0.4527
280.746	0.4495
281.099	0.4459
281.451	0.4386
281.803	0.4374
282.156	0.433
282.508	0.4303
282.86	0.4255
283.212	0.4246
283.564	0.4183
283.916	0.4126
284.267	0.4111
284.619	0.4081
284.971	0.4032
285.322	0.3999
285.673	0.3975
286.025	0.3934
286.376	0.3876
286.727	0.3823
287.078	0.3787
287.429	0.3769
287.78	0.3713
288.131	0.3684
288.482	0.3633
288.833	0.3609
289.183	0.3544
289.534	0.3509
289.884	0.348
290.235	0.3437
290.585	0.3382
290.935	0.336
291.285	0.3316
291.635	0.3272
291.985	0.3234
292.335	0.3191
292.685	0.3169
293.035	0.3114
293.384	0.3087
293.734	0.3032
294.083	0.3
294.433	0.2958
294.782	0.2928
295.131	0.2884
295.48	0.2837
295.829	0.2809
296.179	0.2773
296.527	0.2737
296.876	0.2679
297.225	0.2657
297.574	0.2631
297.922	0.259
298.271	0.2553
298.619	0.2514
298.968	0.2479
299.316	0.2437
299.664	0.2419
300.012	0.2389
300.36	0.2348
300.708	0.2315
301.056	0.23
301.404	0.2248
301.752	0.2226
302.099	0.2206
302.447	0.2185
302.794	0.2144
303.142	0.2118
303.489	0.21
303.836	0.2059
304.183	0.2043
304.531	0.2025
304.878	0.2002
305.224	0.1984
305.571	0.1962
305.918	0.1942
306.265	0.1919
306.611	0.1908
306.958	0.1893
307.304	0.1861
307.651	0.1855
307.997	0.1835
308.343	0.1834
308.689	0.1817
309.035	0.1801
309.381	0.1792
309.727	0.1769
310.073	0.176
310.419	0.175
310.764	0.1754
311.11	0.1746
311.455	0.173
311.801	0.1733
312.146	0.1723
312.491	0.1716
312.837	0.1712
313.182	0.1703
313.527	0.1703
313.872	0.1697
314.216	0.1692
314.561	0.1697
314.906	0.1689
315.251	0.1689
315.595	0.1695
315.94	0.1691
316.284	0.1702
316.628	0.1699
316.972	0.1701
317.317	0.1698
317.661	0.1705
318.005	0.1708
318.348	0.171
318.692	0.1716
319.036	0.1722
319.38	0.1728
319.723	0.1728
320.067	0.174
320.41	0.1744
320.754	0.1754
321.097	0.1757
321.44	0.1765
321.783	0.1773
322.126	0.1794
322.469	0.1791
322.812	0.1814
323.155	0.1824
323.498	0.183
323.84	0.1844
324.183	0.1849
324.525	0.1865
324.868	0.1872
325.21	0.1882
325.552	0.1902
325.894	0.1899
326.236	0.192
326.578	0.1917
326.92	0.1941
327.262	0.1956
327.604	0.1964
327.946	0.1979
328.287	0.1993
328.629	0.2008
328.97	0.2015
329.312	0.2036
329.653	0.204
329.994	0.2055
330.335	0.2076
330.676	0.2094
331.017	0.2102
331.358	0.2119
331.699	0.2134
332.04	0.215
332.38	0.2162
332.721	0.217
333.061	0.2194
333.402	0.22
333.742	0.2218
334.083	0.2226
334.423	0.2238
334.763	0.2252
335.103	0.2267
335.443	0.2277
335.783	0.2298
336.123	0.2291
336.462	0.2319
336.802	0.2312
337.141	0.2324
337.481	0.234
337.82	0.2358
338.16	0.2366
338.499	0.2385
338.838	0.2388
339.177	0.2401
339.516	0.2414
339.855	0.2425
340.194	0.2431
340.533	0.2444
340.872	0.2441
341.21	0.2461
341.549	0.2465
341.887	0.247
342.226	0.248
342.564	0.2481
342.902	0.2487
343.24	0.2494
343.578	0.2503
343.916	0.2494
344.254	0.2503
344.592	0.2506
344.93	0.2501
345.268	0.2505
345.605	0.251
345.943	0.251
346.28	0.2515
346.618	0.2522
346.955	0.2521
347.292	0.2521
347.629	0.2515
347.966	0.2518
348.303	0.2522
348.64	0.2524
348.977	0.2522
349.314	0.2524
349.65	0.2526
349.987	0.2518
350.324	0.2526
350.66	0.2512
350.996	0.2514
351.333	0.2507
351.669	0.2506
352.005	0.249
352.341	0.2482
352.677	0.248
353.013	0.2469
353.349	0.2457
353.685	0.2445
354.02	0.243
354.356	0.2429
354.691	0.2411
355.027	0.2405
355.362	0.2396
355.697	0.2383
356.033	0.2374
356.368	0.2368
356.703	0.2357
357.038	0.235
357.373	0.2331
357.707	0.2329
358.042	0.2316
358.377	0.2306
358.711	0.23
359.046	0.2295
359.38	0.2273
359.715	0.2274
360.049	0.2253
360.383	0.224
360.717	0.2232
361.051	0.2214
361.385	0.2198
361.719	0.219
362.053	0.2169
362.387	0.2146
362.72	0.2142
363.054	0.2114
363.387	0.2095
363.721	0.2081
364.054	0.2065
364.387	0.2036
364.721	0.203
365.054	0.2015
365.387	0.1996
365.72	0.1972
366.053	0.1965
366.385	0.1954
366.718	0.1937
367.051	0.1927
367.383	0.1906
367.716	0.189
368.048	0.1876
368.381	0.1857
368.713	0.1852
369.045	0.183
369.377	0.1816
369.709	0.1804
370.041	0.1794
370.373	0.1778
370.705	0.1757
371.037	0.1747
371.368	0.1729
371.7	0.171
372.031	0.1692
372.363	0.1681
372.694	0.1654
373.025	0.1642
373.356	0.1615
373.688	0.1601
374.019	0.1578
374.35	0.1561
374.68	0.1538
375.011	0.1519
375.342	0.1502
375.673	0.1482
376.003	0.1458
376.334	0.1451
376.664	0.1434
376.995	0.1414
377.325	0.1397
377.655	0.1385
377.985	0.1367
378.315	0.1344
378.645	0.1335
378.975	0.1329
379.305	0.1313
379.635	0.1299
379.964	0.1288
380.294	0.1275
380.623	0.1264
380.953	0.1251
381.282	0.1235
381.611	0.1218
381.941	0.1218
382.27	0.1198
382.599	0.1186
382.928	0.1164
383.257	0.1148
383.585	0.1135
383.914	0.1122
384.243	0.1107
384.571	0.1083
384.9	0.1068
385.228	0.1055
385.557	0.104
385.885	0.1025
386.213	0.1006
386.541	0.0989
386.869	0.0977
387.197	0.096
387.525	0.0943
387.853	0.0929
388.181	0.0916
388.508	0.0902
388.836	0.0893
389.164	0.088
389.491	0.0868
389.818	0.0859
390.146	0.0846
390.473	0.0835
390.8	0.0815
391.127	0.0805
391.454	0.0795
391.781	0.0786
392.108	0.0784
392.435	0.0775
392.761	0.076
393.088	0.0743
393.415	0.0735
393.741	0.0742
394.067	0.0727
394.394	0.0722
394.72	0.0712
395.046	0.07
395.372	0.0687
395.698	0.0679
396.024	0.0667
396.35	0.0667
396.676	0.0652
397.001	0.065
397.327	0.0639
397.653	0.0636
397.978	0.0623
398.303	0.0616
398.629	0.0607
398.954	0.0594
399.279	0.0588
399.604	0.0582
399.929	0.0571
400.254	0.0566
400.579	0.0554
400.904	0.0557
401.229	0.055
401.553	0.0538
401.878	0.054
402.202	0.0528
402.527	0.052
402.851	0.0519
403.175	0.0513
403.5	0.0507
403.824	0.0508
404.148	0.0508
404.472	0.0504
404.796	0.0503
405.119	0.0494
405.443	0.0491
405.767	0.0496
406.09	0.0482
406.414	0.0482
406.737	0.0476
407.061	0.0483
407.384	0.0477
407.707	0.047
408.03	0.0468
408.353	0.0459
408.676	0.0463
408.999	0.0467
409.322	0.0464
409.645	0.0462
409.968	0.0465
410.29	0.0462
410.613	0.0455
410.935	0.0456
411.258	0.0456
411.58	0.0452
411.902	0.0454
412.224	0.0455
412.546	0.0448
412.868	0.0453
413.19	0.0446
413.512	0.0453
413.834	0.0452
414.156	0.0463
414.477	0.0448
414.799	0.0455
415.121	0.0449
415.442	0.0451
415.763	0.0453
416.085	0.0451
416.406	0.0452
416.727	0.0444
417.048	0.045
417.369	0.0443
417.69	0.0453
418.011	0.0449
418.331	0.0453
418.652	0.0453
418.973	0.0443
419.293	0.0439
419.614	0.0451
419.934	0.0445
420.254	0.0455
420.574	0.0447
420.895	0.0445
421.215	0.045
421.535	0.0448
421.855	0.0454
422.174	0.0447
422.494	0.0443
422.814	0.0453
423.134	0.0455
423.453	0.0455
423.773	0.0448
424.092	0.0452
424.411	0.0461
424.731	0.0454
425.05	0.0447
425.369	0.0459
425.688	0.045
426.007	0.0448
426.326	0.0443
426.644	0.0447
426.963	0.0454
427.282	0.0453
427.6	0.0452
427.919	0.0456
428.237	0.0455
428.556	0.0457
428.874	0.0454
429.192	0.0455
429.51	0.0451
429.828	0.0448
430.146	0.045
430.464	0.0459
430.782	0.0448
431.1	0.0448
431.418	0.0454
431.735	0.0455
432.053	0.0454
432.37	0.0456
432.688	0.046
433.005	0.0448
433.322	0.0454
433.639	0.0452
433.957	0.0451
434.274	0.0453
434.591	0.0451
434.907	0.0456
435.224	0.0464
435.541	0.0454
435.858	0.0457
436.174	0.0456
436.491	0.0456
436.807	0.0456
437.124	0.0457
437.44	0.0455
437.756	0.0448
438.072	0.0452
438.388	0.0457
438.704	0.0445
439.02	0.0457
439.336	0.0452
439.652	0.0443
439.968	0.0444
440.283	0.0446
440.599	0.0463
440.914	0.0455
441.23	0.045
441.545	0.0454
441.86	0.0453
442.175	0.0454
442.491	0.0453
442.806	0.0451
443.121	0.0441
443.435	0.0443
443.75	0.0445
444.065	0.0455
444.38	0.044
444.694	0.0443
445.009	0.0444
445.323	0.044
445.638	0.0439
445.952	0.044
446.266	0.0433
446.58	0.0445
446.894	0.0441
447.208	0.0434
447.522	0.0432
447.836	0.043
448.15	0.0435
448.464	0.0422
448.777	0.043
449.091	0.0434
449.404	0.0433
449.718	0.0428
450.031	0.0429
450.345	0.0423
450.658	0.0426
450.971	0.0437
451.284	0.0429
451.597	0.0419
451.91	0.0422
452.223	0.043
452.535	0.0433
452.848	0.0422
453.161	0.0417
453.473	0.0414
453.786	0.0415
454.098	0.0414
454.411	0.0414
454.723	0.0418
455.035	0.0408
455.347	0.0413
455.659	0.0406
455.971	0.0406
456.283	0.0401
456.595	0.0403
456.907	0.0397
457.218	0.0396
457.53	0.0396
457.841	0.039
458.153	0.0399
458.464	0.0395
458.776	0.0385
459.087	0.0385
459.398	0.0381
459.709	0.0383
460.02	0.039
460.331	0.0386
460.642	0.0381
460.953	0.0384
461.263	0.0381
461.574	0.0379
461.885	0.0373
462.195	0.0375
462.506	0.0364
462.816	0.0371
463.126	0.0371
463.437	0.0361
463.747	0.0359
464.057	0.0363
464.367	0.036
464.677	0.0355
464.987	0.036
465.296	0.0354
465.606	0.0358
465.916	0.0357
466.225	0.0348
466.535	0.0348
466.844	0.0345
467.154	0.034
467.463	0.0344
467.772	0.0336
468.081	0.0333
468.39	0.0334
468.699	0.034
469.008	0.0325
469.317	0.0326
469.626	0.0331
469.935	0.0329
470.243	0.0332
470.552	0.0329
470.86	0.032
471.169	0.0332
471.477	0.0319
471.785	0.032
472.093	0.0326
472.402	0.0312
472.71	0.0311
473.018	0.0308
473.326	0.031
473.633	0.0297
473.941	0.0299
474.249	0.0301
474.556	0.03
474.864	0.0294
475.171	0.0294
475.479	0.0294
475.786	0.0295
476.094	0.0287
476.401	0.0287
476.708	0.0289
477.015	0.0282
477.322	0.0275
477.629	0.0271
477.936	0.0267
478.242	0.0266
478.549	0.0266
478.856	0.0267
479.162	0.0259
479.469	0.0272
479.775	0.0263
480.081	0.027
480.388	0.0265
480.694	0.0256
481	0.0266
481.306	0.0252
481.612	0.0255
481.918	0.0254
482.224	0.0245
482.53	0.025
482.835	0.0242
483.141	0.024
483.446	0.0249
483.752	0.0239
484.057	0.0237
484.363	0.0228
484.668	0.0234
484.973	0.0235
485.278	0.0228
485.583	0.0223
485.888	0.0223
486.193	0.0223
486.498	0.0225
486.803	0.0226
487.107	0.022
487.412	0.0208
487.717	0.0208
488.021	0.0205
488.325	0.0218
488.63	0.0203
488.934	0.0212
489.238	0.0192
489.542	0.0199
489.846	0.0203
490.15	0.0202
490.454	0.0194
490.758	0.0194
491.062	0.0197
491.366	0.0193
491.669	0.0188
491.973	0.0195
492.276	0.0199
492.58	0.0195
492.883	0.0187
493.186	0.018
493.489	0.0174
493.792	0.0182
494.096	0.0175
494.399	0.0165
494.701	0.0169
495.004	0.0161
495.307	0.0166
495.61	0.0165
495.912	0.0173
496.215	0.0156
496.517	0.0158
496.82	0.0158
497.122	0.0173
497.424	0.0157
497.727	0.0162
498.029	0.0145
498.331	0.0158
498.633	0.015
498.935	0.0146
499.237	0.0136
499.538	0.0147
499.84	0.015
500.142	0.0147
500.443	0.0134
500.745	0.0147
501.046	0.0133
501.348	0.0141
501.649	0.014
501.95	0.0144
502.251	0.0134
502.552	0.0128
502.853	0.0114
503.154	0.0131
503.455	0.0119
503.756	0.0122
504.057	0.0119
504.357	0.012
504.658	0.0117
504.958	0.0126
505.259	0.0123
505.559	0.0118
505.859	0.0114
506.16	0.012
506.46	0.0117
506.76	0.0104
507.06	0.0114
507.36	0.0122
507.66	0.012
507.96	0.0106
508.259	0.0116
508.559	0.0111
508.859	0.0114
509.158	0.0107
509.457	0.0096
509.757	0.0105
510.056	0.0102
510.355	0.0108
510.655	0.0102
510.954	0.0093
511.253	0.0102
511.552	0.011
511.851	0.0095
512.149	0.0088
512.448	0.0085
512.747	0.0091
513.045	0.0094
513.344	0.0077
513.642	0.0093
513.941	0.0093
514.239	0.0073
514.537	0.0089
514.836	0.0095
515.134	0.0096
515.432	0.0093
515.73	0.0086
516.028	0.0097
516.326	0.0082
516.623	0.0075
516.921	0.0082
517.219	0.0088
517.516	0.0085
517.814	0.0084
518.111	0.0081
518.409	0.0077
518.706	0.0069
519.003	0.0083
519.3	0.0078
519.597	0.0072
519.894	0.0076
520.191	0.0072
520.488	0.0078
520.785	0.0078
521.082	0.0082
521.378	0.0069
521.675	0.0078
521.971	0.0079
522.268	0.0077
522.564	0.0073
522.861	0.0068
523.157	0.0072
523.453	0.0073
523.749	0.0063
524.045	0.0066
524.341	0.0079
524.637	0.0059
524.933	0.0064
525.229	0.0065
525.524	0.0074
525.82	0.0067
526.115	0.0061
526.411	0.0069
526.706	0.0056
527.002	0.0066
527.297	0.0066
527.592	0.006
527.887	0.0066
528.182	0.0069
528.477	0.0066
528.772	0.0064
529.067	0.0061
529.362	0.0058
529.657	0.0072
529.951	0.0053
530.246	0.0061
530.54	0.0062
530.835	0.0066
531.129	0.0063
531.423	0.0066
531.718	0.0056
532.012	0.0051
532.306	0.0048
532.6	0.0059
532.894	0.0044
533.188	0.0054
533.482	0.0058
533.775	0.0056
534.069	0.0053
534.363	0.0055
534.656	0.0046
534.95	0.0048
535.243	0.0056
535.536	0.0055
535.83	0.0045
536.123	0.0049
536.416	0.0044
536.709	0.0057
537.002	0.0049
537.295	0.0056
537.588	0.0043
537.881	0.0058
538.173	0.0055
538.466	0.0054
538.759	0.0051
539.051	0.0062
539.344	0.0044
539.636	0.0048
539.928	0.0044
540.22	0.0065
540.513	0.0053
540.805	0.0039
541.097	0.0047
541.389	0.0061
541.681	0.0062
541.972	0.0054
542.264	0.0063
542.556	0.0061
542.847	0.0063
543.139	0.0058
543.431	0.0051
543.722	0.0043
544.013	0.0046
544.305	0.0044
544.596	0.0056
544.887	0.0045
545.178	0.0041
545.469	0.0029
545.76	0.0053
546.051	0.0042
546.342	0.005
546.632	0.0046
546.923	0.0051
547.214	0.0041
547.504	0.0053
547.795	0.0051
548.085	0.0049
548.375	0.0058
548.666	0.0056
548.956	0.006
549.246	0.0051
549.536	0.005
549.826	0.0059
550.116	0.0055
550.406	0.0063
550.695	0.0051
550.985	0.0052
551.275	0.0045
551.564	0.006
551.854	0.0054
552.143	0.0052
552.433	0.0046
552.722	0.0054
553.011	0.0063
553.3	0.006
553.589	0.0048
553.879	0.0055
554.167	0.0045
554.456	0.0039
554.745	0.0049
555.034	0.0046
555.323	0.0055
555.611	0.0042
555.9	0.0044
556.188	0.0037
556.477	0.0058
556.765	0.0057
557.053	0.0048
557.342	0.0043
557.63	0.004
557.918	0.0044
558.206	0.005
558.494	0.0044
558.782	0.0067
559.069	0.0054
559.357	0.0074
559.645	0.0057
559.932	0.0061
560.22	0.0045
560.507	0.0052
560.795	0.0064
561.082	0.0062
561.37	0.0063
561.657	0.0072
561.944	0.0061
562.231	0.0051
562.518	0.0062
562.805	0.0056
563.092	0.0055
563.379	0.0055
563.665	0.0059
563.952	0.0045
564.239	0.0051
564.525	0.0051
564.811	0.0064
565.098	0.0069
565.384	0.005
565.67	0.0059
565.957	0.0065
566.243	0.0064
566.529	0.0056
566.815	0.0056
567.101	0.0055
567.387	0.0066
567.672	0.0056
567.958	0.0052
568.244	0.0061
568.529	0.0063
568.815	0.0055
569.1	0.0048
569.386	0.0047
569.671	0.005
569.956	0.0049
570.242	0.0051
570.527	0.0064
570.812	0.0049
571.097	0.0053
571.382	0.005
571.666	0.005
571.951	0.0046
572.236	0.0054
572.521	0.0057
572.805	0.006
573.09	0.0052
573.374	0.0046
573.659	0.0051
573.943	0.0045
574.227	0.0055
574.511	0.0046
574.795	0.0052
575.079	0.0058
575.363	0.006
575.647	0.0051
575.931	0.0053
576.215	0.0057
576.499	0.0063
576.782	0.005
577.066	0.0055
577.349	0.0062
577.633	0.0062
577.916	0.0052
578.2	0.005
578.483	0.0049
578.766	0.0049
579.049	0.0054
579.332	0.0042
579.615	0.0052
579.898	0.0044
580.181	0.0047
580.464	0.0042
580.746	0.0045
581.029	0.0045
581.312	0.0044
581.594	0.0037
581.877	0.0047
582.159	0.0046
582.441	0.0035
582.724	0.005
583.006	0.0043
583.288	0.0053
583.57	0.0047
583.852	0.0053
584.134	0.0052
584.416	0.0054
584.697	0.0053
584.979	0.005
585.261	0.0045
585.542	0.0041
585.824	0.0046
586.105	0.0036
586.387	0.0048
586.668	0.0049
586.949	0.0046
587.231	0.0047
587.512	0.0058
587.793	0.0052
588.074	0.005
588.355	0.0049
588.636	0.0039
588.916	0.0044
589.197	0.0057
589.478	0.0056
589.758	0.006
590.039	0.0051
590.319	0.0055
590.6	0.0048
590.88	0.0047
591.16	0.0052
591.441	0.0062
591.721	0.0057
592.001	0.0067
592.281	0.0053
592.561	0.0043
592.841	0.0041
593.12	0.0036
593.4	0.0042
593.68	0.0043
593.959	0.0051
594.239	0.0041
594.518	0.0049
594.798	0.0042
595.077	0.0047
595.356	0.0051
595.636	0.0044
595.915	0.0052
596.194	0.0057
596.473	0.0062
596.752	0.0053
597.031	0.0053
597.31	0.0064
597.588	0.0059
597.867	0.0044
598.146	0.005
598.424	0.0057
598.703	0.0046
598.981	0.005
599.259	0.0051
599.538	0.0056
599.816	0.0062
600.094	0.0052
600.372	0.0048
600.65	0.0051
600.928	0.0053
601.206	0.005
601.484	0.0055
601.762	0.0059
602.04	0.0056
602.317	0.005
602.595	0.0049
602.872	0.0057
603.15	0.0056
603.427	0.0054
603.704	0.0049
603.982	0.0039
604.259	0.0054
604.536	0.0048
604.813	0.0063
605.09	0.0051
605.367	0.0057
605.644	0.0039
605.921	0.0053
606.197	0.0051
606.474	0.0052
606.751	0.0049
607.027	0.0045
607.304	0.0043
607.58	0.0045
607.856	0.0038
608.133	0.0048
608.409	0.0048
608.685	0.0046
608.961	0.0047
609.237	0.0047
609.513	0.0039
609.789	0.0045
610.065	0.0034
610.341	0.004
610.616	0.0047
610.892	0.0041
611.167	0.0041
611.443	0.0033
611.718	0.0031
611.994	0.0029
612.269	0.0036
612.544	0.0042
612.819	0.0035
613.095	0.0034
613.37	0.0025
613.645	0.0032
613.919	0.0021
614.194	0.0022
614.469	0.0022
614.744	0.0024
615.019	0.002
615.293	0.0025
615.568	0.003
615.842	0.0036
616.116	0.0029
616.391	0.0031
616.665	0.0028
616.939	0.0035
617.213	0.0028
617.488	0.0036
617.762	0.0036
618.035	0.0036
618.309	0.0036
618.583	0.0045
618.857	0.0055
619.131	0.0042
619.404	0.0041
619.678	0.004
619.951	0.0032
620.225	0.0043
620.498	0.0032
620.771	0.0035
621.045	0.0031
621.318	0.0035
621.591	0.004
621.864	0.0024
622.137	0.0029
622.41	0.0032
622.683	0.0023
622.956	0.0034
623.228	0.0042
623.501	0.0039
623.774	0.0034
624.046	0.0029
624.319	0.0028
624.591	0.0029
624.863	0.0045
625.136	0.0047
625.408	0.0047
625.68	0.0047
625.952	0.0038
626.224	0.0047
626.496	0.0033
626.768	0.0041
627.04	0.0037
627.311	0.0037
627.583	0.0027
627.855	0.0026
628.126	0.0033
628.398	0.0025
628.669	0.0037
628.941	0.0019
629.212	0.0036
629.483	0.0037
629.755	0.0036
630.026	0.0041
630.297	0.0048
630.568	0.0048
630.839	0.0047
631.11	0.0045
631.38	0.0043
631.651	0.0044
631.922	0.0041
632.192	0.0028
632.463	0.003
632.733	0.0037
633.004	0.0042
633.274	0.0038
633.545	0.0032
633.815	0.0036
634.085	0.0042
634.355	0.0043
634.625	0.0044
634.895	0.0029
635.165	0.0026
635.435	0.0024
635.705	0.0023
635.974	0.0022
636.244	0.0021
636.514	0.0031
636.783	0.0031
637.053	0.003
637.322	0.0018
637.591	0.0023
637.861	0.0031
638.13	0.0013
638.399	0.0019
638.668	0.0029
638.937	0.0026
639.206	0.0032
639.475	0.003
639.744	0.0013
640.013	-0.0001
640.281	0.0005
640.55	0.0015
640.819	0.0019
641.087	0.0028
641.356	0.0033
641.624	0.003
641.892	0.0018
642.161	0.0036
642.429	0.0031
642.697	0.003
642.965	0.0031
643.233	0.003
643.501	0.002
643.769	0.002
644.037	0.0019
644.305	0.001
644.572	0.0014
644.84	0.0002
645.108	-0.0002
645.375	-0.001
645.643	-0.0002
645.91	-0.0004
646.177	0.0015
646.445	0.0006
646.712	0.0014
646.979	0.0018
647.246	0.0013
647.513	0.0021
647.78	0.0028
648.047	0.0019
648.314	0.0009
648.58	0.0021
648.847	0.0018
649.114	0.0022
649.38	0.0021
649.647	0.0024
649.913	0.0037
650.18	0.0025
650.446	0.0011
650.712	0.0027
650.978	0.0003
651.245	-0.0006
651.511	-0.0009
651.777	-0.0007
652.043	0.0006
652.309	-0.0002
652.574	0.0013
652.84	0.001
653.106	-0.0001
653.371	0.0003
653.637	0.0011
653.903	0.001
654.168	0.0019
654.433	0.0009
654.699	0.0018
654.964	0.0012
655.229	0.0007
655.494	-0.0007
655.759	-0.0005
656.024	0.0008
656.289	-0
656.554	-0.0002
656.819	-0.0005
657.084	0.0009
657.349	0.0004
657.613	0.0009
657.878	0.0016
658.142	0.002
658.407	0.0016
658.671	0.0021
658.936	0.0027
659.2	0.0028
659.464	0.0021
659.728	0.0015
659.992	0.0029
660.256	0.0018
660.52	0.0008
660.784	-0.0002
661.048	0.0006
661.312	-0.0004
661.575	-0.0015
661.839	-0.0012
662.103	-0.0001
662.366	0.0001
662.63	0
662.893	0.0004
663.156	0.0002
663.42	0.0013
663.683	0.0027
663.946	0.0024
664.209	0.0014
664.472	0.0023
664.735	0.0009
664.998	0.002
665.261	0.0021
665.524	0.0027
665.786	0.0017
666.049	0.0007
666.312	0.0003
666.574	0.0004
666.837	0.0004
667.099	0.0004
667.361	0.0009
667.624	0.0011
667.886	0.0005
668.148	0.001
668.41	0.0007
668.672	0.0016
668.934	0.002
669.196	0.0017
669.458	0.0006
669.72	0.0005
669.982	0.0001
670.243	0.0003
670.505	-0.0012
670.766	0
671.028	0.0002
671.289	0.0011
671.551	0.0012
671.812	0.0016
672.073	0.002
672.334	0.0022
672.596	0.0027
672.857	0.002
673.118	0.0004
673.379	0.0018
673.639	0.0024
673.9	0.0027
674.161	0.0016
674.422	0.0004
674.682	0.0001
674.943	-0
675.203	0.0004
675.464	-0.0011
675.724	-0.0008
675.985	0.0003
676.245	0.0009
676.505	0.0016
676.765	0.0016
677.025	0.0023
677.285	0.0023
677.545	0.004
677.805	0.0008
678.065	0.0012
678.325	0.0011
678.585	0.0008
678.844	-0.0003
679.104	0.0001
679.363	-0.0005
679.623	-0.0004
679.882	-0.0006
680.142	0.0016
680.401	0.0008
680.66	0.0013
680.919	0.0013
681.178	0.0008
681.437	0.0012
681.696	0.0003
681.955	0.0002
682.214	0.0003
682.473	-0.0001
682.732	-0.0005
682.99	-0.0004
683.249	-0.0003
683.508	0.0002
683.766	0.0018
684.024	0.0018
684.283	0.002
684.541	0.0019
684.799	0.002
685.058	0.0007
685.316	0.0012
685.574	0.0011
685.832	0.0009
686.09	0.0014
686.348	0.0008
686.606	0.0005
686.863	0.002
687.121	0.0014
687.379	0.0011
687.636	0.0004
687.894	-0
688.151	0.0002
688.409	-0.0006
688.666	-0.0009
688.923	-0.0012
689.181	-0.0015
689.438	-0.0011
689.695	-0.0015
689.952	-0.0011
690.209	0.0003
690.466	0.0009
690.723	0.0004
690.979	-0.0004
691.236	-0.0013
691.493	-0.0004
691.75	0.0001
692.006	0.0016
692.263	0.0027
692.519	0.0023
692.775	0.0021
693.032	0.001
693.288	0.0001
693.544	0.0001
693.8	0.0007
694.056	0.0002
694.313	0.0012
694.568	0.0013
694.824	0.0016
695.08	0.0005
695.336	-0.0006
695.592	-0.0001
695.847	0.0005
696.103	0.0007
696.359	0.0006
696.614	0.0008
696.869	-0.0006
697.125	-0.0015
697.38	-0.0006
697.635	-0.0008
697.891	-0.0007
698.146	-0
698.401	-0.0007
698.656	-0.0002
698.911	0.0005
699.166	-0.0005
699.42	0.0001
699.675	0.0002
699.93	0.0001
700.185	0.0008
700.439	0.0012
700.694	0.0018
700.948	0.0024
701.203	0.0019
701.457	0.0032
701.711	0.004
701.965	0.0038
702.22	0.0035
702.474	0.0039
702.728	0.0035
702.982	0.0032
703.236	0.0027
703.49	0.0037
703.743	0.0039
703.997	0.0036
704.251	0.0033
704.504	0.0024
704.758	0.0023
705.012	0.0024
705.265	0.001
705.518	0.0011
705.772	0.0007
706.025	0.002
706.278	0.0014
706.531	0.0012
706.785	0.0005
707.038	-0.0008
707.291	0.0001
707.543	-0.0006
707.796	-0.0012
708.049	-0.0017
708.302	-0.0018
708.555	-0.0022
708.807	-0.0022
709.06	-0.0005
709.312	-0.0015
709.565	-0.0009
709.817	-0.001
710.069	-0.002
710.322	-0.0018
710.574	-0.0019
710.826	-0.0023
711.078	-0.0026
711.33	-0.0012
711.582	-0.0015
711.834	-0.0011
712.086	-0.0004
712.338	-0.0012
712.59	-0.0023
712.841	-0.0026
713.093	-0.0013
713.344	-0.0003
713.596	-0.0009
713.847	-0.0009
714.099	0
714.35	-0.0002
714.601	-0.0013
714.853	-0.0014
715.104	-0.0009
715.355	-0.0002
715.606	-0.0001
715.857	0.0005
716.108	0.0007
716.359	0.0005
716.609	-0.0005
716.86	-0.0015
717.111	-0.0027
717.361	-0.0022
717.612	-0.0014
717.863	-0.0007
718.113	-0.0005
718.363	-0.0015
718.614	-0.0009
718.864	-0.0024
719.114	-0.0019
719.364	-0.0006
719.614	-0.0012
719.865	-0.001
720.114	-0.0013
720.364	-0.002
720.614	-0.0026
720.864	-0.002
721.114	-0.0008
721.364	-0.0001
721.613	0.0006
721.863	-0.0006
722.112	0.0008
722.362	0.0015
722.611	0.0021
722.86	0.0021
723.11	0.0017
723.359	0.0022
723.608	0.0027
723.857	0.0035
724.106	0.0033
724.355	0.0028
724.604	0.0028
724.853	0.0017
725.102	0.0019
725.351	0.0017
725.599	0.0019
725.848	0.0016
726.097	0.0017
726.345	0.0015
726.594	0.0019
726.842	0.0021
727.09	0.003
727.339	0.0025
727.587	0.0012
727.835	0.0016
728.083	0.0012
728.331	0.0006
728.579	0.0004
728.827	0.0001
729.075	0.0005
729.323	-0.0006
729.571	0.0006
729.818	0.0002
730.066	0.0002
730.314	0.0002
730.561	0.0009
730.809	0.0008
731.056	0.0002
731.303	0.0015
731.551	0.0009
731.798	0.0014
732.045	0.0012
732.292	0.0008
732.539	0.0005
732.786	-0.0002
733.033	-0.0004
733.28	-0.0016
733.527	-0.001
733.774	-0.0016
734.021	-0.0016
734.267	-0.001
734.514	-0.0009
734.76	-0.0007
735.007	-0.0008
735.253	-0.0014
735.5	-0.0003
735.746	-0.0008
735.992	-0.0002
736.238	0.0002
736.485	0.0002
736.731	0.0014
736.977	0.0005
737.223	0.0002
737.469	0.0009
737.715	0.0002
737.96	-0
738.206	0.001
738.452	0.0005
738.697	0.0008
738.943	0.0008
739.189	0.0009
739.434	0.0001
739.679	0.0002
739.925	0.0005
740.17	0.001
740.415	0.0004
740.66	0.0003
740.906	0.0006
741.151	0.0003
741.396	0.0014
741.641	0.0013
741.886	-0.0002
742.13	-0.0001
742.375	0.0002
742.62	0
742.865	0.0008
743.109	-0.0002
743.354	0.0006
743.598	0.0001
743.843	0.0006
744.087	-0.0004
744.331	0.0007
744.576	0.0009
744.82	0.0014
745.064	0.0023
745.308	0.0023
745.552	0.0019
745.796	0.0013
746.04	0.0009
746.284	-0.0008
746.528	-0.0013
746.771	-0.0011
747.015	-0.0013
747.259	-0.0025
747.502	-0.0036
747.746	-0.0044
747.989	-0.0026
748.233	-0.0027
748.476	-0.0028
748.719	-0.002
748.963	-0.0029
749.206	-0.0022
749.449	-0.0025
749.692	-0.0012
749.935	-0.0007
750.178	-0.0012
750.421	-0.0011
750.664	-0.0004
750.906	-0.0007
751.149	-0.0003
751.392	-0.0004
751.635	0.0002
751.877	-0.0015
752.12	-0.0005
752.362	-0.0024
752.604	-0.0036
752.847	-0.0036
753.089	-0.0022
753.331	-0.0042
753.573	-0.0024
753.816	-0.003
754.058	-0.0026
754.3	-0.0029
754.542	-0.0023
754.783	-0.0019
755.025	-0.0006
755.267	-0.0005
755.509	-0.0007
755.75	-0.0014
755.992	-0.0019
756.234	-0.0012
756.475	-0.0006
756.716	-0.0011
756.958	-0.0014
757.199	-0.0018
757.44	-0.0013
757.682	-0.0026
757.923	-0.0016
758.164	-0.0003
758.405	-0.0003
758.646	0
758.887	0.0004
759.128	0.0006
759.369	0.0006
759.609	-0.0005
759.85	-0.0004
760.091	0.0003
760.331	0.0003
760.572	-0.0006
760.812	-0.0016
761.053	-0.0015
761.293	-0.0018
761.533	-0.0026
761.774	-0.0013
762.014	-0.0036
762.254	-0.0028
762.494	-0.0029
762.734	-0.0024
762.974	-0.0019
763.214	-0.0004
763.454	-0.0002
763.694	-0.0007
763.933	-0.0004
764.173	-0.0014
764.413	-0.0017
764.652	-0.0023
764.892	-0.0031
765.131	-0.0024
765.371	-0.0034
765.61	-0.0031
765.849	-0.0043
766.089	-0.004
766.328	-0.003
766.567	-0.0023
766.806	-0.0013
767.045	-0.0001
767.284	0.0003
767.523	0.0006
767.762	0.0002
768.001	-0.0012
768.239	-0.0009
768.478	-0.0003
768.717	-0.0005
768.955	-0.0013
769.194	-0.0015
769.432	-0.0011
769.671	-0.0012
769.909	-0.0002
770.148	-0.0014
770.386	-0.0019
770.624	-0.0011
770.862	-0.0002
771.1	-0.0015
771.338	-0.0007
771.576	-0.0005
771.814	0.0003
772.052	0.0005
772.29	-0.0001
772.528	-0.0003
772.765	-0.0005
773.003	-0.0009
773.24	0
773.478	0.0007
773.716	0.0013
773.953	0.0014
774.19	0.0011
774.428	0.0008
774.665	0.0012
774.902	0.0011
775.139	0.0004
775.376	0.0004
775.613	0.002
775.85	0.0018
776.087	0.0011
776.324	0.0017
776.561	0.0017
776.798	0.0027
777.034	0.0019
777.271	0.0022
777.508	0.003
777.744	0.0013
777.981	0.0016
778.217	0.0021
778.454	0.0022
778.69	0.0032
778.926	0.0036
779.162	0.0031
779.399	0.0046
779.635	0.0034
779.871	0.0036
780.107	0.0025
780.343	0.0022
780.579	0.0023
780.814	0.0022
781.05	0.001
781.286	0.001
781.522	0.0001
781.757	0.0006
781.993	0.0016
782.228	0.0015
782.464	0.0006
782.699	0.0007
782.934	-0.001
783.17	-0.0018
783.405	-0.0031
783.64	-0.0041
783.875	-0.0037
784.11	-0.0037
784.345	-0.003
784.58	-0.0024
784.815	-0.0031
785.05	-0.0031
785.285	-0.003
785.52	-0.0025
785.754	-0.0027
785.989	-0.0024
786.223	-0.0015
786.458	0.0003
786.692	-0.0004
786.927	-0
787.161	-0.0004
787.396	-0.0006
787.63	-0.0003
787.864	-0.0026
788.098	-0.0021
788.332	-0.0027
788.566	-0.0027
788.8	-0.003
789.034	-0.0024
789.268	-0.0033
789.502	-0.0028
789.736	-0.004
789.969	-0.0026
790.203	-0.0036
790.437	-0.003
790.67	-0.0032
790.904	-0.003
791.137	-0.0028
791.37	-0.0036
791.604	-0.0046
791.837	-0.0034
792.07	-0.0038
792.303	-0.004
792.537	-0.0043
792.77	-0.0052
793.003	-0.0052
793.236	-0.0061
793.469	-0.0054
793.701	-0.0037
793.934	-0.0035
794.167	-0.0025
794.4	-0.0034
794.632	-0.003
794.865	-0.003
795.097	-0.004
795.33	-0.0034
795.562	-0.0031
795.795	-0.0029
796.027	-0.0034
796.259	-0.0038
796.491	-0.0025
796.724	-0.0014
796.956	-0.0021
797.188	-0.0012
797.42	-0.0008
797.652	-0.0003
797.883	-0
798.115	-0.0003
798.347	0.0001
798.579	-0.0011
798.81	-0.0018
799.042	-0.0028
799.274	-0.0028
799.505	-0.0033
799.737	-0.0024
799.968	-0.0029
800.199	-0.0031
800.431	-0.0036
800.662	-0.0029
800.893	-0.0031
801.124	-0.0024
801.355	-0.0027
801.586	-0.0021
801.817	-0.0016
802.048	-0.0014
802.279	0.0001
802.51	-0.0008
802.741	0.0011
802.971	-0.0015
803.202	-0.0021
803.433	-0.0022
803.663	-0.0012
803.894	-0.0002
804.124	0.0005
804.354	0.0003
804.585	0.0002
804.815	0.0011
805.045	-0.0006
805.275	0.0011
805.506	-0.0549
805.736	0.0559
805.966	0.3997
806.196	0.2188
