Data from 04 0.5 mM K2Cr2O7 0.3 mM BQDS 1 M H2SO4 5 min_ 29_min_gap_Absorbance_0009.txt Node
Date: Tue Dec 14 13:27:55 EST 2021
User: kwabilab-user
Spectrometer: HDX00518
Trigger mode: 0
Integration Time (sec): 5.000000E-2
Scans to average: 50
Nonlinearity correction enabled: false
Boxcar width: 0
Storing dark spectrum: false
XAxis mode: Wavelengths
Number of Pixels in Spectrum: 2068
>>>>>Begin Spectral Data<<<<<
195.27	0.1363
195.642	0.086
196.014	0.1379
196.386	0.2195
196.758	0.055
197.129	0.0332
197.501	0.0549
197.872	0.0624
198.244	0.0681
198.615	0.0836
198.986	0.0911
199.357	0.0671
199.728	0.0935
200.099	0.0857
200.47	0.0699
200.841	0.0874
201.212	0.0849
201.582	0.0704
201.953	0.0749
202.323	0.0955
202.694	0.0707
203.064	0.0625
203.434	0.0744
203.804	0.0907
204.174	0.0814
204.544	0.1142
204.914	0.073
205.284	0.0807
205.653	0.0878
206.023	0.0664
206.393	0.0945
206.762	0.074
207.131	0.0808
207.501	0.0757
207.87	0.0843
208.239	0.0727
208.608	0.0956
208.977	0.0788
209.346	0.0941
209.715	0.085
210.083	0.0721
210.452	0.0865
210.82	0.0752
211.189	0.0749
211.557	0.0687
211.925	0.083
212.294	0.0921
212.662	0.0861
213.03	0.0961
213.398	0.1042
213.766	0.0894
214.133	0.0913
214.501	0.114
214.869	0.103
215.236	0.0968
215.604	0.0818
215.971	0.1261
216.338	0.1036
216.705	0.1068
217.072	0.1134
217.439	0.1208
217.806	0.1217
218.173	0.1156
218.54	0.1621
218.907	0.1316
219.273	0.1545
219.64	0.1551
220.006	0.2018
220.373	0.1738
220.739	0.1916
221.105	0.2232
221.471	0.2458
221.837	0.2588
222.203	0.2754
222.569	0.2956
222.935	0.3364
223.3	0.3362
223.666	0.3664
224.031	0.3884
224.397	0.4413
224.762	0.4401
225.127	0.4888
225.493	0.5046
225.858	0.5086
226.223	0.5706
226.588	0.5788
226.952	0.5906
227.317	0.6409
227.682	0.6525
228.046	0.6352
228.411	0.6708
228.775	0.6904
229.14	0.6968
229.504	0.7203
229.868	0.7275
230.232	0.7354
230.596	0.7436
230.96	0.7408
231.324	0.7646
231.688	0.7564
232.052	0.7836
232.415	0.7873
232.779	0.7819
233.142	0.798
233.505	0.8003
233.869	0.8043
234.232	0.7923
234.595	0.7747
234.958	0.7916
235.321	0.7875
235.684	0.7718
236.047	0.7709
236.409	0.7759
236.772	0.7795
237.134	0.7732
237.497	0.7669
237.859	0.7587
238.222	0.7499
238.584	0.7598
238.946	0.7479
239.308	0.737
239.67	0.7453
240.032	0.7351
240.393	0.7285
240.755	0.7267
241.117	0.7236
241.478	0.7203
241.84	0.7187
242.201	0.7083
242.562	0.7035
242.924	0.6911
243.285	0.6953
243.646	0.6887
244.007	0.6916
244.368	0.6909
244.728	0.6812
245.089	0.6746
245.45	0.6734
245.81	0.6666
246.171	0.666
246.531	0.6571
246.891	0.6547
247.252	0.6515
247.612	0.6571
247.972	0.648
248.332	0.6519
248.692	0.6485
249.051	0.6439
249.411	0.6378
249.771	0.6355
250.13	0.6337
250.49	0.6355
250.849	0.6363
251.208	0.6272
251.568	0.6332
251.927	0.6292
252.286	0.6281
252.645	0.6286
253.004	0.6229
253.363	0.6193
253.721	0.6207
254.08	0.6157
254.439	0.6069
254.797	0.6133
255.155	0.6126
255.514	0.6103
255.872	0.6167
256.23	0.6097
256.588	0.61
256.946	0.6041
257.304	0.612
257.662	0.6027
258.02	0.5993
258.377	0.6009
258.735	0.5999
259.093	0.5977
259.45	0.5958
259.807	0.599
260.165	0.594
260.522	0.5891
260.879	0.5886
261.236	0.593
261.593	0.5863
261.95	0.5869
262.306	0.5844
262.663	0.5809
263.02	0.5836
263.376	0.5805
263.733	0.5794
264.089	0.5734
264.445	0.5714
264.802	0.5733
265.158	0.5686
265.514	0.5671
265.87	0.5642
266.226	0.5644
266.581	0.5646
266.937	0.5619
267.293	0.5561
267.648	0.5581
268.004	0.5527
268.359	0.5523
268.714	0.5443
269.07	0.5465
269.425	0.5493
269.78	0.5444
270.135	0.541
270.49	0.5452
270.844	0.5362
271.199	0.5331
271.554	0.5267
271.908	0.528
272.263	0.5283
272.617	0.5214
272.972	0.5191
273.326	0.5204
273.68	0.5175
274.034	0.5115
274.388	0.5112
274.742	0.5112
275.096	0.5072
275.45	0.5036
275.803	0.5016
276.157	0.4972
276.51	0.4927
276.864	0.4903
277.217	0.4875
277.571	0.4853
277.924	0.4807
278.277	0.4774
278.63	0.4757
278.983	0.4698
279.336	0.4656
279.688	0.4656
280.041	0.4597
280.394	0.4577
280.746	0.4542
281.099	0.4493
281.451	0.4446
281.803	0.4408
282.156	0.4359
282.508	0.4353
282.86	0.4288
283.212	0.4258
283.564	0.4222
283.916	0.417
284.267	0.4131
284.619	0.4117
284.971	0.4079
285.322	0.4029
285.673	0.399
286.025	0.396
286.376	0.3913
286.727	0.3859
287.078	0.3832
287.429	0.3778
287.78	0.3764
288.131	0.3713
288.482	0.3653
288.833	0.3633
289.183	0.3583
289.534	0.3562
289.884	0.3514
290.235	0.3463
290.585	0.3422
290.935	0.3376
291.285	0.3332
291.635	0.3303
291.985	0.3259
292.335	0.3212
292.685	0.3191
293.035	0.3139
293.384	0.3095
293.734	0.307
294.083	0.303
294.433	0.299
294.782	0.295
295.131	0.2905
295.48	0.2869
295.829	0.2831
296.179	0.279
296.527	0.2755
296.876	0.2697
297.225	0.2681
297.574	0.2634
297.922	0.2608
298.271	0.2569
298.619	0.2537
298.968	0.2505
299.316	0.2456
299.664	0.244
300.012	0.2403
300.36	0.236
300.708	0.2328
301.056	0.2304
301.404	0.2262
301.752	0.2239
302.099	0.221
302.447	0.2193
302.794	0.2161
303.142	0.2128
303.489	0.2106
303.836	0.2079
304.183	0.2053
304.531	0.2038
304.878	0.201
305.224	0.1994
305.571	0.1972
305.918	0.1947
306.265	0.1935
306.611	0.1917
306.958	0.1899
307.304	0.1879
307.651	0.1864
307.997	0.1842
308.343	0.184
308.689	0.1834
309.035	0.1803
309.381	0.1787
309.727	0.1783
310.073	0.1768
310.419	0.1759
310.764	0.1753
311.11	0.1754
311.455	0.1743
311.801	0.174
312.146	0.1729
312.491	0.1724
312.837	0.1721
313.182	0.1723
313.527	0.1712
313.872	0.1719
314.216	0.1701
314.561	0.1702
314.906	0.1704
315.251	0.1713
315.595	0.1708
315.94	0.1706
316.284	0.1709
316.628	0.1713
316.972	0.1715
317.317	0.1712
317.661	0.1718
318.005	0.1717
318.348	0.1716
318.692	0.1728
319.036	0.1734
319.38	0.1744
319.723	0.1745
320.067	0.1749
320.41	0.1752
320.754	0.1768
321.097	0.178
321.44	0.1781
321.783	0.179
322.126	0.1803
322.469	0.1813
322.812	0.1824
323.155	0.1841
323.498	0.1846
323.84	0.1858
324.183	0.1864
324.525	0.1882
324.868	0.1884
325.21	0.1899
325.552	0.1908
325.894	0.1919
326.236	0.1934
326.578	0.1944
326.92	0.1953
327.262	0.197
327.604	0.1985
327.946	0.1996
328.287	0.2011
328.629	0.2032
328.97	0.2031
329.312	0.2048
329.653	0.206
329.994	0.208
330.335	0.2089
330.676	0.2113
331.017	0.2118
331.358	0.2142
331.699	0.2154
332.04	0.2171
332.38	0.2177
332.721	0.2194
333.061	0.22
333.402	0.2227
333.742	0.2243
334.083	0.2249
334.423	0.2264
334.763	0.2283
335.103	0.229
335.443	0.2297
335.783	0.2311
336.123	0.2321
336.462	0.2335
336.802	0.2344
337.141	0.2348
337.481	0.2372
337.82	0.2378
338.16	0.2391
338.499	0.2407
338.838	0.2412
339.177	0.2427
339.516	0.2436
339.855	0.2447
340.194	0.2456
340.533	0.247
340.872	0.2464
341.21	0.2479
341.549	0.2489
341.887	0.2498
342.226	0.2513
342.564	0.2504
342.902	0.2518
343.24	0.2518
343.578	0.2524
343.916	0.2524
344.254	0.2534
344.592	0.2534
344.93	0.2537
345.268	0.2539
345.605	0.2533
345.943	0.2543
346.28	0.254
346.618	0.2544
346.955	0.2544
347.292	0.2544
347.629	0.2548
347.966	0.2546
348.303	0.2555
348.64	0.2555
348.977	0.2546
349.314	0.2541
349.65	0.2553
349.987	0.255
350.324	0.2539
350.66	0.2533
350.996	0.2541
351.333	0.2536
351.669	0.2529
352.005	0.2512
352.341	0.2507
352.677	0.2511
353.013	0.2492
353.349	0.248
353.685	0.2474
354.02	0.246
354.356	0.2457
354.691	0.2434
355.027	0.2433
355.362	0.2424
355.697	0.2415
356.033	0.2406
356.368	0.2393
356.703	0.2381
357.038	0.2382
357.373	0.2363
357.707	0.2356
358.042	0.2345
358.377	0.2337
358.711	0.2331
359.046	0.2326
359.38	0.2301
359.715	0.2294
360.049	0.228
360.383	0.2264
360.717	0.2256
361.051	0.224
361.385	0.2225
361.719	0.2207
362.053	0.2197
362.387	0.217
362.72	0.2161
363.054	0.2149
363.387	0.2118
363.721	0.211
364.054	0.2091
364.387	0.2072
364.721	0.2052
365.054	0.2037
365.387	0.2022
365.72	0.199
366.053	0.1986
366.385	0.1969
366.718	0.196
367.051	0.1938
367.383	0.1936
367.716	0.1904
368.048	0.1895
368.381	0.1882
368.713	0.1866
369.045	0.1855
369.377	0.1841
369.709	0.1826
370.041	0.1814
370.373	0.18
370.705	0.1777
371.037	0.1765
371.368	0.1747
371.7	0.173
372.031	0.172
372.363	0.1696
372.694	0.1678
373.025	0.1664
373.356	0.1636
373.688	0.1621
374.019	0.16
374.35	0.1584
374.68	0.1558
375.011	0.1539
375.342	0.1519
375.673	0.1503
376.003	0.1485
376.334	0.1464
376.664	0.1454
376.995	0.1429
377.325	0.1416
377.655	0.1403
377.985	0.1391
378.315	0.1367
378.645	0.1352
378.975	0.1345
379.305	0.1329
379.635	0.1319
379.964	0.1297
380.294	0.1289
380.623	0.1285
380.953	0.1258
381.282	0.1248
381.611	0.1237
381.941	0.1221
382.27	0.1219
382.599	0.1197
382.928	0.118
383.257	0.1168
383.585	0.1155
383.914	0.1137
384.243	0.112
384.571	0.1104
384.9	0.1079
385.228	0.1076
385.557	0.1048
385.885	0.1033
386.213	0.1019
386.541	0.1004
386.869	0.0983
387.197	0.0975
387.525	0.0953
387.853	0.0945
388.181	0.093
388.508	0.092
388.836	0.0901
389.164	0.0894
389.491	0.0881
389.818	0.0873
390.146	0.0856
390.473	0.0845
390.8	0.0833
391.127	0.0816
391.454	0.0808
391.781	0.08
392.108	0.0781
392.435	0.0781
392.761	0.0776
393.088	0.0763
393.415	0.0752
393.741	0.074
394.067	0.0737
394.394	0.0725
394.72	0.0721
395.046	0.0716
395.372	0.0693
395.698	0.0685
396.024	0.0679
396.35	0.067
396.676	0.0667
397.001	0.0663
397.327	0.0654
397.653	0.0646
397.978	0.063
398.303	0.0623
398.629	0.0617
398.954	0.06
399.279	0.0598
399.604	0.0595
399.929	0.0579
400.254	0.0575
400.579	0.0569
400.904	0.0571
401.229	0.0562
401.553	0.0547
401.878	0.0546
402.202	0.054
402.527	0.0532
402.851	0.0525
403.175	0.0527
403.5	0.0514
403.824	0.052
404.148	0.0513
404.472	0.0508
404.796	0.0503
405.119	0.0505
405.443	0.0505
405.767	0.0497
406.09	0.0491
406.414	0.0494
406.737	0.0486
407.061	0.048
407.384	0.0487
407.707	0.0474
408.03	0.0474
408.353	0.0473
408.676	0.0474
408.999	0.0474
409.322	0.0474
409.645	0.0467
409.968	0.047
410.29	0.0468
410.613	0.0465
410.935	0.0466
411.258	0.0461
411.58	0.0464
411.902	0.0459
412.224	0.046
412.546	0.0459
412.868	0.0458
413.19	0.0453
413.512	0.0463
413.834	0.046
414.156	0.0465
414.477	0.0458
414.799	0.0462
415.121	0.0454
415.442	0.0454
415.763	0.0455
416.085	0.046
416.406	0.046
416.727	0.0444
417.048	0.0458
417.369	0.0448
417.69	0.046
418.011	0.0453
418.331	0.0455
418.652	0.0458
418.973	0.045
419.293	0.0445
419.614	0.0451
419.934	0.0448
420.254	0.0453
420.574	0.0454
420.895	0.0453
421.215	0.0459
421.535	0.0453
421.855	0.0447
422.174	0.0448
422.494	0.0458
422.814	0.0451
423.134	0.0458
423.453	0.046
423.773	0.0456
424.092	0.0454
424.411	0.0463
424.731	0.0458
425.05	0.0454
425.369	0.046
425.688	0.0449
426.007	0.0456
426.326	0.0452
426.644	0.0453
426.963	0.046
427.282	0.0465
427.6	0.0457
427.919	0.0458
428.237	0.0458
428.556	0.0459
428.874	0.0455
429.192	0.0464
429.51	0.0457
429.828	0.0459
430.146	0.0459
430.464	0.0458
430.782	0.0458
431.1	0.0462
431.418	0.0463
431.735	0.0461
432.053	0.046
432.37	0.046
432.688	0.0461
433.005	0.0455
433.322	0.0457
433.639	0.0454
433.957	0.0459
434.274	0.0461
434.591	0.046
434.907	0.0464
435.224	0.047
435.541	0.0459
435.858	0.0462
436.174	0.0464
436.491	0.0465
436.807	0.0464
437.124	0.0464
437.44	0.046
437.756	0.0456
438.072	0.0457
438.388	0.0462
438.704	0.0453
439.02	0.0458
439.336	0.0454
439.652	0.0451
439.968	0.0451
440.283	0.0455
440.599	0.0463
440.914	0.0458
441.23	0.0457
441.545	0.0462
441.86	0.0452
442.175	0.0457
442.491	0.0458
442.806	0.0454
443.121	0.0453
443.435	0.045
443.75	0.0449
444.065	0.0459
444.38	0.0451
444.694	0.0443
445.009	0.0453
445.323	0.0449
445.638	0.0447
445.952	0.0448
446.266	0.0446
446.58	0.0448
446.894	0.0445
447.208	0.0442
447.522	0.0438
447.836	0.0431
448.15	0.0441
448.464	0.0432
448.777	0.0438
449.091	0.0433
449.404	0.0442
449.718	0.0434
450.031	0.0436
450.345	0.0434
450.658	0.0432
450.971	0.0442
451.284	0.0434
451.597	0.0426
451.91	0.0427
452.223	0.0431
452.535	0.043
452.848	0.0424
453.161	0.0427
453.473	0.0418
453.786	0.0419
454.098	0.0422
454.411	0.0421
454.723	0.0419
455.035	0.0412
455.347	0.0412
455.659	0.0409
455.971	0.0412
456.283	0.041
456.595	0.0408
456.907	0.0407
457.218	0.0405
457.53	0.0401
457.841	0.0405
458.153	0.0403
458.464	0.0396
458.776	0.0391
459.087	0.0394
459.398	0.0392
459.709	0.0384
460.02	0.0395
460.331	0.0394
460.642	0.0392
460.953	0.0382
461.263	0.0382
461.574	0.0379
461.885	0.0385
462.195	0.0386
462.506	0.0374
462.816	0.0375
463.126	0.0377
463.437	0.0367
463.747	0.0368
464.057	0.0375
464.367	0.037
464.677	0.0362
464.987	0.0366
465.296	0.0368
465.606	0.0365
465.916	0.0361
466.225	0.0357
466.535	0.0352
466.844	0.0355
467.154	0.0352
467.463	0.0347
467.772	0.0344
468.081	0.0343
468.39	0.0338
468.699	0.034
469.008	0.0333
469.317	0.0335
469.626	0.0334
469.935	0.0333
470.243	0.0329
470.552	0.0331
470.86	0.0323
471.169	0.0333
471.477	0.0328
471.785	0.0326
472.093	0.0323
472.402	0.0317
472.71	0.0318
473.018	0.0313
473.326	0.0308
473.633	0.0299
473.941	0.0304
474.249	0.0304
474.556	0.0303
474.864	0.0304
475.171	0.03
475.479	0.0291
475.786	0.03
476.094	0.0293
476.401	0.0288
476.708	0.0288
477.015	0.0286
477.322	0.0284
477.629	0.0277
477.936	0.0269
478.242	0.028
478.549	0.028
478.856	0.0285
479.162	0.0263
479.469	0.0274
479.775	0.0257
480.081	0.0266
480.388	0.0274
480.694	0.0267
481	0.026
481.306	0.0252
481.612	0.0266
481.918	0.0257
482.224	0.0248
482.53	0.0252
482.835	0.0252
483.141	0.024
483.446	0.0255
483.752	0.0246
484.057	0.0243
484.363	0.0238
484.668	0.0232
484.973	0.0237
485.278	0.0233
485.583	0.023
485.888	0.0227
486.193	0.0229
486.498	0.0236
486.803	0.0221
487.107	0.0218
487.412	0.0214
487.717	0.0208
488.021	0.021
488.325	0.022
488.63	0.021
488.934	0.0214
489.238	0.0195
489.542	0.0205
489.846	0.0201
490.15	0.0203
490.454	0.0202
490.758	0.0199
491.062	0.02
491.366	0.019
491.669	0.0193
491.973	0.0199
492.276	0.0191
492.58	0.0198
492.883	0.0185
493.186	0.0188
493.489	0.0183
493.792	0.019
494.096	0.0171
494.399	0.018
494.701	0.0167
495.004	0.017
495.307	0.0167
495.61	0.0166
495.912	0.0164
496.215	0.0161
496.517	0.0158
496.82	0.016
497.122	0.0162
497.424	0.0163
497.727	0.0156
498.029	0.0154
498.331	0.015
498.633	0.0149
498.935	0.015
499.237	0.0149
499.538	0.0148
499.84	0.0154
500.142	0.0147
500.443	0.0135
500.745	0.0153
501.046	0.0143
501.348	0.0144
501.649	0.0137
501.95	0.0142
502.251	0.0136
502.552	0.0136
502.853	0.0124
503.154	0.0137
503.455	0.012
503.756	0.0126
504.057	0.0119
504.357	0.0117
504.658	0.0132
504.958	0.0121
505.259	0.0124
505.559	0.0118
505.859	0.0115
506.16	0.0126
506.46	0.0114
506.76	0.0108
507.06	0.0114
507.36	0.0114
507.66	0.0114
507.96	0.0106
508.259	0.0112
508.559	0.0102
508.859	0.011
509.158	0.0105
509.457	0.0104
509.757	0.0106
510.056	0.011
510.355	0.0106
510.655	0.0101
510.954	0.0101
511.253	0.0104
511.552	0.0107
511.851	0.0098
512.149	0.0092
512.448	0.0087
512.747	0.0085
513.045	0.0091
513.344	0.0074
513.642	0.0097
513.941	0.0099
514.239	0.0085
514.537	0.0084
514.836	0.0086
515.134	0.0093
515.432	0.0092
515.73	0.0096
516.028	0.0087
516.326	0.0084
516.623	0.0078
516.921	0.008
517.219	0.0091
517.516	0.0086
517.814	0.0084
518.111	0.0084
518.409	0.0079
518.706	0.0072
519.003	0.0076
519.3	0.0077
519.597	0.0075
519.894	0.0072
520.191	0.0078
520.488	0.0085
520.785	0.0075
521.082	0.007
521.378	0.0067
521.675	0.0078
521.971	0.0068
522.268	0.0067
522.564	0.0067
522.861	0.0067
523.157	0.0066
523.453	0.007
523.749	0.0063
524.045	0.0065
524.341	0.0068
524.637	0.0064
524.933	0.0059
525.229	0.0062
525.524	0.0073
525.82	0.0073
526.115	0.0069
526.411	0.0068
526.706	0.006
527.002	0.0071
527.297	0.0056
527.592	0.0062
527.887	0.0064
528.182	0.0069
528.477	0.0061
528.772	0.0071
529.067	0.0065
529.362	0.0056
529.657	0.0061
529.951	0.0057
530.246	0.0058
530.54	0.0052
530.835	0.006
531.129	0.0059
531.423	0.0059
531.718	0.0052
532.012	0.0055
532.306	0.0048
532.6	0.0057
532.894	0.0044
533.188	0.0054
533.482	0.0048
533.775	0.0058
534.069	0.0056
534.363	0.0053
534.656	0.0042
534.95	0.0058
535.243	0.0056
535.536	0.004
535.83	0.0046
536.123	0.0042
536.416	0.0048
536.709	0.0053
537.002	0.0057
537.295	0.0048
537.588	0.0052
537.881	0.0058
538.173	0.0058
538.466	0.0052
538.759	0.0053
539.051	0.0055
539.344	0.0035
539.636	0.005
539.928	0.0049
540.22	0.0056
540.513	0.0051
540.805	0.0041
541.097	0.0042
541.389	0.0048
541.681	0.0057
541.972	0.0061
542.264	0.0046
542.556	0.006
542.847	0.0055
543.139	0.0053
543.431	0.0053
543.722	0.0047
544.013	0.0049
544.305	0.0043
544.596	0.0052
544.887	0.0043
545.178	0.0042
545.469	0.0022
545.76	0.0045
546.051	0.0038
546.342	0.0037
546.632	0.0047
546.923	0.0048
547.214	0.0041
547.504	0.005
547.795	0.0051
548.085	0.006
548.375	0.0059
548.666	0.0055
548.956	0.0049
549.246	0.0045
549.536	0.004
549.826	0.0061
550.116	0.0046
550.406	0.0064
550.695	0.0051
550.985	0.004
551.275	0.0049
551.564	0.0055
551.854	0.0053
552.143	0.0052
552.433	0.004
552.722	0.0055
553.011	0.0065
553.3	0.0048
553.589	0.0037
553.879	0.0043
554.167	0.0044
554.456	0.0039
554.745	0.005
555.034	0.005
555.323	0.0042
555.611	0.0039
555.9	0.0032
556.188	0.0033
556.477	0.0044
556.765	0.0047
557.053	0.0053
557.342	0.0042
557.63	0.0041
557.918	0.0038
558.206	0.0052
558.494	0.005
558.782	0.0051
559.069	0.0049
559.357	0.0062
559.645	0.0058
559.932	0.0066
560.22	0.0048
560.507	0.0049
560.795	0.0057
561.082	0.0063
561.37	0.0061
561.657	0.0058
561.944	0.0054
562.231	0.005
562.518	0.0059
562.805	0.0063
563.092	0.0047
563.379	0.0072
563.665	0.0053
563.952	0.0047
564.239	0.005
564.525	0.0053
564.811	0.0064
565.098	0.0066
565.384	0.0056
565.67	0.0058
565.957	0.0057
566.243	0.0064
566.529	0.0057
566.815	0.0051
567.101	0.0065
567.387	0.0069
567.672	0.0057
567.958	0.0056
568.244	0.0055
568.529	0.0069
568.815	0.0049
569.1	0.0044
569.386	0.0044
569.671	0.0052
569.956	0.0053
570.242	0.0048
570.527	0.0064
570.812	0.0053
571.097	0.006
571.382	0.0048
571.666	0.0057
571.951	0.0049
572.236	0.0046
572.521	0.005
572.805	0.0048
573.09	0.0051
573.374	0.0043
573.659	0.0049
573.943	0.0044
574.227	0.0049
574.511	0.0054
574.795	0.005
575.079	0.0055
575.363	0.0061
575.647	0.0049
575.931	0.0055
576.215	0.0057
576.499	0.0064
576.782	0.0062
577.066	0.0056
577.349	0.006
577.633	0.0066
577.916	0.0052
578.2	0.0053
578.483	0.0044
578.766	0.0044
579.049	0.0051
579.332	0.0047
579.615	0.0055
579.898	0.0051
580.181	0.0046
580.464	0.0044
580.746	0.0049
581.029	0.0052
581.312	0.0047
581.594	0.0042
581.877	0.0046
582.159	0.0043
582.441	0.0034
582.724	0.0044
583.006	0.0051
583.288	0.0052
583.57	0.005
583.852	0.0054
584.134	0.0057
584.416	0.0047
584.697	0.0057
584.979	0.0052
585.261	0.0045
585.542	0.0043
585.824	0.0045
586.105	0.0039
586.387	0.0045
586.668	0.0043
586.949	0.0049
587.231	0.0054
587.512	0.0056
587.793	0.0049
588.074	0.0049
588.355	0.0044
588.636	0.0043
588.916	0.0051
589.197	0.0047
589.478	0.005
589.758	0.0053
590.039	0.0048
590.319	0.0055
590.6	0.0041
590.88	0.0044
591.16	0.005
591.441	0.0055
591.721	0.0058
592.001	0.0061
592.281	0.005
592.561	0.0047
592.841	0.004
593.12	0.0036
593.4	0.0041
593.68	0.0048
593.959	0.005
594.239	0.0043
594.518	0.0043
594.798	0.0043
595.077	0.0047
595.356	0.0052
595.636	0.0052
595.915	0.005
596.194	0.0051
596.473	0.0061
596.752	0.0052
597.031	0.0053
597.31	0.006
597.588	0.0053
597.867	0.0045
598.146	0.0048
598.424	0.0051
598.703	0.0056
598.981	0.0048
599.259	0.0044
599.538	0.0048
599.816	0.0059
600.094	0.0047
600.372	0.0044
600.65	0.0043
600.928	0.005
601.206	0.0053
601.484	0.0045
601.762	0.0052
602.04	0.0056
602.317	0.0055
602.595	0.0046
602.872	0.0054
603.15	0.0055
603.427	0.0058
603.704	0.0053
603.982	0.0039
604.259	0.0057
604.536	0.0047
604.813	0.0048
605.09	0.0045
605.367	0.0053
605.644	0.0042
605.921	0.005
606.197	0.0052
606.474	0.0041
606.751	0.0048
607.027	0.004
607.304	0.0045
607.58	0.0042
607.856	0.0042
608.133	0.0043
608.409	0.0049
608.685	0.0044
608.961	0.0048
609.237	0.0042
609.513	0.0041
609.789	0.0043
610.065	0.0039
610.341	0.0038
610.616	0.0039
610.892	0.0036
611.167	0.0034
611.443	0.003
611.718	0.0023
611.994	0.0025
612.269	0.0033
612.544	0.003
612.819	0.0038
613.095	0.0037
613.37	0.0029
613.645	0.0031
613.919	0.002
614.194	0.0022
614.469	0.0029
614.744	0.0025
615.019	0.0022
615.293	0.0026
615.568	0.0028
615.842	0.0031
616.116	0.0021
616.391	0.003
616.665	0.0031
616.939	0.0033
617.213	0.0034
617.488	0.0035
617.762	0.0033
618.035	0.0031
618.309	0.0042
618.583	0.0043
618.857	0.0046
619.131	0.0049
619.404	0.0038
619.678	0.0041
619.951	0.003
620.225	0.0029
620.498	0.0023
620.771	0.0028
621.045	0.0027
621.318	0.0033
621.591	0.0037
621.864	0.0021
622.137	0.0027
622.41	0.0028
622.683	0.003
622.956	0.0027
623.228	0.0034
623.501	0.0039
623.774	0.003
624.046	0.0036
624.319	0.0032
624.591	0.0026
624.863	0.0035
625.136	0.0039
625.408	0.0041
625.68	0.0041
625.952	0.0036
626.224	0.0047
626.496	0.0031
626.768	0.0036
627.04	0.004
627.311	0.0044
627.583	0.0021
627.855	0.0022
628.126	0.0027
628.398	0.0027
628.669	0.0032
628.941	0.0024
629.212	0.003
629.483	0.0035
629.755	0.0041
630.026	0.0033
630.297	0.0043
630.568	0.0045
630.839	0.0055
631.11	0.0045
631.38	0.0037
631.651	0.0037
631.922	0.0034
632.192	0.0035
632.463	0.0036
632.733	0.0034
633.004	0.0035
633.274	0.0035
633.545	0.0035
633.815	0.0032
634.085	0.0039
634.355	0.0026
634.625	0.0038
634.895	0.0029
635.165	0.0025
635.435	0.0016
635.705	0.002
635.974	0.0025
636.244	0.0021
636.514	0.0026
636.783	0.0021
637.053	0.0024
637.322	0.0017
637.591	0.0013
637.861	0.0015
638.13	0.001
638.399	0.0025
638.668	0.0021
638.937	0.0016
639.206	0.0022
639.475	0.0029
639.744	0.0013
640.013	0.0001
640.281	0.0005
640.55	0.0009
640.819	0.0016
641.087	0.0021
641.356	0.0021
641.624	0.0022
641.892	0.0021
642.161	0.0015
642.429	0.0023
642.697	0.0022
642.965	0.0017
643.233	0.0032
643.501	0.0015
643.769	0.0012
644.037	0.0005
644.305	0.0004
644.572	0.0001
644.84	0.0001
645.108	-0.0014
645.375	-0.0008
645.643	-0.0016
645.91	-0.0016
646.177	-0.0003
646.445	-0.0001
646.712	0.0005
646.979	0.0001
647.246	0.0004
647.513	0.0011
647.78	0.0012
648.047	0.0015
648.314	0.0007
648.58	0.0014
648.847	0.0013
649.114	0.0018
649.38	0.002
649.647	0.0009
649.913	0.0022
650.18	0.0026
650.446	0.0007
650.712	0.0013
650.978	-0.0009
651.245	-0.0007
651.511	-0.0014
651.777	-0.0008
652.043	0.0002
652.309	-0.0016
652.574	0.0004
652.84	0.0003
653.106	-0.0003
653.371	-0.0006
653.637	0.0003
653.903	0.0006
654.168	0.0018
654.433	0.0013
654.699	0.0012
654.964	0.001
655.229	0.0004
655.494	0.0003
655.759	0.0007
656.024	0.0009
656.289	-0
656.554	-0.0009
656.819	-0.002
657.084	0.0006
657.349	0.0001
657.613	0.0005
657.878	0.0011
658.142	0.002
658.407	0.0015
658.671	0.0015
658.936	0.0017
659.2	0.0023
659.464	0.002
659.728	0.0013
659.992	0.002
660.256	0.0011
660.52	-0.0002
660.784	-0
661.048	0.0002
661.312	-0.0004
661.575	-0.0013
661.839	-0.0012
662.103	-0.0011
662.366	-0.0005
662.63	-0.0008
662.893	0.0005
663.156	0.0001
663.42	0.0013
663.683	0.0016
663.946	0.0009
664.209	0.0012
664.472	0.0013
664.735	0.0009
664.998	0.0014
665.261	0.0017
665.524	0.0015
665.786	0.0005
666.049	0.0001
666.312	0.0001
666.574	-0.0003
666.837	0.0001
667.099	-0.0005
667.361	0.0004
667.624	0.0006
667.886	0.0007
668.148	0.0003
668.41	0.0009
668.672	0.0016
668.934	0.001
669.196	0.0021
669.458	0.0006
669.72	0.0002
669.982	-0.0004
670.243	0.0004
670.505	-0.0012
670.766	-0.0003
671.028	-0.0005
671.289	0.0007
671.551	0.0004
671.812	0.0008
672.073	0.0015
672.334	0.0021
672.596	0.0011
672.857	0.0012
673.118	-0.0009
673.379	0.0008
673.639	0.0016
673.9	0.0022
674.161	0.0006
674.422	-0.0007
674.682	-0.0013
674.943	-0.0012
675.203	-0.0015
675.464	-0.0017
675.724	-0.0016
675.985	-0.0005
676.245	0.0005
676.505	0.0008
676.765	0.0011
677.025	0.0019
677.285	0.0024
677.545	0.0026
677.805	0
678.065	0.0006
678.325	0.0001
678.585	-0.0002
678.844	-0.0008
679.104	-0.001
679.363	-0.0001
679.623	0
679.882	-0.001
680.142	0.0015
680.401	0.0008
680.66	0.0008
680.919	0.0001
681.178	0.0007
681.437	0.0009
681.696	-0.0003
681.955	0.0001
682.214	0.0002
682.473	-0.0003
682.732	-0.0008
682.99	-0.0014
683.249	-0.0008
683.508	0.0001
683.766	0.0019
684.024	0.0017
684.283	0.0016
684.541	0.0022
684.799	0.0019
685.058	0.0014
685.316	0.0012
685.574	0.0002
685.832	0.0006
686.09	0.0002
686.348	0.0009
686.606	0.0002
686.863	0.0013
687.121	0.0018
687.379	0.0008
687.636	-0.0008
687.894	-0.0005
688.151	-0.0004
688.409	-0.0013
688.666	-0.0025
688.923	-0.0023
689.181	-0.0027
689.438	-0.0017
689.695	-0.002
689.952	-0.0015
690.209	0.0006
690.466	-0
690.723	-0.0011
690.979	-0.0004
691.236	-0.0015
691.493	-0.0007
691.75	-0.0003
692.006	0.0013
692.263	0.0023
692.519	0.0023
692.775	0.0009
693.032	0.0001
693.288	0.0002
693.544	-0.0002
693.8	0.0001
694.056	0.0001
694.313	0.0006
694.568	0.0011
694.824	0.001
695.08	0.0004
695.336	-0.0006
695.592	-0.0011
695.847	-0.0012
696.103	-0.0005
696.359	-0.0004
696.614	-0.0004
696.869	-0.0007
697.125	-0.0013
697.38	-0.0014
697.635	-0.0011
697.891	-0.0012
698.146	-0.0001
698.401	-0.001
698.656	-0.0001
698.911	-0.0017
699.166	-0.0007
699.42	-0.001
699.675	-0.001
699.93	-0.0002
700.185	-0.0008
700.439	0
700.694	0.0013
700.948	0.0011
701.203	0.0018
701.457	0.0023
701.711	0.0033
701.965	0.0034
702.22	0.0032
702.474	0.0036
702.728	0.0035
702.982	0.0026
703.236	0.0022
703.49	0.0027
703.743	0.0026
703.997	0.0027
704.251	0.0032
704.504	0.0018
704.758	0.0015
705.012	0.0009
705.265	-0.0001
705.518	-0.0006
705.772	-0.0003
706.025	-0
706.278	-0.0003
706.531	-0.0005
706.785	0.0001
707.038	-0.0013
707.291	-0.0014
707.543	-0.0016
707.796	-0.0016
708.049	-0.0024
708.302	-0.0031
708.555	-0.0028
708.807	-0.0022
709.06	-0.0017
709.312	-0.0025
709.565	-0.0009
709.817	-0.0014
710.069	-0.0026
710.322	-0.0021
710.574	-0.0028
710.826	-0.0025
711.078	-0.0031
711.33	-0.0021
711.582	-0.0033
711.834	-0.0017
712.086	-0.0011
712.338	-0.0028
712.59	-0.0029
712.841	-0.0035
713.093	-0.002
713.344	-0.0016
713.596	-0.0017
713.847	-0.0017
714.099	-0.0005
714.35	-0.0009
714.601	-0.0006
714.853	-0.0018
715.104	-0.0008
715.355	-0.0004
715.606	-0.0011
715.857	0.0005
716.108	-0.0002
716.359	-0.0008
716.609	-0.0019
716.86	-0.0026
717.111	-0.0034
717.361	-0.0028
717.612	-0.0019
717.863	-0.0017
718.113	-0.0015
718.363	-0.0021
718.614	-0.0023
718.864	-0.0035
719.114	-0.0023
719.364	-0.0019
719.614	-0.0012
719.865	-0.002
720.114	-0.0014
720.364	-0.0028
720.614	-0.0031
720.864	-0.0021
721.114	-0.0014
721.364	-0.0009
721.613	-0.0001
721.863	-0.001
722.112	0.0008
722.362	0.0008
722.611	0.0014
722.86	0.0008
723.11	0.0014
723.359	0.0018
723.608	0.0021
723.857	0.0023
724.106	0.003
724.355	0.0025
724.604	0.002
724.853	0.0015
725.102	0.0012
725.351	0.0011
725.599	0.0009
725.848	0.0015
726.097	0.0016
726.345	0.0012
726.594	0.0018
726.842	0.0016
727.09	0.0026
727.339	0.0021
727.587	0.0008
727.835	0.0016
728.083	0.0002
728.331	-0.0002
728.579	-0.0009
728.827	-0.0004
729.075	-0.001
729.323	-0.0017
729.571	0.0002
729.818	-0.0012
730.066	-0.0006
730.314	0.0001
730.561	0.0003
730.809	0.001
731.056	-0.0002
731.303	0.0007
731.551	0.0013
731.798	0.0013
732.045	0.0006
732.292	0.0008
732.539	-0.0005
732.786	0.0001
733.033	-0.0008
733.28	-0.0015
733.527	-0.001
733.774	-0.0019
734.021	-0.0019
734.267	-0.0014
734.514	-0.0021
734.76	-0.0028
735.007	-0.0023
735.253	-0.0018
735.5	-0.0015
735.746	-0.0016
735.992	-0.0006
736.238	0
736.485	-0.0002
736.731	0.0008
736.977	0.0002
737.223	0.0004
737.469	0.0001
737.715	-0.0001
737.96	-0.0001
738.206	0.0004
738.452	0.0001
738.697	0.0005
738.943	0.0007
739.189	0.0001
739.434	-0.0009
739.679	0
739.925	-0.0003
740.17	0.0001
740.415	0.0001
740.66	0.0004
740.906	-0.0003
741.151	0.0004
741.396	0.0005
741.641	0.0008
741.886	-0.0007
742.13	-0.0005
742.375	-0.0006
742.62	0.0003
742.865	-0.0011
743.109	-0.0001
743.354	0.0002
743.598	-0.0003
743.843	-0.0007
744.087	0
744.331	0.0002
744.576	0.0009
744.82	0.0014
745.064	0.0014
745.308	0.0018
745.552	0.0017
745.796	0.0008
746.04	-0.0003
746.284	-0.0013
746.528	-0.0019
746.771	-0.0019
747.015	-0.0016
747.259	-0.0022
747.502	-0.0035
747.746	-0.0051
747.989	-0.0037
748.233	-0.0032
748.476	-0.0026
748.719	-0.0022
748.963	-0.0038
749.206	-0.0031
749.449	-0.0032
749.692	-0.0016
749.935	-0.0012
750.178	-0.0021
750.421	-0.0011
750.664	-0.0015
750.906	-0.0012
751.149	-0.0007
751.392	-0.0006
751.635	0.0003
751.877	-0.001
752.12	-0.0008
752.362	-0.0024
752.604	-0.0035
752.847	-0.0035
753.089	-0.0027
753.331	-0.0043
753.573	-0.0031
753.816	-0.0036
754.058	-0.0035
754.3	-0.0035
754.542	-0.0025
754.783	-0.002
755.025	-0.0011
755.267	-0.0011
755.509	-0.0017
755.75	-0.0017
755.992	-0.0018
756.234	-0.0012
756.475	-0.0005
756.716	-0.0005
756.958	-0.0015
757.199	-0.0018
757.44	-0.0015
757.682	-0.0018
757.923	-0.0015
758.164	-0.0011
758.405	-0.0007
758.646	-0.0004
758.887	0.0001
759.128	-0.0002
759.369	-0.0001
759.609	-0.0006
759.85	-0.0006
760.091	-0.0003
760.331	-0.0002
760.572	-0.0009
760.812	-0.0015
761.053	-0.0019
761.293	-0.0025
761.533	-0.0023
761.774	-0.0019
762.014	-0.0031
762.254	-0.0029
762.494	-0.0027
762.734	-0.0029
762.974	-0.0019
763.214	-0.0012
763.454	-0.0006
763.694	-0.0016
763.933	-0.001
764.173	-0.0022
764.413	-0.0021
764.652	-0.0026
764.892	-0.0031
765.131	-0.0031
765.371	-0.0032
765.61	-0.003
765.849	-0.0043
766.089	-0.0043
766.328	-0.0036
766.567	-0.0024
766.806	-0.0015
767.045	-0.0006
767.284	-0.0005
767.523	0.0003
767.762	-0.0001
768.001	-0.0012
768.239	-0.0006
768.478	-0.0008
768.717	0
768.955	-0.0019
769.194	-0.0013
769.432	-0.0017
769.671	-0.0013
769.909	-0.0006
770.148	-0.0012
770.386	-0.0025
770.624	-0.0006
770.862	-0.0006
771.1	-0.001
771.338	-0.0008
771.576	-0.001
771.814	0.0001
772.052	0.0004
772.29	-0.001
772.528	-0.0007
772.765	-0.001
773.003	-0.0008
773.24	-0.0004
773.478	0.0006
773.716	0.0007
773.953	0.0007
774.19	0.0017
774.428	0.0008
774.665	0.0008
774.902	0.0009
775.139	0.0008
775.376	-0
775.613	0.0012
775.85	0.002
776.087	0.0022
776.324	0.0012
776.561	0.0016
776.798	0.0021
777.034	0.0018
777.271	0.0018
777.508	0.0025
777.744	0.0011
777.981	0.0007
778.217	0.0008
778.454	0.0021
778.69	0.0024
778.926	0.0031
779.162	0.003
779.399	0.0037
779.635	0.003
779.871	0.0032
780.107	0.0018
780.343	0.0023
780.579	0.0015
780.814	0.0019
781.05	0.0007
781.286	-0.0001
781.522	-0.0007
781.757	-0.0002
781.993	0.0007
782.228	0.0009
782.464	0.0001
782.699	0.0004
782.934	-0.0019
783.17	-0.0023
783.405	-0.0036
783.64	-0.0047
783.875	-0.0049
784.11	-0.0041
784.345	-0.0034
784.58	-0.0027
784.815	-0.0035
785.05	-0.0038
785.285	-0.0036
785.52	-0.0032
785.754	-0.0027
785.989	-0.0028
786.223	-0.0018
786.458	-0.0006
786.692	-0.0003
786.927	0.0004
787.161	-0.0001
787.396	-0.0019
787.63	-0.0016
787.864	-0.0029
788.098	-0.0032
788.332	-0.0021
788.566	-0.0028
788.8	-0.0036
789.034	-0.0034
789.268	-0.0031
789.502	-0.0031
789.736	-0.0039
789.969	-0.0031
790.203	-0.0044
790.437	-0.0031
790.67	-0.004
790.904	-0.0039
791.137	-0.0036
791.37	-0.0038
791.604	-0.0048
791.837	-0.0052
792.07	-0.0045
792.303	-0.0045
792.537	-0.0047
792.77	-0.0057
793.003	-0.0056
793.236	-0.0065
793.469	-0.0051
793.701	-0.0042
793.934	-0.0037
794.167	-0.0027
794.4	-0.0033
794.632	-0.003
794.865	-0.0037
795.097	-0.0043
795.33	-0.0039
795.562	-0.0038
795.795	-0.0039
796.027	-0.0038
796.259	-0.0046
796.491	-0.0033
796.724	-0.003
796.956	-0.0032
797.188	-0.0025
797.42	-0.0013
797.652	-0.0012
797.883	-0.0007
798.115	-0.0011
798.347	-0.001
798.579	-0.0012
798.81	-0.0023
799.042	-0.0037
799.274	-0.0032
799.505	-0.0042
799.737	-0.0042
799.968	-0.0037
800.199	-0.0035
800.431	-0.0036
800.662	-0.0037
800.893	-0.0036
801.124	-0.0029
801.355	-0.0028
801.586	-0.0032
801.817	-0.0021
802.048	-0.0013
802.279	-0.0002
802.51	0.0004
802.741	-0.0004
802.971	-0.0015
803.202	-0.0023
803.433	-0.0019
803.663	-0.0016
803.894	-0.0007
804.124	-0.0001
804.354	-0.0003
804.585	-0
804.815	0.0011
805.045	-0.0015
805.275	0.0002
805.506	-0.0332
805.736	0.0324
805.966	0.0426
806.196	0.1015
