Data from 03 0.4 mM K2Cr2O7 0.25 M BQDS 1 M H2SO4 5 min_Absorbance_0113.txt Node
Date: Wed Dec 15 02:55:14 EST 2021
User: kwabilab-user
Spectrometer: HDX00518
Trigger mode: 0
Integration Time (sec): 5.000000E-2
Scans to average: 50
Nonlinearity correction enabled: false
Boxcar width: 0
Storing dark spectrum: false
XAxis mode: Wavelengths
Number of Pixels in Spectrum: 2068
>>>>>Begin Spectral Data<<<<<
195.27	-0.1236
195.642	0.1139
196.014	-0.0674
196.386	0.0339
196.758	-0.0624
197.129	0.0133
197.501	-0.0293
197.872	0.0198
198.244	0.0088
198.615	0.0304
198.986	0.0284
199.357	0.0344
199.728	0.0332
200.099	0.0125
200.47	0.0243
200.841	0.0013
201.212	0.013
201.582	0.03
201.953	0.0263
202.323	0.0215
202.694	0.0195
203.064	0.023
203.434	0.0141
203.804	0.0153
204.174	0.0144
204.544	0.0337
204.914	0.0024
205.284	0.0155
205.653	0.0122
206.023	0.018
206.393	0.0166
206.762	0.015
207.131	0.0255
207.501	0.0328
207.87	0.0313
208.239	0.0221
208.608	0.0039
208.977	0.0077
209.346	-0.0031
209.715	0.0414
210.083	0.0278
210.452	0.0302
210.82	0.029
211.189	0.0153
211.557	0.0338
211.925	0.0341
212.294	0.0378
212.662	0.0315
213.03	0.0066
213.398	0.017
213.766	0.0413
214.133	0.0416
214.501	0.0068
214.869	0.0293
215.236	0.0071
215.604	0.0296
215.971	0.0502
216.338	0.0373
216.705	0.0327
217.072	0.0325
217.439	0.0373
217.806	0.0355
218.173	0.057
218.54	0.0477
218.907	0.0713
219.273	0.0475
219.64	0.0794
220.006	0.0651
220.373	0.0945
220.739	0.1052
221.105	0.1428
221.471	0.1242
221.837	0.1649
222.203	0.1805
222.569	0.1764
222.935	0.206
223.3	0.2335
223.666	0.2522
224.031	0.2779
224.397	0.2959
224.762	0.3236
225.127	0.3533
225.493	0.3632
225.858	0.3954
226.223	0.4166
226.588	0.4319
226.952	0.4306
227.317	0.4846
227.682	0.4819
228.046	0.4862
228.411	0.5273
228.775	0.5149
229.14	0.5406
229.504	0.5541
229.868	0.5618
230.232	0.575
230.596	0.5844
230.96	0.5813
231.324	0.5783
231.688	0.5962
232.052	0.6098
232.415	0.6187
232.779	0.6195
233.142	0.6184
233.505	0.6237
233.869	0.624
234.232	0.6339
234.595	0.6209
234.958	0.6263
235.321	0.6281
235.684	0.629
236.047	0.623
236.409	0.6155
236.772	0.6127
237.134	0.6204
237.497	0.6075
237.859	0.6149
238.222	0.6114
238.584	0.6047
238.946	0.5988
239.308	0.5997
239.67	0.5966
240.032	0.5926
240.393	0.5913
240.755	0.5788
241.117	0.5875
241.478	0.5859
241.84	0.5726
242.201	0.5754
242.562	0.5687
242.924	0.566
243.285	0.5627
243.646	0.5622
244.007	0.5549
244.368	0.5593
244.728	0.564
245.089	0.5537
245.45	0.5455
245.81	0.5435
246.171	0.5463
246.531	0.547
246.891	0.5393
247.252	0.5428
247.612	0.5467
247.972	0.535
248.332	0.5371
248.692	0.5366
249.051	0.5375
249.411	0.5353
249.771	0.5327
250.13	0.5323
250.49	0.5349
250.849	0.5301
251.208	0.5266
251.568	0.5311
251.927	0.5249
252.286	0.5344
252.645	0.5261
253.004	0.5219
253.363	0.5242
253.721	0.5263
254.08	0.5272
254.439	0.5254
254.797	0.5195
255.155	0.5212
255.514	0.5199
255.872	0.5195
256.23	0.516
256.588	0.5243
256.946	0.5267
257.304	0.5154
257.662	0.5259
258.02	0.5181
258.377	0.5097
258.735	0.5134
259.093	0.5131
259.45	0.5124
259.807	0.5111
260.165	0.5162
260.522	0.5119
260.879	0.5054
261.236	0.509
261.593	0.5018
261.95	0.4999
262.306	0.504
262.663	0.5036
263.02	0.5029
263.376	0.5001
263.733	0.4932
264.089	0.497
264.445	0.4961
264.802	0.4911
265.158	0.489
265.514	0.4934
265.87	0.4892
266.226	0.4906
266.581	0.483
266.937	0.4859
267.293	0.4811
267.648	0.4767
268.004	0.4732
268.359	0.4741
268.714	0.4706
269.07	0.4679
269.425	0.464
269.78	0.4606
270.135	0.4614
270.49	0.4592
270.844	0.4609
271.199	0.4552
271.554	0.4477
271.908	0.4478
272.263	0.447
272.617	0.441
272.972	0.441
273.326	0.4371
273.68	0.4349
274.034	0.435
274.388	0.4321
274.742	0.4301
275.096	0.4237
275.45	0.4241
275.803	0.4184
276.157	0.4153
276.51	0.4083
276.864	0.406
277.217	0.4058
277.571	0.4012
277.924	0.3935
278.277	0.3921
278.63	0.3904
278.983	0.3886
279.336	0.3847
279.688	0.3795
280.041	0.3763
280.394	0.3677
280.746	0.3686
281.099	0.3663
281.451	0.3629
281.803	0.3585
282.156	0.3518
282.508	0.3496
282.86	0.3477
283.212	0.3433
283.564	0.3399
283.916	0.3347
284.267	0.3316
284.619	0.33
284.971	0.3256
285.322	0.3238
285.673	0.319
286.025	0.3133
286.376	0.312
286.727	0.3091
287.078	0.3039
287.429	0.3029
287.78	0.2969
288.131	0.2935
288.482	0.2883
288.833	0.287
289.183	0.2836
289.534	0.2795
289.884	0.2761
290.235	0.2721
290.585	0.2704
290.935	0.2671
291.285	0.2644
291.635	0.2605
291.985	0.2563
292.335	0.2528
292.685	0.2515
293.035	0.2464
293.384	0.244
293.734	0.2412
294.083	0.2379
294.433	0.2355
294.782	0.2326
295.131	0.2273
295.48	0.225
295.829	0.2217
296.179	0.2189
296.527	0.2159
296.876	0.2132
297.225	0.2085
297.574	0.2065
297.922	0.2035
298.271	0.2016
298.619	0.198
298.968	0.1957
299.316	0.1928
299.664	0.19
300.012	0.1867
300.36	0.1838
300.708	0.1821
301.056	0.1791
301.404	0.1783
301.752	0.1747
302.099	0.1728
302.447	0.1708
302.794	0.1683
303.142	0.1657
303.489	0.1637
303.836	0.1624
304.183	0.1601
304.531	0.158
304.878	0.1562
305.224	0.1548
305.571	0.1531
305.918	0.1514
306.265	0.149
306.611	0.1475
306.958	0.1479
307.304	0.1462
307.651	0.1445
307.997	0.143
308.343	0.1417
308.689	0.1413
309.035	0.1396
309.381	0.1383
309.727	0.1374
310.073	0.1367
310.419	0.1357
310.764	0.1362
311.11	0.1339
311.455	0.1334
311.801	0.1329
312.146	0.1319
312.491	0.1319
312.837	0.1318
313.182	0.131
313.527	0.13
313.872	0.1306
314.216	0.1305
314.561	0.1304
314.906	0.13
315.251	0.1305
315.595	0.1299
315.94	0.1301
316.284	0.1301
316.628	0.1302
316.972	0.1299
317.317	0.1308
317.661	0.1306
318.005	0.1308
318.348	0.1306
318.692	0.1315
319.036	0.1316
319.38	0.1316
319.723	0.132
320.067	0.1332
320.41	0.1336
320.754	0.1346
321.097	0.134
321.44	0.1354
321.783	0.1359
322.126	0.1369
322.469	0.1376
322.812	0.1385
323.155	0.1393
323.498	0.1399
323.84	0.1401
324.183	0.1413
324.525	0.1425
324.868	0.1438
325.21	0.1445
325.552	0.1451
325.894	0.1462
326.236	0.1467
326.578	0.1474
326.92	0.1492
327.262	0.1495
327.604	0.1508
327.946	0.1521
328.287	0.1528
328.629	0.154
328.97	0.1557
329.312	0.1561
329.653	0.1572
329.994	0.1589
330.335	0.159
330.676	0.1608
331.017	0.1618
331.358	0.163
331.699	0.1642
332.04	0.1654
332.38	0.1664
332.721	0.1675
333.061	0.1682
333.402	0.17
333.742	0.1699
334.083	0.1716
334.423	0.1726
334.763	0.1736
335.103	0.1742
335.443	0.176
335.783	0.1773
336.123	0.1776
336.462	0.1785
336.802	0.1793
337.141	0.1802
337.481	0.1805
337.82	0.1822
338.16	0.1828
338.499	0.1845
338.838	0.1846
339.177	0.1857
339.516	0.1866
339.855	0.1869
340.194	0.1881
340.533	0.1883
340.872	0.1889
341.21	0.1904
341.549	0.191
341.887	0.1916
342.226	0.1914
342.564	0.1923
342.902	0.1923
343.24	0.1926
343.578	0.194
343.916	0.1937
344.254	0.1944
344.592	0.1944
344.93	0.1944
345.268	0.194
345.605	0.1948
345.943	0.1953
346.28	0.1951
346.618	0.1953
346.955	0.1949
347.292	0.196
347.629	0.1957
347.966	0.196
348.303	0.1962
348.64	0.1962
348.977	0.1958
349.314	0.196
349.65	0.1957
349.987	0.1955
350.324	0.1955
350.66	0.1952
350.996	0.1952
351.333	0.1952
351.669	0.194
352.005	0.1942
352.341	0.1931
352.677	0.1925
353.013	0.1919
353.349	0.1916
353.685	0.1905
354.02	0.1897
354.356	0.1885
354.691	0.1878
355.027	0.1874
355.362	0.1863
355.697	0.1857
356.033	0.1849
356.368	0.1836
356.703	0.1826
357.038	0.1829
357.373	0.1817
357.707	0.1812
358.042	0.1799
358.377	0.1802
358.711	0.1794
359.046	0.1778
359.38	0.1776
359.715	0.177
360.049	0.1752
360.383	0.1747
360.717	0.1732
361.051	0.1727
361.385	0.1715
361.719	0.1698
362.053	0.1701
362.387	0.1673
362.72	0.167
363.054	0.1649
363.387	0.1635
363.721	0.1625
364.054	0.1618
364.387	0.1597
364.721	0.1585
365.054	0.1569
365.387	0.1556
365.72	0.1542
366.053	0.1538
366.385	0.1517
366.718	0.1514
367.051	0.1496
367.383	0.1493
367.716	0.1485
368.048	0.1471
368.381	0.1459
368.713	0.1445
369.045	0.1443
369.377	0.1422
369.709	0.1414
370.041	0.1404
370.373	0.1392
370.705	0.1384
371.037	0.1366
371.368	0.1356
371.7	0.1345
372.031	0.1328
372.363	0.1319
372.694	0.1301
373.025	0.1289
373.356	0.1271
373.688	0.1259
374.019	0.1245
374.35	0.1226
374.68	0.1212
375.011	0.1196
375.342	0.1185
375.673	0.1175
376.003	0.1143
376.334	0.1153
376.664	0.1129
376.995	0.1116
377.325	0.1105
377.655	0.1083
377.985	0.1075
378.315	0.1068
378.645	0.1053
378.975	0.1048
379.305	0.103
379.635	0.1031
379.964	0.102
380.294	0.1003
380.623	0.1
380.953	0.0986
381.282	0.0982
381.611	0.0972
381.941	0.0959
382.27	0.0946
382.599	0.0944
382.928	0.0916
383.257	0.0908
383.585	0.0905
383.914	0.0882
384.243	0.0881
384.571	0.0861
384.9	0.0855
385.228	0.0837
385.557	0.0828
385.885	0.081
386.213	0.0802
386.541	0.078
386.869	0.0779
387.197	0.0766
387.525	0.0753
387.853	0.0747
388.181	0.0727
388.508	0.0721
388.836	0.0707
389.164	0.07
389.491	0.0689
389.818	0.0677
390.146	0.0672
390.473	0.0657
390.8	0.0658
391.127	0.0639
391.454	0.0636
391.781	0.0629
392.108	0.0619
392.435	0.0607
392.761	0.0604
393.088	0.0597
393.415	0.0592
393.741	0.0593
394.067	0.0586
394.394	0.0578
394.72	0.0567
395.046	0.0557
395.372	0.0549
395.698	0.054
396.024	0.0536
396.35	0.0531
396.676	0.0526
397.001	0.0514
397.327	0.0512
397.653	0.0498
397.978	0.0494
398.303	0.0484
398.629	0.0481
398.954	0.0477
399.279	0.0476
399.604	0.0463
399.929	0.0457
400.254	0.045
400.579	0.0445
400.904	0.0437
401.229	0.044
401.553	0.0442
401.878	0.0437
402.202	0.0428
402.527	0.0424
402.851	0.0424
403.175	0.0405
403.5	0.0411
403.824	0.04
404.148	0.0405
404.472	0.0404
404.796	0.0398
405.119	0.0395
405.443	0.0393
405.767	0.0385
406.09	0.039
406.414	0.0383
406.737	0.0387
407.061	0.0384
407.384	0.038
407.707	0.0378
408.03	0.0377
408.353	0.0377
408.676	0.0372
408.999	0.0369
409.322	0.0365
409.645	0.0367
409.968	0.0369
410.29	0.0365
410.613	0.0372
410.935	0.0359
411.258	0.0365
411.58	0.0356
411.902	0.0355
412.224	0.0362
412.546	0.036
412.868	0.037
413.19	0.0355
413.512	0.036
413.834	0.036
414.156	0.0358
414.477	0.0352
414.799	0.0361
415.121	0.0346
415.442	0.0355
415.763	0.0354
416.085	0.0352
416.406	0.0345
416.727	0.0357
417.048	0.0357
417.369	0.0351
417.69	0.0346
418.011	0.0352
418.331	0.0355
418.652	0.0354
418.973	0.0348
419.293	0.035
419.614	0.034
419.934	0.0353
420.254	0.0353
420.574	0.0342
420.895	0.0346
421.215	0.0341
421.535	0.0351
421.855	0.0343
422.174	0.0335
422.494	0.0346
422.814	0.0343
423.134	0.0345
423.453	0.0345
423.773	0.0354
424.092	0.035
424.411	0.0348
424.731	0.0346
425.05	0.0351
425.369	0.0348
425.688	0.0349
426.007	0.0344
426.326	0.0351
426.644	0.0345
426.963	0.0343
427.282	0.0345
427.6	0.0351
427.919	0.0348
428.237	0.0356
428.556	0.035
428.874	0.0341
429.192	0.0351
429.51	0.0343
429.828	0.0349
430.146	0.0353
430.464	0.0347
430.782	0.0348
431.1	0.0344
431.418	0.0346
431.735	0.034
432.053	0.0346
432.37	0.0344
432.688	0.0344
433.005	0.0339
433.322	0.0354
433.639	0.0348
433.957	0.0345
434.274	0.0348
434.591	0.0348
434.907	0.034
435.224	0.0347
435.541	0.035
435.858	0.0359
436.174	0.0346
436.491	0.0347
436.807	0.0347
437.124	0.0341
437.44	0.0338
437.756	0.035
438.072	0.034
438.388	0.0341
438.704	0.034
439.02	0.0342
439.336	0.0334
439.652	0.0341
439.968	0.034
440.283	0.0343
440.599	0.0346
440.914	0.0337
441.23	0.0339
441.545	0.0336
441.86	0.0341
442.175	0.034
442.491	0.0337
442.806	0.0339
443.121	0.0331
443.435	0.0333
443.75	0.0331
444.065	0.0333
444.38	0.0332
444.694	0.0328
445.009	0.0329
445.323	0.0336
445.638	0.0333
445.952	0.033
446.266	0.0326
446.58	0.032
446.894	0.0327
447.208	0.0324
447.522	0.0316
447.836	0.0328
448.15	0.0325
448.464	0.0316
448.777	0.0328
449.091	0.0323
449.404	0.0319
449.718	0.0318
450.031	0.0312
450.345	0.0319
450.658	0.0312
450.971	0.0314
451.284	0.0312
451.597	0.0313
451.91	0.0315
452.223	0.0315
452.535	0.0309
452.848	0.0309
453.161	0.031
453.473	0.0305
453.786	0.0306
454.098	0.0308
454.411	0.0307
454.723	0.0309
455.035	0.0295
455.347	0.0295
455.659	0.0302
455.971	0.0311
456.283	0.031
456.595	0.0308
456.907	0.0303
457.218	0.0301
457.53	0.0288
457.841	0.0292
458.153	0.0287
458.464	0.0289
458.776	0.029
459.087	0.029
459.398	0.0283
459.709	0.0284
460.02	0.0289
460.331	0.0288
460.642	0.0284
460.953	0.0283
461.263	0.0279
461.574	0.0274
461.885	0.0282
462.195	0.0273
462.506	0.0276
462.816	0.0276
463.126	0.027
463.437	0.0269
463.747	0.0263
464.057	0.0259
464.367	0.0262
464.677	0.0259
464.987	0.0258
465.296	0.0256
465.606	0.0257
465.916	0.0251
466.225	0.0252
466.535	0.0247
466.844	0.025
467.154	0.0259
467.463	0.025
467.772	0.0246
468.081	0.0243
468.39	0.0254
468.699	0.0243
469.008	0.0241
469.317	0.0251
469.626	0.0243
469.935	0.0236
470.243	0.0243
470.552	0.0243
470.86	0.0239
471.169	0.0233
471.477	0.023
471.785	0.0226
472.093	0.0222
472.402	0.0226
472.71	0.0222
473.018	0.0213
473.326	0.022
473.633	0.0221
473.941	0.0221
474.249	0.0221
474.556	0.0209
474.864	0.0212
475.171	0.0218
475.479	0.0205
475.786	0.0213
476.094	0.0209
476.401	0.021
476.708	0.0214
477.015	0.0206
477.322	0.0191
477.629	0.0191
477.936	0.0199
478.242	0.0201
478.549	0.0199
478.856	0.019
479.162	0.0194
479.469	0.0194
479.775	0.0186
480.081	0.0178
480.388	0.0176
480.694	0.0189
481	0.0178
481.306	0.0182
481.612	0.0185
481.918	0.0185
482.224	0.0187
482.53	0.0172
482.835	0.0177
483.141	0.0186
483.446	0.0175
483.752	0.0166
484.057	0.0162
484.363	0.0163
484.668	0.0172
484.973	0.0169
485.278	0.0155
485.583	0.0151
485.888	0.0158
486.193	0.0147
486.498	0.0152
486.803	0.0145
487.107	0.0144
487.412	0.014
487.717	0.0141
488.021	0.0144
488.325	0.0141
488.63	0.0144
488.934	0.0147
489.238	0.014
489.542	0.0134
489.846	0.0141
490.15	0.0139
490.454	0.0146
490.758	0.0135
491.062	0.0137
491.366	0.0132
491.669	0.0129
491.973	0.0131
492.276	0.0127
492.58	0.0127
492.883	0.0129
493.186	0.0123
493.489	0.0132
493.792	0.0108
494.096	0.012
494.399	0.012
494.701	0.0114
495.004	0.0104
495.307	0.0116
495.61	0.0117
495.912	0.0112
496.215	0.0121
496.517	0.0111
496.82	0.0109
497.122	0.0114
497.424	0.011
497.727	0.0104
498.029	0.0101
498.331	0.01
498.633	0.0098
498.935	0.0104
499.237	0.0106
499.538	0.0093
499.84	0.0107
500.142	0.0086
500.443	0.0093
500.745	0.009
501.046	0.0095
501.348	0.0086
501.649	0.0088
501.95	0.0095
502.251	0.0097
502.552	0.0086
502.853	0.0096
503.154	0.0093
503.455	0.0081
503.756	0.0088
504.057	0.0077
504.357	0.0079
504.658	0.0081
504.958	0.0076
505.259	0.0075
505.559	0.0075
505.859	0.0074
506.16	0.0071
506.46	0.0071
506.76	0.0072
507.06	0.0059
507.36	0.0065
507.66	0.0075
507.96	0.008
508.259	0.0066
508.559	0.0063
508.859	0.007
509.158	0.0071
509.457	0.0059
509.757	0.0071
510.056	0.0057
510.355	0.0062
510.655	0.0056
510.954	0.0062
511.253	0.0054
511.552	0.0067
511.851	0.0055
512.149	0.0055
512.448	0.0055
512.747	0.0054
513.045	0.005
513.344	0.005
513.642	0.0055
513.941	0.0054
514.239	0.0051
514.537	0.0047
514.836	0.0049
515.134	0.0054
515.432	0.0054
515.73	0.0046
516.028	0.0054
516.326	0.005
516.623	0.004
516.921	0.0047
517.219	0.0053
517.516	0.0033
517.814	0.0052
518.111	0.0043
518.409	0.0048
518.706	0.0054
519.003	0.0045
519.3	0.0042
519.597	0.0048
519.894	0.0034
520.191	0.0056
520.488	0.0056
520.785	0.0038
521.082	0.005
521.378	0.0046
521.675	0.0036
521.971	0.0036
522.268	0.0046
522.564	0.0042
522.861	0.0055
523.157	0.0042
523.453	0.0045
523.749	0.0042
524.045	0.004
524.341	0.0043
524.637	0.0027
524.933	0.0038
525.229	0.0042
525.524	0.0041
525.82	0.0039
526.115	0.0044
526.411	0.0031
526.706	0.0035
527.002	0.0031
527.297	0.0023
527.592	0.0035
527.887	0.0034
528.182	0.0027
528.477	0.0038
528.772	0.0026
529.067	0.0041
529.362	0.0036
529.657	0.0028
529.951	0.0035
530.246	0.0027
530.54	0.0032
530.835	0.0023
531.129	0.0037
531.423	0.0031
531.718	0.0027
532.012	0.0034
532.306	0.0031
532.6	0.0026
532.894	0.0029
533.188	0.002
533.482	0.0033
533.775	0.0021
534.069	0.0027
534.363	0.0024
534.656	0.0027
534.95	0.0025
535.243	0.0025
535.536	0.0021
535.83	0.0024
536.123	0.002
536.416	0.0023
536.709	0.0028
537.002	0.0036
537.295	0.0031
537.588	0.0034
537.881	0.0025
538.173	0.0026
538.466	0.0018
538.759	0.0024
539.051	0.003
539.344	0.0038
539.636	0.0024
539.928	0.0029
540.22	0.0028
540.513	0.0032
540.805	0.0034
541.097	0.0035
541.389	0.0034
541.681	0.0037
541.972	0.0028
542.264	0.0037
542.556	0.0033
542.847	0.0023
543.139	0.0036
543.431	0.0027
543.722	0.002
544.013	0.0026
544.305	0.0027
544.596	0.0035
544.887	0.0018
545.178	0.0039
545.469	0.0037
545.76	0.0045
546.051	0.0044
546.342	0.004
546.632	0.0036
546.923	0.0019
547.214	0.002
547.504	0.0036
547.795	0.0021
548.085	0.0031
548.375	0.003
548.666	0.0036
548.956	0.0025
549.246	0.0044
549.536	0.0035
549.826	0.0042
550.116	0.0036
550.406	0.0033
550.695	0.0043
550.985	0.0027
551.275	0.0037
551.564	0.0044
551.854	0.0035
552.143	0.0036
552.433	0.0042
552.722	0.0037
553.011	0.0044
553.3	0.0037
553.589	0.0035
553.879	0.0038
554.167	0.0026
554.456	0.0041
554.745	0.0039
555.034	0.0045
555.323	0.0038
555.611	0.0043
555.9	0.0038
556.188	0.0028
556.477	0.002
556.765	0.0034
557.053	0.0036
557.342	0.0031
557.63	0.0027
557.918	0.0036
558.206	0.0042
558.494	0.0035
558.782	0.0042
559.069	0.0048
559.357	0.0034
559.645	0.0037
559.932	0.0039
560.22	0.0039
560.507	0.002
560.795	0.0026
561.082	0.0016
561.37	0.0024
561.657	0.0022
561.944	0.0023
562.231	0.0028
562.518	0.0031
562.805	0.0047
563.092	0.0026
563.379	0.0032
563.665	0.0037
563.952	0.0034
564.239	0.0043
564.525	0.0029
564.811	0.0032
565.098	0.0026
565.384	0.0034
565.67	0.004
565.957	0.0024
566.243	0.0038
566.529	0.0032
566.815	0.0034
567.101	0.0022
567.387	0.0034
567.672	0.0028
567.958	0.0027
568.244	0.0019
568.529	0.0031
568.815	0.0027
569.1	0.0026
569.386	0.003
569.671	0.0028
569.956	0.0026
570.242	0.0027
570.527	0.0018
570.812	0.0018
571.097	0.0018
571.382	0.0021
571.666	0.0012
571.951	0.0034
572.236	0.0026
572.521	0.0026
572.805	0.003
573.09	0.0028
573.374	0.0014
573.659	0.0022
573.943	0.0026
574.227	0.003
574.511	0.0028
574.795	0.003
575.079	0.0026
575.363	0.0026
575.647	0.0026
575.931	0.0025
576.215	0.0025
576.499	0.0018
576.782	0.0023
577.066	0.0019
577.349	0.0029
577.633	0.0029
577.916	0.0029
578.2	0.0026
578.483	0.0032
578.766	0.0032
579.049	0.0027
579.332	0.0022
579.615	0.0026
579.898	0.0018
580.181	0.0029
580.464	0.0028
580.746	0.003
581.029	0.0023
581.312	0.0023
581.594	0.0018
581.877	0.0022
582.159	0.0029
582.441	0.0021
582.724	0.003
583.006	0.0034
583.288	0.0026
583.57	0.0022
583.852	0.0027
584.134	0.0039
584.416	0.0029
584.697	0.0022
584.979	0.0023
585.261	0.0024
585.542	0.0023
585.824	0.0032
586.105	0.0027
586.387	0.0031
586.668	0.0026
586.949	0.0033
587.231	0.003
587.512	0.0024
587.793	0.0026
588.074	0.0021
588.355	0.0027
588.636	0.0027
588.916	0.0028
589.197	0.0011
589.478	0.0025
589.758	0.0024
590.039	0.0019
590.319	0.002
590.6	0.0025
590.88	0.0018
591.16	0.0016
591.441	0.0029
591.721	0.0022
592.001	0.0019
592.281	0.0023
592.561	0.0023
592.841	0.0028
593.12	0.0024
593.4	0.0024
593.68	0.0023
593.959	0.0023
594.239	0.0024
594.518	0.003
594.798	0.0028
595.077	0.0022
595.356	0.0026
595.636	0.0023
595.915	0.0022
596.194	0.002
596.473	0.0014
596.752	0.0024
597.031	0.0016
597.31	0.002
597.588	0.0019
597.867	0.0017
598.146	0.0013
598.424	0.0006
598.703	0.0016
598.981	0.0012
599.259	0.0017
599.538	0.0023
599.816	0.0023
600.094	0.0025
600.372	0.0021
600.65	0.0033
600.928	0.0028
601.206	0.0025
601.484	0.0029
601.762	0.0034
602.04	0.0032
602.317	0.0027
602.595	0.0035
602.872	0.0029
603.15	0.0035
603.427	0.0022
603.704	0.002
603.982	0.0011
604.259	0.0012
604.536	0.0021
604.813	0.0018
605.09	0.0032
605.367	0.0018
605.644	0.0015
605.921	0.0012
606.197	0.0016
606.474	0.002
606.751	0.0014
607.027	0.002
607.304	0.0023
607.58	0.0022
607.856	0.0026
608.133	0.0038
608.409	0.0037
608.685	0.0032
608.961	0.0027
609.237	0.0033
609.513	0.0035
609.789	0.0025
610.065	0.0019
610.341	0.0013
610.616	0.0027
610.892	0.0027
611.167	0.0036
611.443	0.0033
611.718	0.0033
611.994	0.0035
612.269	0.0018
612.544	0.0024
612.819	0.0027
613.095	0.0022
613.37	0.0016
613.645	0.0014
613.919	0.0021
614.194	0.0014
614.469	0.0024
614.744	0.0017
615.019	0.0018
615.293	0.0015
615.568	0.0017
615.842	0.0013
616.116	0.0007
616.391	0.001
616.665	0.0007
616.939	0.0008
617.213	0.0006
617.488	0.0013
617.762	0.0016
618.035	0.0031
618.309	0.0019
618.583	0.0026
618.857	0.0022
619.131	0.0027
619.404	0.0014
619.678	0.0031
619.951	0.0024
620.225	0.0014
620.498	0.0015
620.771	0.0011
621.045	0.0022
621.318	0.0025
621.591	0.002
621.864	0.0015
622.137	0.0009
622.41	0.0011
622.683	0.0006
622.956	0.0001
623.228	0.0011
623.501	0.0018
623.774	0.0027
624.046	0.0026
624.319	0.0024
624.591	0.0015
624.863	0.0021
625.136	0.0021
625.408	0.0039
625.68	0.0016
625.952	0.002
626.224	0.0026
626.496	0.0027
626.768	0.0027
627.04	0.0024
627.311	0.0015
627.583	0.0026
627.855	0.0035
628.126	0.0011
628.398	0.002
628.669	0.0015
628.941	0.0005
629.212	0.0008
629.483	0.0013
629.755	0.0011
630.026	0.0019
630.297	0.001
630.568	0.0015
630.839	0.0021
631.11	0.0017
631.38	0.0019
631.651	0.0017
631.922	0.0025
632.192	0.0022
632.463	0.0021
632.733	0.0014
633.004	0.0009
633.274	0.0002
633.545	0.0009
633.815	0.0019
634.085	0.0014
634.355	0.0007
634.625	0.0021
634.895	0.0017
635.165	0.001
635.435	0.002
635.705	0.0018
635.974	0.002
636.244	0.0012
636.514	0.0004
636.783	0.0004
637.053	0.0011
637.322	0.0008
637.591	0.0008
637.861	-0
638.13	-0.0005
638.399	0.0021
638.668	0.0013
638.937	0.0015
639.206	0.0022
639.475	0.0033
639.744	0.0011
640.013	0.0017
640.281	0.0016
640.55	0.0031
640.819	0.0024
641.087	0.0015
641.356	0.0021
641.624	0.0014
641.892	0.002
642.161	0.0018
642.429	0.0006
642.697	0.0014
642.965	0.0005
643.233	-0.0006
643.501	-0
643.769	0.0008
644.037	-0.0001
644.305	-0.0005
644.572	-0.0008
644.84	-0.0006
645.108	0.0002
645.375	0.0003
645.643	0.001
645.91	0.0016
646.177	0.0017
646.445	0.0013
646.712	0.0012
646.979	0.0007
647.246	0.0024
647.513	0.002
647.78	0.0012
648.047	-0.0009
648.314	-0.0005
648.58	-0.0018
648.847	-0.0022
649.114	-0.0025
649.38	-0.002
649.647	-0.0018
649.913	-0.0004
650.18	-0.0002
650.446	0.0003
650.712	0.0012
650.978	0.0015
651.245	0.0022
651.511	0.0024
651.777	0.0032
652.043	0.0016
652.309	0.0017
652.574	0.0008
652.84	0.002
653.106	0.0021
653.371	0.0026
653.637	0.0025
653.903	0.0017
654.168	0.0019
654.433	0.0016
654.699	0.0004
654.964	-0.001
655.229	-0.0004
655.494	0.0006
655.759	-0.0002
656.024	0.0004
656.289	-0
656.554	-0
656.819	0.0012
657.084	0.0026
657.349	0.0018
657.613	0.0019
657.878	-0.0003
658.142	0.0014
658.407	0.0004
658.671	0.0006
658.936	0.0009
659.2	0.0011
659.464	0.0014
659.728	0.0013
659.992	-0.0002
660.256	-0.0015
660.52	-0.0004
660.784	-0.0001
661.048	0.0005
661.312	-0
661.575	-0.0002
661.839	0.0014
662.103	0.0005
662.366	0.0005
662.63	0.0007
662.893	-0.0005
663.156	0.0015
663.42	0.0017
663.683	0.001
663.946	0.0019
664.209	0.0017
664.472	0.0007
664.735	0.0015
664.998	0.0024
665.261	0.0027
665.524	0.0024
665.786	0.0022
666.049	0.0023
666.312	0.0029
666.574	0.0015
666.837	0.0032
667.099	0.0023
667.361	0.0031
667.624	0.0032
667.886	0.0027
668.148	0.0032
668.41	0.0027
668.672	0.0023
668.934	0.0031
669.196	0.0023
669.458	0.0013
669.72	0.0014
669.982	0.0013
670.243	0.0001
670.505	0.0006
670.766	0.0005
671.028	0.0013
671.289	0.0012
671.551	0.0026
671.812	0.0006
672.073	0.0023
672.334	0.0012
672.596	0.001
672.857	0.0012
673.118	0.0017
673.379	0.0027
673.639	0.0022
673.9	0.0022
674.161	0.0014
674.422	0.0013
674.682	0.0003
674.943	0.0004
675.203	-0.0001
675.464	0.0003
675.724	0.0005
675.985	0.001
676.245	0.0007
676.505	-0.0002
676.765	-0.0003
677.025	-0
677.285	0
677.545	0.0004
677.805	-0.0007
678.065	0.0013
678.325	0.002
678.585	0.0022
678.844	0.003
679.104	0.0028
679.363	0.0041
679.623	0.0036
679.882	0.0034
680.142	0.0038
680.401	0.0032
680.66	0.0039
680.919	0.0021
681.178	0.0035
681.437	0.0029
681.696	0.0014
681.955	0.0042
682.214	0.0038
682.473	0.0041
682.732	0.0022
682.99	0.0039
683.249	0.0043
683.508	0.0033
683.766	0.0026
684.024	0.002
684.283	0.0009
684.541	0.0004
684.799	0.0009
685.058	-0.0006
685.316	-0.0015
685.574	-0.0015
685.832	-0.0011
686.09	-0.0008
686.348	-0.0014
686.606	-0.0016
686.863	-0.0009
687.121	-0.0011
687.379	-0.002
687.636	-0.0025
687.894	-0.0024
688.151	-0.0018
688.409	-0.0021
688.666	-0.0006
688.923	-0.0002
689.181	-0.0003
689.438	-0.0012
689.695	-0.001
689.952	-0.001
690.209	-0.0012
690.466	-0.0008
690.723	-0.0003
690.979	-0.0011
691.236	-0.0021
691.493	-0.0024
691.75	-0.0007
692.006	-0.0011
692.263	-0.0016
692.519	-0.0015
692.775	-0.0021
693.032	-0.0023
693.288	-0.004
693.544	-0.0022
693.8	-0.0014
694.056	-0.0018
694.313	-0.0016
694.568	-0.0006
694.824	-0.0003
695.08	-0.0005
695.336	-0.0001
695.592	-0.0007
695.847	0.0011
696.103	0.0014
696.359	0.0023
696.614	0.0012
696.869	-0.0003
697.125	-0.001
697.38	-0.0012
697.635	-0.0004
697.891	0.0005
698.146	-0.0002
698.401	0.0004
698.656	0.0005
698.911	0.001
699.166	0.0009
699.42	0.0024
699.675	0.0024
699.93	0.002
700.185	0.0024
700.439	0.002
700.694	0.0015
700.948	0.0013
701.203	0.0014
701.457	0.0015
701.711	0.0008
701.965	-0.0006
702.22	0.0001
702.474	-0.0005
702.728	-0.0005
702.982	0
703.236	-0.0001
703.49	0.0001
703.743	-0.0009
703.997	-0.0006
704.251	-0.0005
704.504	0.0007
704.758	0.001
705.012	0.0013
705.265	0.0019
705.518	0.0017
705.772	0.0028
706.025	0.0024
706.278	0.0014
706.531	0.0001
706.785	-0.0013
707.038	-0.0014
707.291	-0.0013
707.543	-0.0009
707.796	-0.0007
708.049	-0.0006
708.302	-0.0017
708.555	-0.0006
708.807	-0.001
709.06	0.0002
709.312	0.0014
709.565	0.0017
709.817	0.0027
710.069	0.0019
710.322	0.0022
710.574	0.0023
710.826	0.0018
711.078	0.0009
711.33	0.0008
711.582	0.0013
711.834	0.0011
712.086	0.0016
712.338	0.001
712.59	0.0002
712.841	-0.0011
713.093	-0.0009
713.344	0.0004
713.596	-0.0009
713.847	-0.0021
714.099	-0.0019
714.35	-0.0011
714.601	-0.0019
714.853	-0.0024
715.104	-0.0015
715.355	-0.0024
715.606	-0
715.857	-0.0004
716.108	0.0002
716.359	0.0006
716.609	-0.0008
716.86	0.0018
717.111	0.0008
717.361	0.0004
717.612	-0.0001
717.863	0.0008
718.113	0.0017
718.363	0.001
718.614	0.0008
718.864	0.0011
719.114	0.0001
719.364	-0.0005
719.614	-0.0003
719.865	0.0001
720.114	0.0005
720.364	0.0007
720.614	-0.0004
720.864	-0.0007
721.114	-0.0019
721.364	-0.0016
721.613	-0.0017
721.863	-0.0017
722.112	-0.0014
722.362	-0.0014
722.611	-0.0004
722.86	0.0002
723.11	0.0015
723.359	0.0012
723.608	0.0018
723.857	0.0025
724.106	0.0017
724.355	0.0018
724.604	0.0011
724.853	0
725.102	-0.0013
725.351	-0.0017
725.599	-0.0035
725.848	-0.0021
726.097	-0.0006
726.345	-0.0016
726.594	-0.001
726.842	-0.0002
727.09	-0.0019
727.339	-0.0012
727.587	-0.002
727.835	-0.0027
728.083	-0.0033
728.331	-0.0028
728.579	-0.0017
728.827	-0.0023
729.075	-0.004
729.323	-0.0037
729.571	-0.0032
729.818	-0.004
730.066	-0.0029
730.314	-0.0019
730.561	-0.0023
730.809	-0.0034
731.056	-0.0024
731.303	-0.0035
731.551	-0.0023
731.798	-0.0028
732.045	-0.0018
732.292	-0.0024
732.539	-0.0025
732.786	-0.0028
733.033	-0.003
733.28	-0.0019
733.527	-0.0023
733.774	-0.0028
734.021	-0.0027
734.267	-0.0023
734.514	-0.0023
734.76	-0.003
735.007	-0.0018
735.253	-0.0002
735.5	0.0014
735.746	0.0026
735.992	0.001
736.238	0.0017
736.485	0.0011
736.731	0.0014
736.977	0.0007
737.223	-0.0007
737.469	-0.0011
737.715	0
737.96	0.0001
738.206	-0.0002
738.452	0.0006
738.697	-0.0001
738.943	-0.0004
739.189	-0.0001
739.434	-0.0005
739.679	-0.0002
739.925	0.0022
740.17	0.0025
740.415	0.0016
740.66	0.0022
740.906	0.0015
741.151	0.0014
741.396	0.0006
741.641	-0.0001
741.886	0.0001
742.13	0.0008
742.375	0.001
742.62	-0.0001
742.865	0.0004
743.109	0.0004
743.354	-0.001
743.598	-0.0012
743.843	-0.0017
744.087	-0.0026
744.331	-0.0022
744.576	-0.0019
744.82	-0.001
745.064	-0.0004
745.308	0
745.552	-0.0007
745.796	-0.0014
746.04	-0.0013
746.284	-0.0014
746.528	-0.0012
746.771	-0.0004
747.015	-0.0008
747.259	-0.0025
747.502	-0.0013
747.746	-0.0012
747.989	-0.0008
748.233	0.0006
748.476	0.0003
748.719	0.0004
748.963	0.0006
749.206	0.0004
749.449	0.0002
749.692	-0.0003
749.935	0.0006
750.178	-0.0001
750.421	-0.0006
750.664	-0.0005
750.906	-0.0002
751.149	-0.0009
751.392	-0.0002
751.635	-0.0004
751.877	-0.0001
752.12	-0.0005
752.362	0.0007
752.604	0.0006
752.847	0.0005
753.089	-0
753.331	-0.0009
753.573	-0.0002
753.816	0.0004
754.058	0.0003
754.3	0.0002
754.542	0.0016
754.783	0.001
755.025	0.0015
755.267	0.0012
755.509	0.0009
755.75	-0
755.992	0.0006
756.234	0.0012
756.475	0.0012
756.716	0.0007
756.958	0.0002
757.199	0.0004
757.44	0.0009
757.682	0.0006
757.923	0.0012
758.164	0.0018
758.405	0.001
758.646	0.0011
758.887	0.0002
759.128	-0.0005
759.369	-0.001
759.609	-0.0004
759.85	-0.0012
760.091	-0.0009
760.331	0.0004
760.572	0.0008
760.812	-0.0004
761.053	0.0003
761.293	0.0009
761.533	0.0015
761.774	0.0007
762.014	0.0012
762.254	0.0009
762.494	0.0014
762.734	0.0006
762.974	0.001
763.214	0.0007
763.454	0.0011
763.694	0.0015
763.933	0.0025
764.173	0.0043
764.413	0.0039
764.652	0.0015
764.892	0.0004
765.131	0.0001
765.371	-0.0007
765.61	-0.0007
765.849	-0.0021
766.089	-0.0026
766.328	-0.0013
766.567	-0.0028
766.806	-0.0025
767.045	-0.0033
767.284	-0.0019
767.523	-0.0023
767.762	-0.0021
768.001	-0.0022
768.239	-0.0014
768.478	-0.0029
768.717	-0.0025
768.955	-0.0029
769.194	-0.0024
769.432	-0.0019
769.671	-0.0013
769.909	-0.0014
770.148	-0.0018
770.386	-0.0019
770.624	-0.0013
770.862	-0.002
771.1	-0.0017
771.338	-0.0022
771.576	-0.001
771.814	-0.0005
772.052	-0.0003
772.29	0.0008
772.528	-0.0001
772.765	-0.0011
773.003	-0.0002
773.24	-0.0001
773.478	-0.0002
773.716	0.0017
773.953	0.0012
774.19	0.0014
774.428	0.0023
774.665	0.0025
774.902	0.0032
775.139	0.0022
775.376	0.0005
775.613	0.0008
775.85	0.0009
776.087	0.0005
776.324	0.0001
776.561	-0.0017
776.798	-0.0001
777.034	-0.0007
777.271	-0.0001
777.508	-0
777.744	0.001
777.981	0.0006
778.217	-0.0002
778.454	-0.0009
778.69	-0.0005
778.926	-0.0005
779.162	-0.0011
779.399	0.0005
779.635	-0.0002
779.871	-0.0004
780.107	-0.0011
780.343	-0.0019
780.579	-0.0016
780.814	-0.0013
781.05	-0.0016
781.286	-0.0011
781.522	-0.0029
781.757	-0.0018
781.993	-0.0014
782.228	-0.0016
782.464	-0.0004
782.699	-0.0002
782.934	-0.0009
783.17	-0.0007
783.405	-0.0007
783.64	-0.0003
783.875	-0.0019
784.11	-0.0012
784.345	-0.0006
784.58	-0.0005
784.815	-0.0001
785.05	-0.0011
785.285	-0.0009
785.52	-0.0011
785.754	-0.0009
785.989	0.0003
786.223	0.0009
786.458	0.0023
786.692	0.0033
786.927	0.0042
787.161	0.0042
787.396	0.0041
787.63	0.0034
787.864	0.0021
788.098	-0.0002
788.332	0.0004
788.566	-0.0003
788.8	-0.0007
789.034	-0.0004
789.268	-0.0012
789.502	-0.0015
789.736	-0.0004
789.969	-0.0007
790.203	-0.001
790.437	0.0004
790.67	0.0004
790.904	0.0021
791.137	0.0018
791.37	0.0021
791.604	0.0017
791.837	0.0031
792.07	0.0032
792.303	0.0031
792.537	0.0045
792.77	0.004
793.003	0.0025
793.236	0.0026
793.469	0.0023
793.701	0.0012
793.934	0.0016
794.167	0.0002
794.4	-0.0001
794.632	-0.0006
794.865	-0.0009
795.097	-0.0017
795.33	-0.0016
795.562	-0.0017
795.795	-0.0019
796.027	-0.0009
796.259	0.0005
796.491	0.0001
796.724	0.0006
796.956	0.0008
797.188	0.0014
797.42	0.0001
797.652	0.0016
797.883	0.0015
798.115	0.0022
798.347	0.0017
798.579	0.0015
798.81	0.0016
799.042	0.002
799.274	0.0028
799.505	0.0025
799.737	0.0018
799.968	0.0019
800.199	0.0015
800.431	0.0029
800.662	0.0013
800.893	0.0022
801.124	0.0015
801.355	0.0012
801.586	0.003
801.817	0.0042
802.048	0.0035
802.279	0.0025
802.51	0.0038
802.741	0.0048
802.971	0.0043
803.202	0.0029
803.433	0.0029
803.663	0.0033
803.894	0.0026
804.124	0.0027
804.354	0.0037
804.585	0.0047
804.815	0.0043
805.045	0.0048
805.275	0.0032
805.506	-0.0268
805.736	-0.0199
805.966	-0.2027
806.196	0.0386
