Data from 03 0.4 mM K2Cr2O7 0.25 M BQDS 1 M H2SO4 5 min_Absorbance_0001.txt Node
Date: Tue Dec 14 17:35:13 EST 2021
User: kwabilab-user
Spectrometer: HDX00518
Trigger mode: 0
Integration Time (sec): 5.000000E-2
Scans to average: 50
Nonlinearity correction enabled: false
Boxcar width: 0
Storing dark spectrum: false
XAxis mode: Wavelengths
Number of Pixels in Spectrum: 2068
>>>>>Begin Spectral Data<<<<<
195.27	0.0588
195.642	0.4449
196.014	0.0348
196.386	0.353
196.758	-0.0009
197.129	0.0202
197.501	0.0283
197.872	0.0735
198.244	0.0593
198.615	0.0791
198.986	0.0791
199.357	0.066
199.728	0.0847
200.099	0.0874
200.47	0.0694
200.841	0.0696
201.212	0.0597
201.582	0.0855
201.953	0.0721
202.323	0.0683
202.694	0.0792
203.064	0.0736
203.434	0.0487
203.804	0.0647
204.174	0.0593
204.544	0.0857
204.914	0.0769
205.284	0.0493
205.653	0.0505
206.023	0.0584
206.393	0.0815
206.762	0.0586
207.131	0.1033
207.501	0.0835
207.87	0.0968
208.239	0.0823
208.608	0.0747
208.977	0.0642
209.346	0.0648
209.715	0.09
210.083	0.0856
210.452	0.0763
210.82	0.1216
211.189	0.0778
211.557	0.0923
211.925	0.0907
212.294	0.0792
212.662	0.0713
213.03	0.0743
213.398	0.0958
213.766	0.0733
214.133	0.0885
214.501	0.099
214.869	0.0772
215.236	0.0999
215.604	0.0911
215.971	0.1061
216.338	0.1015
216.705	0.0999
217.072	0.0944
217.439	0.0782
217.806	0.0861
218.173	0.1452
218.54	0.1125
218.907	0.1326
219.273	0.1332
219.64	0.1606
220.006	0.147
220.373	0.1461
220.739	0.1742
221.105	0.2036
221.471	0.2036
221.837	0.2053
222.203	0.2648
222.569	0.2618
222.935	0.2659
223.3	0.2848
223.666	0.3142
224.031	0.3304
224.397	0.3619
224.762	0.3808
225.127	0.428
225.493	0.4374
225.858	0.4892
226.223	0.483
226.588	0.497
226.952	0.515
227.317	0.5768
227.682	0.57
228.046	0.5659
228.411	0.5965
228.775	0.6352
229.14	0.6404
229.504	0.6453
229.868	0.6675
230.232	0.6709
230.596	0.715
230.96	0.7355
231.324	0.7016
231.688	0.73
232.052	0.7389
232.415	0.7381
232.779	0.7461
233.142	0.7506
233.505	0.7554
233.869	0.7733
234.232	0.7648
234.595	0.7706
234.958	0.7637
235.321	0.7697
235.684	0.7735
236.047	0.7791
236.409	0.7575
236.772	0.7664
237.134	0.7678
237.497	0.7484
237.859	0.7768
238.222	0.7674
238.584	0.7631
238.946	0.752
239.308	0.7582
239.67	0.7464
240.032	0.7554
240.393	0.7477
240.755	0.7459
241.117	0.7471
241.478	0.7417
241.84	0.7435
242.201	0.7347
242.562	0.7414
242.924	0.7274
243.285	0.7134
243.646	0.7244
244.007	0.7128
244.368	0.7177
244.728	0.7135
245.089	0.7174
245.45	0.7089
245.81	0.7196
246.171	0.7083
246.531	0.7059
246.891	0.6998
247.252	0.6946
247.612	0.7098
247.972	0.6944
248.332	0.6982
248.692	0.6967
249.051	0.6918
249.411	0.6843
249.771	0.6863
250.13	0.6783
250.49	0.6809
250.849	0.6788
251.208	0.6845
251.568	0.6758
251.927	0.6693
252.286	0.6784
252.645	0.6737
253.004	0.67
253.363	0.6709
253.721	0.6673
254.08	0.6719
254.439	0.6605
254.797	0.6651
255.155	0.6619
255.514	0.6545
255.872	0.6637
256.23	0.6552
256.588	0.6548
256.946	0.657
257.304	0.6635
257.662	0.6603
258.02	0.6547
258.377	0.6535
258.735	0.652
259.093	0.6464
259.45	0.6524
259.807	0.6524
260.165	0.6445
260.522	0.6485
260.879	0.6403
261.236	0.6438
261.593	0.6328
261.95	0.6387
262.306	0.6395
262.663	0.6322
263.02	0.6374
263.376	0.6329
263.733	0.633
264.089	0.6315
264.445	0.627
264.802	0.627
265.158	0.6247
265.514	0.6256
265.87	0.6239
266.226	0.6192
266.581	0.6259
266.937	0.6242
267.293	0.6154
267.648	0.6163
268.004	0.6156
268.359	0.614
268.714	0.6126
269.07	0.6022
269.425	0.6042
269.78	0.6062
270.135	0.6019
270.49	0.5996
270.844	0.602
271.199	0.5953
271.554	0.5971
271.908	0.5933
272.263	0.5931
272.617	0.5898
272.972	0.5895
273.326	0.5817
273.68	0.579
274.034	0.5792
274.388	0.5807
274.742	0.5798
275.096	0.5768
275.45	0.5739
275.803	0.5749
276.157	0.5635
276.51	0.5664
276.864	0.5655
277.217	0.5655
277.571	0.5629
277.924	0.5587
278.277	0.5534
278.63	0.5506
278.983	0.5506
279.336	0.5459
279.688	0.5455
280.041	0.5403
280.394	0.538
280.746	0.5322
281.099	0.5322
281.451	0.529
281.803	0.5234
282.156	0.5237
282.508	0.5206
282.86	0.5143
283.212	0.5152
283.564	0.509
283.916	0.5041
284.267	0.5032
284.619	0.498
284.971	0.4936
285.322	0.4921
285.673	0.487
286.025	0.4843
286.376	0.4809
286.727	0.4738
287.078	0.4684
287.429	0.4667
287.78	0.4626
288.131	0.458
288.482	0.4538
288.833	0.4484
289.183	0.4446
289.534	0.4409
289.884	0.4348
290.235	0.4328
290.585	0.428
290.935	0.4233
291.285	0.42
291.635	0.4158
291.985	0.4109
292.335	0.4073
292.685	0.4042
293.035	0.3976
293.384	0.3926
293.734	0.3884
294.083	0.3851
294.433	0.3803
294.782	0.376
295.131	0.372
295.48	0.3674
295.829	0.3635
296.179	0.3608
296.527	0.3559
296.876	0.3505
297.225	0.3474
297.574	0.3423
297.922	0.3399
298.271	0.3351
298.619	0.3308
298.968	0.3291
299.316	0.3242
299.664	0.321
300.012	0.317
300.36	0.313
300.708	0.3101
301.056	0.3069
301.404	0.3035
301.752	0.2999
302.099	0.2969
302.447	0.2949
302.794	0.2915
303.142	0.2882
303.489	0.286
303.836	0.2827
304.183	0.2806
304.531	0.2782
304.878	0.2758
305.224	0.2736
305.571	0.2717
305.918	0.2695
306.265	0.2667
306.611	0.2638
306.958	0.2639
307.304	0.2616
307.651	0.2601
307.997	0.2592
308.343	0.2569
308.689	0.2562
309.035	0.2549
309.381	0.253
309.727	0.2509
310.073	0.2507
310.419	0.2496
310.764	0.2498
311.11	0.2476
311.455	0.2483
311.801	0.2472
312.146	0.2461
312.491	0.2459
312.837	0.2454
313.182	0.2443
313.527	0.2442
313.872	0.2438
314.216	0.2443
314.561	0.2437
314.906	0.244
315.251	0.2444
315.595	0.2441
315.94	0.2447
316.284	0.2447
316.628	0.2451
316.972	0.2449
317.317	0.2456
317.661	0.247
318.005	0.246
318.348	0.2469
318.692	0.2479
319.036	0.2486
319.38	0.2493
319.723	0.2497
320.067	0.2511
320.41	0.2518
320.754	0.2532
321.097	0.2528
321.44	0.2545
321.783	0.2559
322.126	0.2575
322.469	0.2585
322.812	0.2592
323.155	0.2605
323.498	0.2615
323.84	0.2627
324.183	0.2645
324.525	0.2662
324.868	0.268
325.21	0.2682
325.552	0.2696
325.894	0.2718
326.236	0.2726
326.578	0.2739
326.92	0.2755
327.262	0.2763
327.604	0.2785
327.946	0.2802
328.287	0.2811
328.629	0.2834
328.97	0.2847
329.312	0.2861
329.653	0.2874
329.994	0.2904
330.335	0.2914
330.676	0.2925
331.017	0.2942
331.358	0.2961
331.699	0.2975
332.04	0.2996
332.38	0.3007
332.721	0.3025
333.061	0.3039
333.402	0.3052
333.742	0.3071
334.083	0.3077
334.423	0.3095
334.763	0.311
335.103	0.3128
335.443	0.3136
335.783	0.3147
336.123	0.3155
336.462	0.3167
336.802	0.3176
337.141	0.3196
337.481	0.3207
337.82	0.3225
338.16	0.3233
338.499	0.3248
338.838	0.3255
339.177	0.3278
339.516	0.328
339.855	0.3294
340.194	0.3308
340.533	0.3303
340.872	0.3318
341.21	0.333
341.549	0.3337
341.887	0.3348
342.226	0.3353
342.564	0.3356
342.902	0.3362
343.24	0.3361
343.578	0.3378
343.916	0.3361
344.254	0.3373
344.592	0.3379
344.93	0.3386
345.268	0.3371
345.605	0.3379
345.943	0.3368
346.28	0.3383
346.618	0.338
346.955	0.3384
347.292	0.339
347.629	0.3384
347.966	0.3378
348.303	0.3388
348.64	0.3383
348.977	0.3381
349.314	0.3379
349.65	0.3379
349.987	0.3378
350.324	0.3366
350.66	0.3371
350.996	0.3354
351.333	0.3354
351.669	0.3347
352.005	0.3347
352.341	0.3326
352.677	0.3308
353.013	0.3296
353.349	0.3289
353.685	0.3269
354.02	0.3258
354.356	0.3254
354.691	0.3226
355.027	0.3222
355.362	0.3209
355.697	0.3199
356.033	0.3186
356.368	0.3175
356.703	0.3155
357.038	0.3155
357.373	0.3129
357.707	0.3126
358.042	0.3112
358.377	0.3095
358.711	0.3094
359.046	0.3073
359.38	0.3066
359.715	0.3047
360.049	0.304
360.383	0.3022
360.717	0.3001
361.051	0.2988
361.385	0.2982
361.719	0.2959
362.053	0.2949
362.387	0.2917
362.72	0.2909
363.054	0.2874
363.387	0.2862
363.721	0.2834
364.054	0.2822
364.387	0.2798
364.721	0.2772
365.054	0.2761
365.387	0.2731
365.72	0.2725
366.053	0.2708
366.385	0.2679
366.718	0.2658
367.051	0.2651
367.383	0.2628
367.716	0.2625
368.048	0.2606
368.381	0.2589
368.713	0.2567
369.045	0.2556
369.377	0.2538
369.709	0.2527
370.041	0.2504
370.373	0.249
370.705	0.2475
371.037	0.2447
371.368	0.2433
371.7	0.2411
372.031	0.2392
372.363	0.2374
372.694	0.2351
373.025	0.2334
373.356	0.2304
373.688	0.2281
374.019	0.2263
374.35	0.223
374.68	0.221
375.011	0.2192
375.342	0.2163
375.673	0.2141
376.003	0.2111
376.334	0.2104
376.664	0.2074
376.995	0.2051
377.325	0.203
377.655	0.201
377.985	0.1997
378.315	0.1978
378.645	0.1956
378.975	0.194
379.305	0.1919
379.635	0.1906
379.964	0.1889
380.294	0.1875
380.623	0.1857
380.953	0.1846
381.282	0.1833
381.611	0.1814
381.941	0.1797
382.27	0.1779
382.599	0.1767
382.928	0.1745
383.257	0.1722
383.585	0.171
383.914	0.1684
384.243	0.1655
384.571	0.1639
384.9	0.1619
385.228	0.1596
385.557	0.1587
385.885	0.1549
386.213	0.1542
386.541	0.1515
386.869	0.1497
387.197	0.1471
387.525	0.1457
387.853	0.1435
388.181	0.1421
388.508	0.1403
388.836	0.1386
389.164	0.1361
389.491	0.1339
389.818	0.132
390.146	0.1312
390.473	0.13
390.8	0.1291
391.127	0.1265
391.454	0.1247
391.781	0.124
392.108	0.1224
392.435	0.1207
392.761	0.12
393.088	0.1181
393.415	0.1175
393.741	0.1165
394.067	0.1156
394.394	0.1137
394.72	0.1121
395.046	0.1106
395.372	0.1095
395.698	0.1086
396.024	0.1069
396.35	0.1054
396.676	0.1045
397.001	0.1031
397.327	0.1019
397.653	0.1007
397.978	0.1
398.303	0.0975
398.629	0.0969
398.954	0.0954
399.279	0.0948
399.604	0.093
399.929	0.0924
400.254	0.0909
400.579	0.0896
400.904	0.0882
401.229	0.0881
401.553	0.0871
401.878	0.0861
402.202	0.0851
402.527	0.0844
402.851	0.084
403.175	0.0822
403.5	0.0819
403.824	0.0809
404.148	0.0806
404.472	0.0798
404.796	0.0792
405.119	0.0783
405.443	0.0777
405.767	0.077
406.09	0.0766
406.414	0.0756
406.737	0.0761
407.061	0.0751
407.384	0.0744
407.707	0.0739
408.03	0.0733
408.353	0.0728
408.676	0.0723
408.999	0.0722
409.322	0.0714
409.645	0.0707
409.968	0.0704
410.29	0.0706
410.613	0.0704
410.935	0.0694
411.258	0.0689
411.58	0.0679
411.902	0.068
412.224	0.0681
412.546	0.0674
412.868	0.0685
413.19	0.0663
413.512	0.0667
413.834	0.0661
414.156	0.0671
414.477	0.0653
414.799	0.0658
415.121	0.0648
415.442	0.065
415.763	0.0647
416.085	0.0644
416.406	0.0644
416.727	0.0641
417.048	0.0638
417.369	0.0634
417.69	0.0631
418.011	0.0629
418.331	0.0628
418.652	0.0632
418.973	0.0626
419.293	0.0627
419.614	0.0617
419.934	0.0634
420.254	0.0622
420.574	0.0615
420.895	0.0614
421.215	0.0613
421.535	0.0616
421.855	0.0608
422.174	0.0598
422.494	0.0604
422.814	0.0603
423.134	0.0603
423.453	0.0606
423.773	0.0612
424.092	0.0612
424.411	0.0606
424.731	0.0604
425.05	0.0604
425.369	0.0596
425.688	0.0598
426.007	0.0597
426.326	0.0597
426.644	0.0591
426.963	0.0591
427.282	0.0595
427.6	0.0591
427.919	0.0594
428.237	0.0599
428.556	0.0599
428.874	0.0591
429.192	0.0585
429.51	0.058
429.828	0.0588
430.146	0.0589
430.464	0.0586
430.782	0.0581
431.1	0.0573
431.418	0.0577
431.735	0.057
432.053	0.0569
432.37	0.0575
432.688	0.0572
433.005	0.0565
433.322	0.0578
433.639	0.0571
433.957	0.0572
434.274	0.0571
434.591	0.0571
434.907	0.0569
435.224	0.0571
435.541	0.0561
435.858	0.0576
436.174	0.0573
436.491	0.0571
436.807	0.0562
437.124	0.0555
437.44	0.0564
437.756	0.0562
438.072	0.0561
438.388	0.0562
438.704	0.0557
439.02	0.0558
439.336	0.0551
439.652	0.0555
439.968	0.0554
440.283	0.0558
440.599	0.0556
440.914	0.0557
441.23	0.0554
441.545	0.0556
441.86	0.0552
442.175	0.0548
442.491	0.0546
442.806	0.0545
443.121	0.0538
443.435	0.0546
443.75	0.0538
444.065	0.0534
444.38	0.0538
444.694	0.0536
445.009	0.0536
445.323	0.0539
445.638	0.0536
445.952	0.0529
446.266	0.0531
446.58	0.0521
446.894	0.0529
447.208	0.052
447.522	0.0519
447.836	0.0524
448.15	0.0514
448.464	0.0517
448.777	0.0522
449.091	0.0517
449.404	0.0513
449.718	0.051
450.031	0.0508
450.345	0.0514
450.658	0.0504
450.971	0.0511
451.284	0.0501
451.597	0.0509
451.91	0.0504
452.223	0.0503
452.535	0.0494
452.848	0.0501
453.161	0.0495
453.473	0.0498
453.786	0.0499
454.098	0.0494
454.411	0.0494
454.723	0.0491
455.035	0.0488
455.347	0.0481
455.659	0.049
455.971	0.0494
456.283	0.0487
456.595	0.0483
456.907	0.0486
457.218	0.0486
457.53	0.0472
457.841	0.0473
458.153	0.0471
458.464	0.0472
458.776	0.0474
459.087	0.0467
459.398	0.0467
459.709	0.046
460.02	0.0472
460.331	0.0464
460.642	0.0462
460.953	0.0459
461.263	0.0453
461.574	0.0446
461.885	0.0459
462.195	0.0443
462.506	0.0447
462.816	0.0455
463.126	0.0441
463.437	0.0437
463.747	0.0429
464.057	0.043
464.367	0.0429
464.677	0.043
464.987	0.043
465.296	0.0424
465.606	0.0425
465.916	0.0416
466.225	0.0417
466.535	0.0409
466.844	0.0418
467.154	0.0421
467.463	0.0416
467.772	0.0414
468.081	0.0405
468.39	0.041
468.699	0.0405
469.008	0.0407
469.317	0.0397
469.626	0.0398
469.935	0.0393
470.243	0.0394
470.552	0.0387
470.86	0.0383
471.169	0.0386
471.477	0.0377
471.785	0.0371
472.093	0.0373
472.402	0.037
472.71	0.037
473.018	0.0366
473.326	0.0365
473.633	0.0369
473.941	0.0358
474.249	0.0361
474.556	0.0362
474.864	0.0356
475.171	0.0361
475.479	0.0346
475.786	0.0357
476.094	0.0343
476.401	0.0339
476.708	0.0343
477.015	0.0342
477.322	0.0335
477.629	0.0328
477.936	0.0335
478.242	0.0329
478.549	0.0331
478.856	0.0321
479.162	0.0325
479.469	0.0318
479.775	0.0319
480.081	0.0313
480.388	0.0313
480.694	0.0307
481	0.03
481.306	0.0304
481.612	0.0311
481.918	0.0317
482.224	0.0304
482.53	0.0296
482.835	0.0292
483.141	0.0296
483.446	0.0295
483.752	0.0296
484.057	0.0282
484.363	0.0284
484.668	0.0287
484.973	0.0276
485.278	0.027
485.583	0.0264
485.888	0.028
486.193	0.0267
486.498	0.0263
486.803	0.026
487.107	0.0263
487.412	0.0251
487.717	0.0253
488.021	0.0254
488.325	0.0257
488.63	0.0259
488.934	0.0254
489.238	0.0251
489.542	0.0245
489.846	0.0248
490.15	0.0247
490.454	0.0243
490.758	0.0236
491.062	0.024
491.366	0.0235
491.669	0.0232
491.973	0.0233
492.276	0.0228
492.58	0.023
492.883	0.0229
493.186	0.0217
493.489	0.0221
493.792	0.021
494.096	0.0209
494.399	0.0215
494.701	0.0209
495.004	0.02
495.307	0.0208
495.61	0.0209
495.912	0.0218
496.215	0.0212
496.517	0.021
496.82	0.0204
497.122	0.0198
497.424	0.0189
497.727	0.0196
498.029	0.0192
498.331	0.0184
498.633	0.0188
498.935	0.0184
499.237	0.0194
499.538	0.0185
499.84	0.0186
500.142	0.0175
500.443	0.0175
500.745	0.0172
501.046	0.0167
501.348	0.0168
501.649	0.0163
501.95	0.0169
502.251	0.0175
502.552	0.0163
502.853	0.0168
503.154	0.017
503.455	0.016
503.756	0.0163
504.057	0.0154
504.357	0.0162
504.658	0.0161
504.958	0.0146
505.259	0.016
505.559	0.0146
505.859	0.0138
506.16	0.0144
506.46	0.0146
506.76	0.014
507.06	0.0125
507.36	0.0134
507.66	0.0146
507.96	0.0153
508.259	0.014
508.559	0.0134
508.859	0.014
509.158	0.0136
509.457	0.0123
509.757	0.0134
510.056	0.0126
510.355	0.0128
510.655	0.0119
510.954	0.0114
511.253	0.012
511.552	0.0118
511.851	0.0119
512.149	0.0109
512.448	0.0105
512.747	0.0115
513.045	0.0113
513.344	0.0116
513.642	0.0108
513.941	0.0113
514.239	0.0114
514.537	0.0112
514.836	0.0105
515.134	0.011
515.432	0.0106
515.73	0.0102
516.028	0.0106
516.326	0.0099
516.623	0.0092
516.921	0.0098
517.219	0.0111
517.516	0.0101
517.814	0.0103
518.111	0.0091
518.409	0.0102
518.706	0.0101
519.003	0.0086
519.3	0.0097
519.597	0.0086
519.894	0.0087
520.191	0.0096
520.488	0.0101
520.785	0.0084
521.082	0.0097
521.378	0.0101
521.675	0.0086
521.971	0.0088
522.268	0.0091
522.564	0.0089
522.861	0.009
523.157	0.0093
523.453	0.0082
523.749	0.009
524.045	0.0074
524.341	0.0081
524.637	0.0075
524.933	0.0086
525.229	0.0081
525.524	0.0076
525.82	0.0081
526.115	0.008
526.411	0.0077
526.706	0.0079
527.002	0.008
527.297	0.0064
527.592	0.0065
527.887	0.0067
528.182	0.0068
528.477	0.0073
528.772	0.0071
529.067	0.0067
529.362	0.0078
529.657	0.0074
529.951	0.0071
530.246	0.005
530.54	0.0063
530.835	0.0061
531.129	0.0066
531.423	0.0062
531.718	0.0058
532.012	0.0056
532.306	0.0063
532.6	0.0058
532.894	0.0064
533.188	0.0062
533.482	0.0065
533.775	0.0051
534.069	0.007
534.363	0.0056
534.656	0.0061
534.95	0.0063
535.243	0.0059
535.536	0.0046
535.83	0.0049
536.123	0.0043
536.416	0.006
536.709	0.0057
537.002	0.0069
537.295	0.0059
537.588	0.006
537.881	0.0052
538.173	0.0056
538.466	0.0062
538.759	0.0067
539.051	0.0061
539.344	0.006
539.636	0.0053
539.928	0.0067
540.22	0.0049
540.513	0.0051
540.805	0.0057
541.097	0.0048
541.389	0.0058
541.681	0.0054
541.972	0.0045
542.264	0.0052
542.556	0.0057
542.847	0.0046
543.139	0.0057
543.431	0.0052
543.722	0.0049
544.013	0.0056
544.305	0.0045
544.596	0.0046
544.887	0.005
545.178	0.0059
545.469	0.0052
545.76	0.0051
546.051	0.0053
546.342	0.005
546.632	0.0051
546.923	0.0047
547.214	0.0044
547.504	0.0058
547.795	0.0039
548.085	0.0051
548.375	0.005
548.666	0.0061
548.956	0.0043
549.246	0.0062
549.536	0.005
549.826	0.0048
550.116	0.0044
550.406	0.005
550.695	0.0055
550.985	0.0047
551.275	0.0061
551.564	0.0071
551.854	0.006
552.143	0.0056
552.433	0.0052
552.722	0.0049
553.011	0.0052
553.3	0.0056
553.589	0.0054
553.879	0.0053
554.167	0.005
554.456	0.0045
554.745	0.0059
555.034	0.0065
555.323	0.0059
555.611	0.0054
555.9	0.0061
556.188	0.0045
556.477	0.0045
556.765	0.0058
557.053	0.0055
557.342	0.0053
557.63	0.0044
557.918	0.0058
558.206	0.0057
558.494	0.0056
558.782	0.0059
559.069	0.0067
559.357	0.0064
559.645	0.0061
559.932	0.0061
560.22	0.0066
560.507	0.0042
560.795	0.0044
561.082	0.0042
561.37	0.0045
561.657	0.0035
561.944	0.0042
562.231	0.0044
562.518	0.0048
562.805	0.0057
563.092	0.0048
563.379	0.0054
563.665	0.0051
563.952	0.0064
564.239	0.0056
564.525	0.0064
564.811	0.005
565.098	0.0044
565.384	0.0049
565.67	0.0048
565.957	0.0049
566.243	0.0051
566.529	0.0053
566.815	0.0056
567.101	0.0047
567.387	0.0047
567.672	0.0049
567.958	0.0039
568.244	0.003
568.529	0.0043
568.815	0.0049
569.1	0.0047
569.386	0.0048
569.671	0.0044
569.956	0.0047
570.242	0.0041
570.527	0.0042
570.812	0.0036
571.097	0.0038
571.382	0.0034
571.666	0.0039
571.951	0.0052
572.236	0.0044
572.521	0.0041
572.805	0.0044
573.09	0.0051
573.374	0.0052
573.659	0.0048
573.943	0.0035
574.227	0.0049
574.511	0.0045
574.795	0.0045
575.079	0.0047
575.363	0.0046
575.647	0.0035
575.931	0.0038
576.215	0.0055
576.499	0.0043
576.782	0.0037
577.066	0.0043
577.349	0.0041
577.633	0.0052
577.916	0.0055
578.2	0.0047
578.483	0.004
578.766	0.0046
579.049	0.0037
579.332	0.0044
579.615	0.0047
579.898	0.0042
580.181	0.0039
580.464	0.0046
580.746	0.0046
581.029	0.0043
581.312	0.0047
581.594	0.0053
581.877	0.0036
582.159	0.0037
582.441	0.0034
582.724	0.0037
583.006	0.004
583.288	0.0045
583.57	0.0039
583.852	0.0044
584.134	0.005
584.416	0.0042
584.697	0.0053
584.979	0.0046
585.261	0.0046
585.542	0.0036
585.824	0.0048
586.105	0.0043
586.387	0.004
586.668	0.0042
586.949	0.0047
587.231	0.0043
587.512	0.004
587.793	0.0036
588.074	0.0036
588.355	0.004
588.636	0.003
588.916	0.0038
589.197	0.002
589.478	0.0039
589.758	0.0037
590.039	0.0034
590.319	0.0025
590.6	0.0031
590.88	0.0034
591.16	0.0032
591.441	0.0042
591.721	0.0034
592.001	0.0034
592.281	0.003
592.561	0.0045
592.841	0.0051
593.12	0.004
593.4	0.0038
593.68	0.0034
593.959	0.0034
594.239	0.0038
594.518	0.0043
594.798	0.0041
595.077	0.0041
595.356	0.0037
595.636	0.0039
595.915	0.003
596.194	0.0031
596.473	0.0035
596.752	0.0033
597.031	0.0042
597.31	0.0039
597.588	0.0026
597.867	0.0034
598.146	0.0021
598.424	0.0023
598.703	0.0038
598.981	0.0043
599.259	0.0031
599.538	0.003
599.816	0.0039
600.094	0.0046
600.372	0.004
600.65	0.0039
600.928	0.0035
601.206	0.0044
601.484	0.004
601.762	0.004
602.04	0.0046
602.317	0.0037
602.595	0.004
602.872	0.0037
603.15	0.0049
603.427	0.004
603.704	0.0037
603.982	0.0026
604.259	0.0029
604.536	0.0037
604.813	0.003
605.09	0.0042
605.367	0.0034
605.644	0.0032
605.921	0.0027
606.197	0.003
606.474	0.003
606.751	0.0032
607.027	0.0041
607.304	0.004
607.58	0.004
607.856	0.0038
608.133	0.0045
608.409	0.0041
608.685	0.0047
608.961	0.0037
609.237	0.0032
609.513	0.004
609.789	0.0036
610.065	0.0046
610.341	0.0033
610.616	0.0022
610.892	0.0024
611.167	0.0034
611.443	0.0025
611.718	0.0035
611.994	0.0032
612.269	0.0025
612.544	0.0037
612.819	0.003
613.095	0.0032
613.37	0.0029
613.645	0.003
613.919	0.0037
614.194	0.0033
614.469	0.0038
614.744	0.0039
615.019	0.003
615.293	0.0023
615.568	0.0028
615.842	0.0032
616.116	0.0022
616.391	0.0021
616.665	0.0034
616.939	0.0017
617.213	0.0021
617.488	0.0026
617.762	0.0032
618.035	0.0038
618.309	0.0038
618.583	0.0028
618.857	0.0026
619.131	0.0034
619.404	0.0028
619.678	0.0034
619.951	0.0046
620.225	0.0023
620.498	0.0019
620.771	0.0029
621.045	0.0026
621.318	0.0024
621.591	0.004
621.864	0.0027
622.137	0.0019
622.41	0.002
622.683	0.0014
622.956	0.0011
623.228	0.0031
623.501	0.0029
623.774	0.0023
624.046	0.0028
624.319	0.0032
624.591	0.0024
624.863	0.0036
625.136	0.0029
625.408	0.0048
625.68	0.0046
625.952	0.003
626.224	0.0031
626.496	0.0033
626.768	0.0028
627.04	0.0032
627.311	0.0028
627.583	0.0027
627.855	0.002
628.126	0.0013
628.398	0.001
628.669	0.0013
628.941	0.0008
629.212	0.0004
629.483	0.0019
629.755	0.0005
630.026	0.0011
630.297	0.0008
630.568	0.0013
630.839	0.0018
631.11	0.0012
631.38	0.0019
631.651	0.0016
631.922	0.0019
632.192	0.0015
632.463	0.0019
632.733	0.0014
633.004	0.0026
633.274	0.0008
633.545	0.001
633.815	0.002
634.085	0.0025
634.355	0.0014
634.625	0.0023
634.895	0.0015
635.165	0.0018
635.435	0.0028
635.705	0.0028
635.974	0.0028
636.244	0.0019
636.514	0.0017
636.783	0.0018
637.053	0.0023
637.322	0.0022
637.591	0.0016
637.861	0.0007
638.13	-0.0004
638.399	0.0016
638.668	0.0019
638.937	0.001
639.206	0.0018
639.475	0.0012
639.744	0.001
640.013	0.002
640.281	0.0014
640.55	0.0017
640.819	0.0011
641.087	0.0021
641.356	0.0003
641.624	0.0017
641.892	0.0013
642.161	0.0014
642.429	0.0005
642.697	0.0021
642.965	0.0004
643.233	0.0004
643.501	0.0011
643.769	0.0013
644.037	0.0002
644.305	-0.0003
644.572	-0.0001
644.84	-0.0004
645.108	0.0008
645.375	0.001
645.643	0.0021
645.91	0.0014
646.177	0.0019
646.445	0.0016
646.712	0.0013
646.979	0.0004
647.246	0.002
647.513	0.002
647.78	0.0026
648.047	0.0012
648.314	0.0009
648.58	-0.0002
648.847	-0.0008
649.114	-0.0013
649.38	-0.0003
649.647	-0.0002
649.913	-0.0006
650.18	0.0017
650.446	0.0025
650.712	0.0029
650.978	0.0039
651.245	0.0025
651.511	0.0035
651.777	0.0033
652.043	0.0026
652.309	0.0027
652.574	0.0015
652.84	0.0028
653.106	0.0035
653.371	0.0037
653.637	0.0043
653.903	0.0032
654.168	0.0036
654.433	0.0025
654.699	0.0009
654.964	-0.0002
655.229	0.0005
655.494	0.0031
655.759	0.0049
656.024	0.0005
656.289	-0
656.554	-0.0029
656.819	-0.0001
657.084	0.0027
657.349	0.0027
657.613	0.0027
657.878	0.0017
658.142	0.0005
658.407	0.0003
658.671	0.001
658.936	0.0009
659.2	0.0014
659.464	0.0015
659.728	0.0008
659.992	0.0002
660.256	-0.0005
660.52	0.0005
660.784	0.0013
661.048	0.0011
661.312	0.0005
661.575	-0.0004
661.839	0.0014
662.103	0.0002
662.366	0.0004
662.63	0.0016
662.893	-0
663.156	0.0013
663.42	0.002
663.683	0.0017
663.946	0.0019
664.209	0.0025
664.472	0.002
664.735	0.0027
664.998	0.0027
665.261	0.0033
665.524	0.0031
665.786	0.0023
666.049	0.0027
666.312	0.0028
666.574	0.0024
666.837	0.0043
667.099	0.0031
667.361	0.0035
667.624	0.0038
667.886	0.0028
668.148	0.0032
668.41	0.0026
668.672	0.0029
668.934	0.0027
669.196	0.0023
669.458	0.0015
669.72	0.0017
669.982	0.0008
670.243	0.0008
670.505	0.0013
670.766	0.0009
671.028	0.0014
671.289	0.0023
671.551	0.0033
671.812	0.0018
672.073	0.0018
672.334	0.0014
672.596	0.001
672.857	0.0013
673.118	0.0024
673.379	0.0036
673.639	0.0025
673.9	0.0022
674.161	0.0026
674.422	0.0013
674.682	0.0006
674.943	-0.0001
675.203	0.0001
675.464	0.002
675.724	0.0014
675.985	0.002
676.245	0.0017
676.505	0.0011
676.765	0.0002
677.025	0.0007
677.285	0.0005
677.545	0.0006
677.805	0.0019
678.065	0.0021
678.325	0.0018
678.585	0.0038
678.844	0.004
679.104	0.0037
679.363	0.0045
679.623	0.0043
679.882	0.0043
680.142	0.004
680.401	0.004
680.66	0.0031
680.919	0.0029
681.178	0.0035
681.437	0.0039
681.696	0.0036
681.955	0.0051
682.214	0.0051
682.473	0.0054
682.732	0.0039
682.99	0.0051
683.249	0.0049
683.508	0.0039
683.766	0.0047
684.024	0.0031
684.283	0.0014
684.541	0.0019
684.799	0.0011
685.058	-0.0005
685.316	0.0004
685.574	0.0002
685.832	0.0003
686.09	0
686.348	0.0001
686.606	-0.0005
686.863	-0.0009
687.121	-0.0011
687.379	-0.0009
687.636	-0.0022
687.894	-0.0027
688.151	-0.002
688.409	-0.001
688.666	-0.0008
688.923	-0.0012
689.181	-0.0007
689.438	-0.0011
689.695	0.0009
689.952	-0.0011
690.209	0.0007
690.466	-0.0003
690.723	-0
690.979	-0.0009
691.236	-0.0012
691.493	-0.0021
691.75	-0.0012
692.006	-0.0011
692.263	-0.0005
692.519	-0.0005
692.775	-0.0012
693.032	-0.0022
693.288	-0.0013
693.544	-0.0004
693.8	0.0002
694.056	-0.0013
694.313	-0.002
694.568	-0.0003
694.824	-0.001
695.08	0.0002
695.336	0.0005
695.592	0.0007
695.847	0.0003
696.103	0.0014
696.359	0.0036
696.614	0.0028
696.869	0.0023
697.125	0.002
697.38	-0.0008
697.635	-0.0003
697.891	0.0012
698.146	0.0003
698.401	0.0007
698.656	0.0002
698.911	0.0019
699.166	0.0009
699.42	0.0016
699.675	0.0015
699.93	0.002
700.185	0.0016
700.439	0.0015
700.694	0.0019
700.948	0.0019
701.203	0.0012
701.457	0.0007
701.711	0.0007
701.965	0.0001
702.22	0.0009
702.474	0.0011
702.728	0.0011
702.982	0.001
703.236	-0.0003
703.49	-0.0002
703.743	-0.0005
703.997	-0.0001
704.251	0.0001
704.504	0.0027
704.758	0.0019
705.012	0.0014
705.265	0.0017
705.518	0.0011
705.772	0.0011
706.025	0.0004
706.278	0.0011
706.531	0.0009
706.785	0.0005
707.038	-0.0003
707.291	-0.0001
707.543	0.0006
707.796	0.0004
708.049	0.0012
708.302	0.0013
708.555	0.0004
708.807	0.0016
709.06	0.0024
709.312	0.0022
709.565	0.0023
709.817	0.0035
710.069	0.0024
710.322	0.0033
710.574	0.0037
710.826	0.0039
711.078	0.0033
711.33	0.0033
711.582	0.0037
711.834	0.0023
712.086	0.0028
712.338	0.0027
712.59	0.0023
712.841	0.0017
713.093	0.0004
713.344	0.0013
713.596	0.0003
713.847	-0.0012
714.099	-0.0015
714.35	-0.0002
714.601	-0.0012
714.853	-0.0023
715.104	-0.0014
715.355	-0.0001
715.606	-0.0006
715.857	-0.0005
716.108	0.0003
716.359	0.0006
716.609	-0.0011
716.86	0.0005
717.111	0.001
717.361	0.0006
717.612	0.0004
717.863	0.0015
718.113	0.0028
718.363	0.0031
718.614	0.0018
718.864	0.0024
719.114	0.0022
719.364	0.001
719.614	0.0012
719.865	0.0005
720.114	0.0004
720.364	0.0014
720.614	-0
720.864	0.0002
721.114	-0.0001
721.364	-0.0008
721.613	-0.0003
721.863	-0.0006
722.112	-0.0003
722.362	0.0005
722.611	-0.0002
722.86	0.0007
723.11	0.0015
723.359	0.0012
723.608	0.0014
723.857	0.0027
724.106	0.0031
724.355	0.0018
724.604	0.0016
724.853	0.0009
725.102	0.0002
725.351	-0.0013
725.599	-0.0025
725.848	-0.0016
726.097	-0.0001
726.345	-0.0007
726.594	-0.0006
726.842	0.0009
727.09	-0.0004
727.339	0.0001
727.587	-0.001
727.835	-0.0013
728.083	-0.0019
728.331	-0.0018
728.579	-0.0007
728.827	-0.0015
729.075	-0.0013
729.323	-0.0012
729.571	-0.0018
729.818	-0.0011
730.066	-0.0011
730.314	-0.0009
730.561	-0.002
730.809	-0.0016
731.056	-0.001
731.303	-0.0022
731.551	-0.0023
731.798	-0.002
732.045	-0.001
732.292	-0.0027
732.539	-0.0006
732.786	-0.0016
733.033	-0.0018
733.28	-0.0016
733.527	-0.0017
733.774	-0.0011
734.021	-0.0012
734.267	-0.0006
734.514	0.0001
734.76	-0.0008
735.007	-0.0015
735.253	0.0006
735.5	0.0031
735.746	0.0036
735.992	0.0025
736.238	0.0026
736.485	0.002
736.731	0.0024
736.977	0.0023
737.223	0.0004
737.469	0.0005
737.715	0.0017
737.96	0.0018
738.206	0.0014
738.452	0.0007
738.697	-0.0001
738.943	0.0004
739.189	0.001
739.434	0.0004
739.679	0.0011
739.925	0.0025
740.17	0.0037
740.415	0.0021
740.66	0.0026
740.906	0.0017
741.151	0.0019
741.396	0.0016
741.641	0.0004
741.886	0.0015
742.13	0.0019
742.375	0.0021
742.62	0.0025
742.865	0.0017
743.109	0.0024
743.354	0.0011
743.598	0.0004
743.843	-0.0004
744.087	-0.0009
744.331	-0.0012
744.576	-0.0006
744.82	-0.0002
745.064	-0.0002
745.308	0.0001
745.552	-0.0006
745.796	-0.0009
746.04	-0
746.284	0.0002
746.528	-0.0003
746.771	-0.0005
747.015	0.0004
747.259	0.0001
747.502	-0.0006
747.746	-0.0006
747.989	0
748.233	-0.0001
748.476	0.0001
748.719	-0.0001
748.963	0.0008
749.206	0.0005
749.449	0.0014
749.692	0.0008
749.935	0.0003
750.178	0.0009
750.421	-0.0006
750.664	-0.0001
750.906	0.0002
751.149	-0.0013
751.392	0.0001
751.635	0.0006
751.877	-0.0009
752.12	0.0001
752.362	-0.0002
752.604	-0.0005
752.847	0.0002
753.089	-0
753.331	-0.0008
753.573	0.0005
753.816	0.0003
754.058	0.0008
754.3	0.0004
754.542	0.0011
754.783	0.001
755.025	0.0025
755.267	0.002
755.509	0.0017
755.75	0.0014
755.992	0.0014
756.234	0.001
756.475	0.0015
756.716	0.0008
756.958	0.0004
757.199	-0.0007
757.44	-0
757.682	0.0009
757.923	0.0004
758.164	0.0004
758.405	0.0002
758.646	0.0003
758.887	-0.0005
759.128	-0.0005
759.369	-0.0012
759.609	-0.0001
759.85	0.0005
760.091	-0.0001
760.331	0.0012
760.572	0.002
760.812	0.0006
761.053	0.0009
761.293	0.002
761.533	0.0019
761.774	0.0017
762.014	0.002
762.254	0.0018
762.494	0.0024
762.734	0.0023
762.974	0.0025
763.214	0.0018
763.454	0.0019
763.694	0.0023
763.933	0.0029
764.173	0.0042
764.413	0.0049
764.652	0.0027
764.892	0.0021
765.131	0.0016
765.371	0.0004
765.61	-0.0002
765.849	-0.0009
766.089	-0.0014
766.328	-0.0011
766.567	-0.0021
766.806	-0.0023
767.045	-0.0034
767.284	-0.0019
767.523	-0.0026
767.762	-0.0026
768.001	-0.0014
768.239	-0.0006
768.478	-0.0014
768.717	-0.002
768.955	-0.0021
769.194	-0.0021
769.432	-0.0017
769.671	-0.0014
769.909	-0.0007
770.148	-0.0009
770.386	-0
770.624	-0.0005
770.862	-0.0014
771.1	-0.0016
771.338	-0.0005
771.576	-0.0007
771.814	0.0014
772.052	0.0009
772.29	0.0016
772.528	0.0006
772.765	-0.0002
773.003	0.0002
773.24	-0.0002
773.478	0.0004
773.716	0.0022
773.953	0.0016
774.19	0.0026
774.428	0.0031
774.665	0.0038
774.902	0.004
775.139	0.0037
775.376	0.001
775.613	0.0013
775.85	0.0013
776.087	0.001
776.324	-0.0003
776.561	-0.0015
776.798	-0.0006
777.034	-0.0006
777.271	-0.0002
777.508	-0.0003
777.744	0.0013
777.981	0.0004
778.217	-0.0006
778.454	-0.0009
778.69	-0.0008
778.926	-0.0009
779.162	-0.0009
779.399	0.0004
779.635	0
779.871	-0.0001
780.107	-0.0007
780.343	-0.0025
780.579	-0.0016
780.814	-0.002
781.05	-0.0006
781.286	-0.0011
781.522	-0.0017
781.757	-0.0024
781.993	-0.0014
782.228	-0.0014
782.464	-0.001
782.699	-0.0004
782.934	-0.0011
783.17	-0.0011
783.405	0.0004
783.64	0.0002
783.875	-0.0012
784.11	-0.0013
784.345	-0.0009
784.58	-0.0001
784.815	-0.0009
785.05	-0.0008
785.285	-0.0007
785.52	-0.0002
785.754	-0.0003
785.989	0.0007
786.223	0.0015
786.458	0.0018
786.692	0.0025
786.927	0.0035
787.161	0.0032
787.396	0.003
787.63	0.0029
787.864	0.0018
788.098	0.0004
788.332	0.0003
788.566	-0.0005
788.8	-0.0002
789.034	0.0003
789.268	-0.0015
789.502	-0.0014
789.736	-0.0012
789.969	-0.001
790.203	-0.0007
790.437	-0.0014
790.67	-0.0001
790.904	0.0005
791.137	0.0007
791.37	0.0008
791.604	0.0013
791.837	0.0023
792.07	0.0025
792.303	0.0027
792.537	0.0043
792.77	0.0041
793.003	0.0035
793.236	0.0033
793.469	0.0033
793.701	0.002
793.934	0.0031
794.167	0.0024
794.4	0.0019
794.632	0.0009
794.865	-0
795.097	-0.0003
795.33	0.0005
795.562	0.0002
795.795	-0.0001
796.027	0.0007
796.259	0.0018
796.491	0.0019
796.724	0.0033
796.956	0.0034
797.188	0.003
797.42	0.0031
797.652	0.0029
797.883	0.0035
798.115	0.0033
798.347	0.0032
798.579	0.0031
798.81	0.0024
799.042	0.0027
799.274	0.0036
799.505	0.0033
799.737	0.0032
799.968	0.0031
800.199	0.0035
800.431	0.0036
800.662	0.0036
800.893	0.0033
801.124	0.0035
801.355	0.0036
801.586	0.0033
801.817	0.0045
802.048	0.0039
802.279	0.0033
802.51	0.0031
802.741	0.004
802.971	0.0038
803.202	0.0024
803.433	0.0032
803.663	0.0027
803.894	0.0028
804.124	0.0026
804.354	0.0039
804.585	0.0055
804.815	0.0048
805.045	0.0057
805.275	0.0053
805.506	-0.0247
805.736	-0.0995
805.966	-0.0939
806.196	-0.0531
