Data from 03 0.4 mM K2Cr2O7 0.25 M BQDS 1 M H2SO4 5 min_Absorbance_0104.txt Node
Date: Wed Dec 15 02:10:13 EST 2021
User: kwabilab-user
Spectrometer: HDX00518
Trigger mode: 0
Integration Time (sec): 5.000000E-2
Scans to average: 50
Nonlinearity correction enabled: false
Boxcar width: 0
Storing dark spectrum: false
XAxis mode: Wavelengths
Number of Pixels in Spectrum: 2068
>>>>>Begin Spectral Data<<<<<
195.27	-0.2462
195.642	0.0318
196.014	-0.3444
196.386	-0.2264
196.758	-0.1609
197.129	-0.0528
197.501	-0.0524
197.872	-0.0299
198.244	-0.0362
198.615	0.0214
198.986	-0.0061
199.357	-0.0064
199.728	0.0089
200.099	-0.0062
200.47	-0.0114
200.841	-0.0319
201.212	-0.0184
201.582	-0.01
201.953	0.0106
202.323	-0.014
202.694	-0.0202
203.064	-0.0189
203.434	-0.0383
203.804	-0.0392
204.174	-0.0146
204.544	-0.0025
204.914	-0.0315
205.284	-0.0047
205.653	-0.0223
206.023	-0.0112
206.393	-0.0236
206.762	-0.0145
207.131	-0.014
207.501	-0.0282
207.87	-0.0194
208.239	-0.0183
208.608	-0.0121
208.977	-0.0272
209.346	-0.0202
209.715	-0.0057
210.083	0.0068
210.452	-0.015
210.82	-0.0116
211.189	-0.0454
211.557	0.0012
211.925	-0.0406
212.294	-0.0319
212.662	-0.0119
213.03	-0.0234
213.398	-0.0249
213.766	-0.0162
214.133	-0.0127
214.501	-0.0026
214.869	-0.0316
215.236	-0.0243
215.604	-0.0033
215.971	0.0077
216.338	-0.0076
216.705	-0.0027
217.072	0.0042
217.439	-0.0046
217.806	0.0057
218.173	0.012
218.54	0.0112
218.907	0.0299
219.273	0.0415
219.64	0.035
220.006	0.0416
220.373	0.0454
220.739	0.0753
221.105	0.0897
221.471	0.1067
221.837	0.1293
222.203	0.1267
222.569	0.1388
222.935	0.163
223.3	0.1924
223.666	0.2311
224.031	0.2452
224.397	0.2646
224.762	0.267
225.127	0.3017
225.493	0.3202
225.858	0.3542
226.223	0.3699
226.588	0.3909
226.952	0.3964
227.317	0.4302
227.682	0.4444
228.046	0.4505
228.411	0.4972
228.775	0.4931
229.14	0.502
229.504	0.5178
229.868	0.5247
230.232	0.5461
230.596	0.5547
230.96	0.5725
231.324	0.5485
231.688	0.5739
232.052	0.5864
232.415	0.582
232.779	0.5831
233.142	0.6013
233.505	0.6087
233.869	0.6016
234.232	0.5998
234.595	0.6023
234.958	0.6079
235.321	0.5948
235.684	0.6037
236.047	0.6019
236.409	0.5949
236.772	0.5973
237.134	0.6026
237.497	0.5953
237.859	0.6036
238.222	0.5954
238.584	0.5952
238.946	0.5808
239.308	0.5843
239.67	0.5781
240.032	0.5808
240.393	0.5791
240.755	0.5821
241.117	0.5683
241.478	0.5695
241.84	0.5726
242.201	0.5607
242.562	0.5589
242.924	0.5621
243.285	0.553
243.646	0.5522
244.007	0.5494
244.368	0.5508
244.728	0.5507
245.089	0.5463
245.45	0.5409
245.81	0.5396
246.171	0.5354
246.531	0.5391
246.891	0.5344
247.252	0.5399
247.612	0.5382
247.972	0.5371
248.332	0.5319
248.692	0.5352
249.051	0.5305
249.411	0.5299
249.771	0.5254
250.13	0.5289
250.49	0.5269
250.849	0.5237
251.208	0.5214
251.568	0.5308
251.927	0.524
252.286	0.5302
252.645	0.519
253.004	0.5261
253.363	0.5236
253.721	0.5241
254.08	0.5252
254.439	0.5175
254.797	0.52
255.155	0.5183
255.514	0.5196
255.872	0.5199
256.23	0.5174
256.588	0.5199
256.946	0.5198
257.304	0.513
257.662	0.5167
258.02	0.5169
258.377	0.5151
258.735	0.5092
259.093	0.5122
259.45	0.5071
259.807	0.5102
260.165	0.5117
260.522	0.5139
260.879	0.5041
261.236	0.51
261.593	0.5025
261.95	0.5015
262.306	0.5036
262.663	0.5043
263.02	0.5032
263.376	0.4934
263.733	0.4921
264.089	0.4962
264.445	0.493
264.802	0.4948
265.158	0.4911
265.514	0.4923
265.87	0.4871
266.226	0.4876
266.581	0.4865
266.937	0.4835
267.293	0.4788
267.648	0.4783
268.004	0.4749
268.359	0.4706
268.714	0.4697
269.07	0.474
269.425	0.4698
269.78	0.463
270.135	0.4622
270.49	0.463
270.844	0.4605
271.199	0.4534
271.554	0.4525
271.908	0.45
272.263	0.4497
272.617	0.4482
272.972	0.4453
273.326	0.4427
273.68	0.4353
274.034	0.4337
274.388	0.4291
274.742	0.4299
275.096	0.4243
275.45	0.4231
275.803	0.4199
276.157	0.4141
276.51	0.4091
276.864	0.4082
277.217	0.41
277.571	0.4075
277.924	0.3993
278.277	0.3971
278.63	0.3881
278.983	0.3867
279.336	0.3864
279.688	0.3822
280.041	0.3774
280.394	0.3707
280.746	0.3718
281.099	0.3674
281.451	0.3615
281.803	0.3615
282.156	0.3566
282.508	0.3505
282.86	0.3481
283.212	0.3485
283.564	0.3416
283.916	0.3382
284.267	0.3344
284.619	0.334
284.971	0.3285
285.322	0.325
285.673	0.3212
286.025	0.316
286.376	0.314
286.727	0.309
287.078	0.3063
287.429	0.3049
287.78	0.2985
288.131	0.2983
288.482	0.292
288.833	0.2908
289.183	0.286
289.534	0.283
289.884	0.28
290.235	0.2769
290.585	0.2732
290.935	0.268
291.285	0.2675
291.635	0.2625
291.985	0.2602
292.335	0.2574
292.685	0.2535
293.035	0.248
293.384	0.2463
293.734	0.2425
294.083	0.2399
294.433	0.2385
294.782	0.2364
295.131	0.2297
295.48	0.2297
295.829	0.2256
296.179	0.2232
296.527	0.2172
296.876	0.2168
297.225	0.2128
297.574	0.2093
297.922	0.2071
298.271	0.2033
298.619	0.1997
298.968	0.1988
299.316	0.1951
299.664	0.1927
300.012	0.1906
300.36	0.1873
300.708	0.185
301.056	0.1831
301.404	0.1804
301.752	0.1787
302.099	0.176
302.447	0.1739
302.794	0.1714
303.142	0.1693
303.489	0.1665
303.836	0.164
304.183	0.1631
304.531	0.1607
304.878	0.1591
305.224	0.1569
305.571	0.1563
305.918	0.1542
306.265	0.1513
306.611	0.1504
306.958	0.1499
307.304	0.1482
307.651	0.1467
307.997	0.1453
308.343	0.1443
308.689	0.143
309.035	0.142
309.381	0.1408
309.727	0.1399
310.073	0.139
310.419	0.138
310.764	0.1385
311.11	0.1369
311.455	0.1357
311.801	0.1353
312.146	0.1349
312.491	0.1343
312.837	0.1346
313.182	0.1335
313.527	0.1327
313.872	0.1329
314.216	0.1322
314.561	0.1321
314.906	0.1325
315.251	0.1325
315.595	0.1325
315.94	0.1318
316.284	0.1318
316.628	0.1326
316.972	0.1338
317.317	0.1325
317.661	0.1332
318.005	0.1334
318.348	0.133
318.692	0.1334
319.036	0.1342
319.38	0.1343
319.723	0.1341
320.067	0.1358
320.41	0.1358
320.754	0.1369
321.097	0.1363
321.44	0.1376
321.783	0.1385
322.126	0.1397
322.469	0.1397
322.812	0.1407
323.155	0.1411
323.498	0.1431
323.84	0.1428
324.183	0.1438
324.525	0.145
324.868	0.1473
325.21	0.1469
325.552	0.1477
325.894	0.1487
326.236	0.1488
326.578	0.1503
326.92	0.1513
327.262	0.152
327.604	0.153
327.946	0.1545
328.287	0.1552
328.629	0.1564
328.97	0.1576
329.312	0.1582
329.653	0.1599
329.994	0.1614
330.335	0.1623
330.676	0.1636
331.017	0.1642
331.358	0.1654
331.699	0.1666
332.04	0.1679
332.38	0.169
332.721	0.17
333.061	0.1707
333.402	0.1727
333.742	0.1729
334.083	0.1741
334.423	0.1749
334.763	0.1764
335.103	0.1771
335.443	0.1785
335.783	0.1796
336.123	0.18
336.462	0.1802
336.802	0.1818
337.141	0.1827
337.481	0.1834
337.82	0.1849
338.16	0.1851
338.499	0.1869
338.838	0.1876
339.177	0.1883
339.516	0.1892
339.855	0.1902
340.194	0.1909
340.533	0.1912
340.872	0.192
341.21	0.193
341.549	0.1935
341.887	0.1949
342.226	0.194
342.564	0.1946
342.902	0.1951
343.24	0.1962
343.578	0.1962
343.916	0.1962
344.254	0.197
344.592	0.197
344.93	0.1979
345.268	0.197
345.605	0.1975
345.943	0.1976
346.28	0.1975
346.618	0.1977
346.955	0.1984
347.292	0.1992
347.629	0.1987
347.966	0.1976
348.303	0.1984
348.64	0.1986
348.977	0.1988
349.314	0.1983
349.65	0.1977
349.987	0.1975
350.324	0.1978
350.66	0.1987
350.996	0.1978
351.333	0.1969
351.669	0.1967
352.005	0.1969
352.341	0.1957
352.677	0.1951
353.013	0.1942
353.349	0.193
353.685	0.193
354.02	0.1924
354.356	0.1917
354.691	0.1905
355.027	0.1899
355.362	0.1888
355.697	0.1882
356.033	0.1875
356.368	0.187
356.703	0.1862
357.038	0.1858
357.373	0.1838
357.707	0.1839
358.042	0.1825
358.377	0.1821
358.711	0.1826
359.046	0.1803
359.38	0.1799
359.715	0.179
360.049	0.1781
360.383	0.1769
360.717	0.1753
361.051	0.1743
361.385	0.1739
361.719	0.1726
362.053	0.1721
362.387	0.1701
362.72	0.1678
363.054	0.1672
363.387	0.166
363.721	0.1649
364.054	0.163
364.387	0.1621
364.721	0.1605
365.054	0.1592
365.387	0.1575
365.72	0.1573
366.053	0.1553
366.385	0.1537
366.718	0.1528
367.051	0.1514
367.383	0.1508
367.716	0.1505
368.048	0.1487
368.381	0.1482
368.713	0.1464
369.045	0.1463
369.377	0.1454
369.709	0.1441
370.041	0.1428
370.373	0.1412
370.705	0.1399
371.037	0.1391
371.368	0.1378
371.7	0.1363
372.031	0.1351
372.363	0.134
372.694	0.1325
373.025	0.1308
373.356	0.1292
373.688	0.1281
374.019	0.126
374.35	0.1247
374.68	0.1231
375.011	0.1214
375.342	0.1206
375.673	0.1193
376.003	0.1171
376.334	0.1163
376.664	0.114
376.995	0.1127
377.325	0.1122
377.655	0.1102
377.985	0.1088
378.315	0.1084
378.645	0.1072
378.975	0.1066
379.305	0.1046
379.635	0.1044
379.964	0.1031
380.294	0.1026
380.623	0.1006
380.953	0.0998
381.282	0.0995
381.611	0.0984
381.941	0.0976
382.27	0.0961
382.599	0.0956
382.928	0.0939
383.257	0.0931
383.585	0.0919
383.914	0.0899
384.243	0.089
384.571	0.0876
384.9	0.0869
385.228	0.0851
385.557	0.0842
385.885	0.0825
386.213	0.0815
386.541	0.0807
386.869	0.0788
387.197	0.078
387.525	0.0766
387.853	0.0751
388.181	0.0743
388.508	0.0733
388.836	0.0719
389.164	0.071
389.491	0.0698
389.818	0.0687
390.146	0.0688
390.473	0.0675
390.8	0.0668
391.127	0.0648
391.454	0.0644
391.781	0.0642
392.108	0.0638
392.435	0.0619
392.761	0.0615
393.088	0.0607
393.415	0.0607
393.741	0.0599
394.067	0.0598
394.394	0.059
394.72	0.0576
395.046	0.0565
395.372	0.0562
395.698	0.0556
396.024	0.0543
396.35	0.0542
396.676	0.0535
397.001	0.0524
397.327	0.0518
397.653	0.0515
397.978	0.0505
398.303	0.05
398.629	0.0495
398.954	0.0485
399.279	0.0484
399.604	0.0477
399.929	0.0472
400.254	0.0458
400.579	0.0456
400.904	0.0447
401.229	0.0441
401.553	0.0444
401.878	0.0439
402.202	0.0439
402.527	0.0428
402.851	0.043
403.175	0.0414
403.5	0.0419
403.824	0.0411
404.148	0.0414
404.472	0.0407
404.796	0.0408
405.119	0.0399
405.443	0.0402
405.767	0.0395
406.09	0.0399
406.414	0.0392
406.737	0.0396
407.061	0.0392
407.384	0.0389
407.707	0.0384
408.03	0.0376
408.353	0.0382
408.676	0.038
408.999	0.0379
409.322	0.0374
409.645	0.037
409.968	0.0375
410.29	0.0373
410.613	0.0377
410.935	0.036
411.258	0.0373
411.58	0.0362
411.902	0.0365
412.224	0.0368
412.546	0.037
412.868	0.0377
413.19	0.0363
413.512	0.0367
413.834	0.0364
414.156	0.0369
414.477	0.0355
414.799	0.0367
415.121	0.035
415.442	0.0363
415.763	0.0356
416.085	0.0363
416.406	0.0352
416.727	0.0362
417.048	0.0371
417.369	0.0364
417.69	0.0358
418.011	0.0357
418.331	0.0362
418.652	0.0359
418.973	0.0355
419.293	0.0359
419.614	0.0353
419.934	0.037
420.254	0.0358
420.574	0.0349
420.895	0.0352
421.215	0.0358
421.535	0.0359
421.855	0.0351
422.174	0.0348
422.494	0.0352
422.814	0.0349
423.134	0.0357
423.453	0.0351
423.773	0.0361
424.092	0.0359
424.411	0.036
424.731	0.0353
425.05	0.0357
425.369	0.0357
425.688	0.036
426.007	0.0354
426.326	0.0353
426.644	0.0352
426.963	0.0349
427.282	0.0357
427.6	0.0351
427.919	0.0359
428.237	0.0359
428.556	0.0359
428.874	0.0353
429.192	0.0356
429.51	0.0348
429.828	0.0353
430.146	0.0354
430.464	0.035
430.782	0.0354
431.1	0.0349
431.418	0.0355
431.735	0.0351
432.053	0.0351
432.37	0.0349
432.688	0.035
433.005	0.0348
433.322	0.0362
433.639	0.0361
433.957	0.0353
434.274	0.036
434.591	0.0353
434.907	0.0349
435.224	0.0353
435.541	0.0357
435.858	0.0364
436.174	0.036
436.491	0.0354
436.807	0.035
437.124	0.0351
437.44	0.0349
437.756	0.0352
438.072	0.0343
438.388	0.0346
438.704	0.0346
439.02	0.0342
439.336	0.0347
439.652	0.0351
439.968	0.035
440.283	0.0353
440.599	0.0358
440.914	0.0345
441.23	0.0345
441.545	0.0346
441.86	0.0351
442.175	0.0353
442.491	0.0347
442.806	0.0345
443.121	0.0343
443.435	0.0339
443.75	0.0336
444.065	0.0337
444.38	0.0338
444.694	0.0336
445.009	0.0336
445.323	0.0339
445.638	0.0337
445.952	0.0338
446.266	0.033
446.58	0.0328
446.894	0.0334
447.208	0.0327
447.522	0.0329
447.836	0.0337
448.15	0.0329
448.464	0.0322
448.777	0.0331
449.091	0.0326
449.404	0.0324
449.718	0.0324
450.031	0.0314
450.345	0.0322
450.658	0.0321
450.971	0.0323
451.284	0.0321
451.597	0.0323
451.91	0.0321
452.223	0.0313
452.535	0.0311
452.848	0.0314
453.161	0.0314
453.473	0.0313
453.786	0.0309
454.098	0.031
454.411	0.031
454.723	0.0313
455.035	0.03
455.347	0.0302
455.659	0.0308
455.971	0.0313
456.283	0.0311
456.595	0.0306
456.907	0.0308
457.218	0.0305
457.53	0.03
457.841	0.0293
458.153	0.0297
458.464	0.0296
458.776	0.0293
459.087	0.0299
459.398	0.0292
459.709	0.0289
460.02	0.03
460.331	0.0294
460.642	0.0296
460.953	0.0291
461.263	0.0286
461.574	0.0272
461.885	0.0285
462.195	0.0275
462.506	0.0287
462.816	0.0283
463.126	0.0281
463.437	0.0278
463.747	0.0271
464.057	0.0268
464.367	0.0264
464.677	0.0265
464.987	0.0264
465.296	0.0264
465.606	0.0264
465.916	0.0255
466.225	0.0256
466.535	0.0261
466.844	0.0264
467.154	0.0267
467.463	0.0259
467.772	0.0252
468.081	0.0254
468.39	0.0253
468.699	0.0255
469.008	0.0251
469.317	0.0249
469.626	0.0252
469.935	0.0246
470.243	0.0252
470.552	0.024
470.86	0.0246
471.169	0.0238
471.477	0.0234
471.785	0.0228
472.093	0.023
472.402	0.0231
472.71	0.0226
473.018	0.0223
473.326	0.0231
473.633	0.0225
473.941	0.022
474.249	0.0221
474.556	0.0221
474.864	0.0225
475.171	0.0222
475.479	0.0215
475.786	0.0221
476.094	0.0212
476.401	0.0213
476.708	0.0213
477.015	0.0209
477.322	0.0199
477.629	0.0196
477.936	0.0204
478.242	0.0192
478.549	0.0203
478.856	0.0194
479.162	0.0202
479.469	0.0196
479.775	0.0191
480.081	0.0185
480.388	0.0181
480.694	0.0187
481	0.0185
481.306	0.0177
481.612	0.0194
481.918	0.0194
482.224	0.0187
482.53	0.0182
482.835	0.0189
483.141	0.0182
483.446	0.0181
483.752	0.0176
484.057	0.0172
484.363	0.0169
484.668	0.0175
484.973	0.0161
485.278	0.016
485.583	0.0158
485.888	0.0166
486.193	0.0153
486.498	0.0159
486.803	0.0161
487.107	0.0152
487.412	0.0145
487.717	0.0151
488.021	0.0149
488.325	0.015
488.63	0.0151
488.934	0.015
489.238	0.0142
489.542	0.0143
489.846	0.014
490.15	0.0142
490.454	0.0152
490.758	0.0139
491.062	0.0144
491.366	0.0131
491.669	0.0139
491.973	0.0135
492.276	0.0133
492.58	0.0131
492.883	0.0124
493.186	0.0125
493.489	0.0127
493.792	0.0116
494.096	0.0117
494.399	0.0121
494.701	0.012
495.004	0.012
495.307	0.012
495.61	0.0119
495.912	0.0127
496.215	0.0116
496.517	0.0127
496.82	0.0112
497.122	0.0114
497.424	0.0119
497.727	0.011
498.029	0.0106
498.331	0.0106
498.633	0.0107
498.935	0.0099
499.237	0.0104
499.538	0.0103
499.84	0.01
500.142	0.0097
500.443	0.0104
500.745	0.0098
501.046	0.0092
501.348	0.0087
501.649	0.009
501.95	0.0087
502.251	0.0094
502.552	0.0084
502.853	0.0091
503.154	0.0097
503.455	0.0086
503.756	0.0094
504.057	0.0082
504.357	0.0089
504.658	0.0079
504.958	0.0088
505.259	0.0084
505.559	0.0071
505.859	0.0078
506.16	0.0078
506.46	0.0077
506.76	0.0074
507.06	0.0061
507.36	0.0065
507.66	0.0075
507.96	0.0085
508.259	0.0075
508.559	0.0069
508.859	0.0075
509.158	0.0069
509.457	0.0054
509.757	0.0066
510.056	0.0064
510.355	0.0061
510.655	0.0053
510.954	0.0066
511.253	0.0059
511.552	0.0069
511.851	0.006
512.149	0.0057
512.448	0.0062
512.747	0.006
513.045	0.0057
513.344	0.0056
513.642	0.0058
513.941	0.0049
514.239	0.0059
514.537	0.0053
514.836	0.0052
515.134	0.0058
515.432	0.0046
515.73	0.0049
516.028	0.0051
516.326	0.0049
516.623	0.0039
516.921	0.004
517.219	0.0058
517.516	0.004
517.814	0.0052
518.111	0.0048
518.409	0.0048
518.706	0.0049
519.003	0.0042
519.3	0.0042
519.597	0.0054
519.894	0.0038
520.191	0.0058
520.488	0.0052
520.785	0.0039
521.082	0.0048
521.378	0.0047
521.675	0.0038
521.971	0.0037
522.268	0.0046
522.564	0.0052
522.861	0.0046
523.157	0.0048
523.453	0.0052
523.749	0.0045
524.045	0.0031
524.341	0.0045
524.637	0.004
524.933	0.0047
525.229	0.0043
525.524	0.0043
525.82	0.0049
526.115	0.0045
526.411	0.0039
526.706	0.004
527.002	0.0038
527.297	0.0026
527.592	0.0042
527.887	0.0033
528.182	0.0032
528.477	0.004
528.772	0.0024
529.067	0.0041
529.362	0.0039
529.657	0.0026
529.951	0.0031
530.246	0.0028
530.54	0.0033
530.835	0.0037
531.129	0.0039
531.423	0.0028
531.718	0.0031
532.012	0.0034
532.306	0.0031
532.6	0.0024
532.894	0.003
533.188	0.0028
533.482	0.0027
533.775	0.0029
534.069	0.0032
534.363	0.003
534.656	0.0021
534.95	0.0031
535.243	0.0033
535.536	0.0021
535.83	0.0021
536.123	0.0021
536.416	0.0026
536.709	0.0034
537.002	0.0033
537.295	0.0031
537.588	0.0039
537.881	0.0021
538.173	0.0027
538.466	0.0028
538.759	0.003
539.051	0.0033
539.344	0.0033
539.636	0.0032
539.928	0.0042
540.22	0.0021
540.513	0.0027
540.805	0.0034
541.097	0.0034
541.389	0.0024
541.681	0.0036
541.972	0.0025
542.264	0.004
542.556	0.0034
542.847	0.0037
543.139	0.0036
543.431	0.0027
543.722	0.0022
544.013	0.0037
544.305	0.0029
544.596	0.0037
544.887	0.0041
545.178	0.0041
545.469	0.0041
545.76	0.0041
546.051	0.0032
546.342	0.0038
546.632	0.0024
546.923	0.0038
547.214	0.0027
547.504	0.0042
547.795	0.0033
548.085	0.0027
548.375	0.0035
548.666	0.0035
548.956	0.0029
549.246	0.0044
549.536	0.0031
549.826	0.0041
550.116	0.0032
550.406	0.003
550.695	0.0046
550.985	0.003
551.275	0.0043
551.564	0.0038
551.854	0.0038
552.143	0.0031
552.433	0.004
552.722	0.0037
553.011	0.0036
553.3	0.0044
553.589	0.004
553.879	0.0038
554.167	0.0026
554.456	0.0033
554.745	0.0037
555.034	0.0043
555.323	0.0027
555.611	0.0035
555.9	0.0035
556.188	0.0035
556.477	0.0028
556.765	0.0033
557.053	0.0034
557.342	0.0031
557.63	0.0021
557.918	0.0034
558.206	0.0041
558.494	0.004
558.782	0.0043
559.069	0.0047
559.357	0.0032
559.645	0.0035
559.932	0.0038
560.22	0.0035
560.507	0.0022
560.795	0.002
561.082	0.0024
561.37	0.0037
561.657	0.0032
561.944	0.003
562.231	0.0028
562.518	0.0034
562.805	0.0033
563.092	0.0028
563.379	0.0032
563.665	0.0042
563.952	0.0041
564.239	0.0045
564.525	0.0034
564.811	0.0036
565.098	0.0031
565.384	0.003
565.67	0.0037
565.957	0.0024
566.243	0.0034
566.529	0.0033
566.815	0.0037
567.101	0.0035
567.387	0.0027
567.672	0.0026
567.958	0.0023
568.244	0.002
568.529	0.0028
568.815	0.0025
569.1	0.0034
569.386	0.0038
569.671	0.0026
569.956	0.0033
570.242	0.0028
570.527	0.0024
570.812	0.0026
571.097	0.0025
571.382	0.0018
571.666	0.0016
571.951	0.0032
572.236	0.0024
572.521	0.0028
572.805	0.0043
573.09	0.0034
573.374	0.0024
573.659	0.0022
573.943	0.0029
574.227	0.0027
574.511	0.002
574.795	0.0033
575.079	0.0027
575.363	0.0027
575.647	0.0023
575.931	0.0032
576.215	0.003
576.499	0.0023
576.782	0.0018
577.066	0.0023
577.349	0.0033
577.633	0.004
577.916	0.0029
578.2	0.0033
578.483	0.0032
578.766	0.0034
579.049	0.0033
579.332	0.0029
579.615	0.0023
579.898	0.0019
580.181	0.0026
580.464	0.003
580.746	0.0032
581.029	0.003
581.312	0.0028
581.594	0.0018
581.877	0.0025
582.159	0.0036
582.441	0.0021
582.724	0.0031
583.006	0.0034
583.288	0.003
583.57	0.0028
583.852	0.0032
584.134	0.004
584.416	0.0027
584.697	0.0032
584.979	0.0024
585.261	0.0022
585.542	0.0024
585.824	0.0027
586.105	0.0031
586.387	0.003
586.668	0.0028
586.949	0.0041
587.231	0.0035
587.512	0.0031
587.793	0.0025
588.074	0.0028
588.355	0.0034
588.636	0.0024
588.916	0.0031
589.197	0.0019
589.478	0.0026
589.758	0.0026
590.039	0.0018
590.319	0.0017
590.6	0.0015
590.88	0.0019
591.16	0.0022
591.441	0.0027
591.721	0.0022
592.001	0.0022
592.281	0.0026
592.561	0.0035
592.841	0.0023
593.12	0.0025
593.4	0.0026
593.68	0.0028
593.959	0.0025
594.239	0.0032
594.518	0.0036
594.798	0.0034
595.077	0.0022
595.356	0.0025
595.636	0.0022
595.915	0.0026
596.194	0.0032
596.473	0.0027
596.752	0.003
597.031	0.0034
597.31	0.0029
597.588	0.0016
597.867	0.0019
598.146	0.0014
598.424	0.0017
598.703	0.0022
598.981	0.0017
599.259	0.0013
599.538	0.0024
599.816	0.0033
600.094	0.0029
600.372	0.0026
600.65	0.0029
600.928	0.0034
601.206	0.0025
601.484	0.002
601.762	0.0035
602.04	0.0036
602.317	0.0021
602.595	0.0041
602.872	0.0026
603.15	0.0038
603.427	0.0017
603.704	0.0016
603.982	0.0016
604.259	0.0013
604.536	0.0024
604.813	0.0019
605.09	0.0026
605.367	0.0022
605.644	0.0017
605.921	0.0019
606.197	0.0007
606.474	0.0023
606.751	0.0025
607.027	0.0023
607.304	0.0022
607.58	0.0024
607.856	0.003
608.133	0.0036
608.409	0.0037
608.685	0.0031
608.961	0.0031
609.237	0.0032
609.513	0.0039
609.789	0.0024
610.065	0.0031
610.341	0.002
610.616	0.002
610.892	0.0026
611.167	0.0026
611.443	0.003
611.718	0.0034
611.994	0.0029
612.269	0.0016
612.544	0.0023
612.819	0.0018
613.095	0.0021
613.37	0.0016
613.645	0.001
613.919	0.0027
614.194	0.0023
614.469	0.0025
614.744	0.0022
615.019	0.0014
615.293	0.0019
615.568	0.0017
615.842	0.0015
616.116	0.0006
616.391	0.0011
616.665	0.0002
616.939	0.0003
617.213	0.0005
617.488	0.0008
617.762	0.001
618.035	0.0032
618.309	0.0011
618.583	0.0018
618.857	0.0025
619.131	0.0027
619.404	0.0025
619.678	0.0027
619.951	0.0031
620.225	0.0015
620.498	0.0013
620.771	0.0018
621.045	0.0015
621.318	0.0031
621.591	0.0024
621.864	0.0015
622.137	0.0008
622.41	0.0012
622.683	0.0012
622.956	0.0003
623.228	0.0013
623.501	0.0016
623.774	0.0023
624.046	0.0015
624.319	0.0018
624.591	0.0012
624.863	0.0022
625.136	0.0028
625.408	0.003
625.68	0.0027
625.952	0.0023
626.224	0.0031
626.496	0.0021
626.768	0.0026
627.04	0.0022
627.311	0.0014
627.583	0.0026
627.855	0.0026
628.126	0.0006
628.398	0.0023
628.669	0.0008
628.941	0.0005
629.212	0.0002
629.483	0.0009
629.755	0.0004
630.026	0.0001
630.297	0.0016
630.568	0.0018
630.839	0.0018
631.11	0.0014
631.38	0.0017
631.651	0.0019
631.922	0.0023
632.192	0.0013
632.463	0.0012
632.733	0.0001
633.004	0.0004
633.274	0.0003
633.545	0.0002
633.815	0.0011
634.085	0.0011
634.355	0.0004
634.625	0.0014
634.895	0.0017
635.165	0.0009
635.435	0.0025
635.705	0.0027
635.974	0.0015
636.244	0.0004
636.514	0.0008
636.783	0.0002
637.053	0.0007
637.322	0.0009
637.591	0.0005
637.861	-0.0002
638.13	-0.0001
638.399	0.0028
638.668	0.0009
638.937	0.0018
639.206	0.0023
639.475	0.0024
639.744	0.0018
640.013	0.0016
640.281	0.0018
640.55	0.0021
640.819	0.0015
641.087	0.0011
641.356	0.001
641.624	0.0012
641.892	0.0009
642.161	0.0014
642.429	0.0017
642.697	0.0014
642.965	0.0012
643.233	-0.0007
643.501	-0.0001
643.769	0.0005
644.037	-0.0005
644.305	0.0004
644.572	0.0005
644.84	-0
645.108	0.0008
645.375	0.0011
645.643	0.001
645.91	0.0007
646.177	0.0017
646.445	0.0011
646.712	0.0017
646.979	0.0007
647.246	0.0019
647.513	0.0014
647.78	0.0018
648.047	-0.0005
648.314	-0.0014
648.58	-0.0006
648.847	-0.0014
649.114	-0.0022
649.38	-0.0014
649.647	-0.0016
649.913	-0.0007
650.18	0.0005
650.446	0.0013
650.712	0.002
650.978	0.0022
651.245	0.0024
651.511	0.0026
651.777	0.0023
652.043	0.0011
652.309	0.0017
652.574	0.0008
652.84	0.0017
653.106	0.0023
653.371	0.0028
653.637	0.0021
653.903	0.0024
654.168	0.0018
654.433	0.0015
654.699	0.0007
654.964	-0.0004
655.229	-0
655.494	0.0009
655.759	0.0007
656.024	0
656.289	-0
656.554	0.0018
656.819	0.0024
657.084	0.002
657.349	0.0022
657.613	0.0014
657.878	0.0004
658.142	0.0004
658.407	0.0009
658.671	0.0012
658.936	0.0012
659.2	0.0016
659.464	0.0017
659.728	0.0012
659.992	-0.0001
660.256	-0.0016
660.52	-0.0003
660.784	0.0001
661.048	0.0003
661.312	-0.0006
661.575	0.0006
661.839	0.0017
662.103	0.0003
662.366	0.0005
662.63	0.0005
662.893	-0.0004
663.156	0.0008
663.42	0.0024
663.683	0.001
663.946	0.0015
664.209	0.002
664.472	0.0018
664.735	0.0018
664.998	0.0019
665.261	0.0023
665.524	0.002
665.786	0.0019
666.049	0.0015
666.312	0.0018
666.574	0.0015
666.837	0.0028
667.099	0.0018
667.361	0.0041
667.624	0.0024
667.886	0.0028
668.148	0.0018
668.41	0.0019
668.672	0.0022
668.934	0.0021
669.196	0.0014
669.458	0.0007
669.72	0.0005
669.982	0.001
670.243	0.0006
670.505	0.0016
670.766	0.0007
671.028	0.0011
671.289	0.0017
671.551	0.002
671.812	0.0008
672.073	0.0009
672.334	0.0016
672.596	0.0004
672.857	0.0013
673.118	0.002
673.379	0.0023
673.639	0.0032
673.9	0.0023
674.161	0.0022
674.422	0.0015
674.682	0.0009
674.943	0.0005
675.203	0.0006
675.464	0.0006
675.724	0.0011
675.985	0.0015
676.245	0.0014
676.505	-0.0005
676.765	-0
677.025	0.0007
677.285	-0.0003
677.545	0.0005
677.805	0.0004
678.065	0.0011
678.325	0.0013
678.585	0.0028
678.844	0.0026
679.104	0.0028
679.363	0.0036
679.623	0.0036
679.882	0.0044
680.142	0.0042
680.401	0.0043
680.66	0.0046
680.919	0.003
681.178	0.0035
681.437	0.0026
681.696	0.0025
681.955	0.0046
682.214	0.0043
682.473	0.0048
682.732	0.0022
682.99	0.0041
683.249	0.0048
683.508	0.0041
683.766	0.0039
684.024	0.0027
684.283	0.0013
684.541	0.0017
684.799	0.0008
685.058	-0.0011
685.316	-0.0002
685.574	-0.0013
685.832	0.0002
686.09	-0.0006
686.348	-0.0005
686.606	-0.0014
686.863	-0.002
687.121	-0.0014
687.379	-0.0022
687.636	-0.0023
687.894	-0.002
688.151	-0.0023
688.409	-0.001
688.666	-0.001
688.923	-0.0004
689.181	-0.0005
689.438	-0.0013
689.695	-0.0001
689.952	-0.0003
690.209	-0.0008
690.466	-0.0005
690.723	-0.0006
690.979	-0.0006
691.236	-0.0011
691.493	-0.0022
691.75	-0.0014
692.006	-0.0009
692.263	-0.0014
692.519	-0.0006
692.775	-0.0018
693.032	-0.0022
693.288	-0.0034
693.544	-0.0017
693.8	-0.0009
694.056	-0.0019
694.313	-0.002
694.568	-0.0005
694.824	-0.0005
695.08	-0.001
695.336	-0.0001
695.592	-0.0001
695.847	0.0011
696.103	0.0023
696.359	0.0023
696.614	0.0019
696.869	0.0004
697.125	-0.001
697.38	-0.0011
697.635	-0
697.891	0.0008
698.146	0.0003
698.401	0.0001
698.656	0.0002
698.911	0.0011
699.166	0.0008
699.42	0.0015
699.675	0.0021
699.93	0.0024
700.185	0.0027
700.439	0.0019
700.694	0.0018
700.948	0.0018
701.203	0.0018
701.457	0.0011
701.711	0.0012
701.965	-0.0001
702.22	-0.0003
702.474	-0.0001
702.728	0.0002
702.982	0.0002
703.236	-0.0001
703.49	0.0005
703.743	-0.0012
703.997	-0
704.251	-0.0004
704.504	0.0008
704.758	0.0008
705.012	0.0019
705.265	0.0022
705.518	0.0019
705.772	0.0018
706.025	0.0024
706.278	0.0015
706.531	0.0013
706.785	-0.0006
707.038	-0.0008
707.291	-0.0002
707.543	-0.0004
707.796	-0.0001
708.049	0.0004
708.302	-0.0001
708.555	-0.0003
708.807	0.0005
709.06	0.0005
709.312	0.0018
709.565	0.0015
709.817	0.003
710.069	0.0012
710.322	0.0032
710.574	0.0023
710.826	0.0019
711.078	0.002
711.33	0.0013
711.582	0.0016
711.834	0.001
712.086	0.0015
712.338	0.0012
712.59	0.0005
712.841	-0.0002
713.093	0.0001
713.344	0
713.596	-0.0006
713.847	-0.0013
714.099	-0.0021
714.35	-0.001
714.601	-0.0017
714.853	-0.0026
715.104	-0.002
715.355	-0.0022
715.606	-0.0002
715.857	-0
716.108	0.0002
716.359	0.0004
716.609	-0.0002
716.86	0.0017
717.111	0.0001
717.361	-0.0001
717.612	0.0006
717.863	0.0014
718.113	0.0016
718.363	0.0013
718.614	0.0015
718.864	0.0018
719.114	0.0011
719.364	0.0001
719.614	0.0001
719.865	0.0002
720.114	0.0005
720.364	0.0004
720.614	0.0003
720.864	-0.0006
721.114	-0.0018
721.364	-0.0011
721.613	-0.0015
721.863	-0.0013
722.112	-0.0015
722.362	-0.0009
722.611	0.0006
722.86	0.0004
723.11	0.0023
723.359	0.0011
723.608	0.002
723.857	0.0044
724.106	0.0026
724.355	0.0015
724.604	0.0011
724.853	0.0005
725.102	-0.0007
725.351	-0.0019
725.599	-0.0032
725.848	-0.0027
726.097	-0.0011
726.345	-0.0014
726.594	-0.0007
726.842	-0.0001
727.09	-0.0012
727.339	-0.0008
727.587	-0.0017
727.835	-0.0025
728.083	-0.003
728.331	-0.0029
728.579	-0.0015
728.827	-0.0028
729.075	-0.0031
729.323	-0.0029
729.571	-0.0031
729.818	-0.0034
730.066	-0.0028
730.314	-0.0021
730.561	-0.0026
730.809	-0.0032
731.056	-0.0027
731.303	-0.0033
731.551	-0.0023
731.798	-0.0026
732.045	-0.0013
732.292	-0.0019
732.539	-0.0018
732.786	-0.0028
733.033	-0.0028
733.28	-0.0018
733.527	-0.0026
733.774	-0.0032
734.021	-0.0026
734.267	-0.0012
734.514	-0.0027
734.76	-0.0026
735.007	-0.0018
735.253	-0.0006
735.5	0.0009
735.746	0.002
735.992	0.0016
736.238	0.0019
736.485	0.0012
736.731	0.0015
736.977	0.0004
737.223	-0.0003
737.469	-0.0004
737.715	0.0006
737.96	0
738.206	0
738.452	0.0005
738.697	-0.0004
738.943	-0.0013
739.189	-0.0001
739.434	-0.0011
739.679	-0.0001
739.925	0.0019
740.17	0.0025
740.415	0.002
740.66	0.0016
740.906	0.0013
741.151	0.0008
741.396	0.0004
741.641	0.0001
741.886	0.0008
742.13	0.0004
742.375	0.0013
742.62	-0.0001
742.865	0.0003
743.109	0.0006
743.354	-0.0006
743.598	-0.0012
743.843	-0.0025
744.087	-0.0028
744.331	-0.0022
744.576	-0.0021
744.82	-0.0009
745.064	-0.0004
745.308	-0.0011
745.552	-0.0004
745.796	-0.0017
746.04	-0.0012
746.284	-0.0018
746.528	-0.0009
746.771	-0.0014
747.015	-0.0015
747.259	-0.0021
747.502	-0.0026
747.746	-0.002
747.989	-0.0015
748.233	0.0003
748.476	0.0002
748.719	-0.0001
748.963	-0
749.206	-0.0002
749.449	-0.0003
749.692	-0.0007
749.935	-0.0005
750.178	-0.0009
750.421	-0.0006
750.664	-0
750.906	-0.0001
751.149	-0.001
751.392	-0.0012
751.635	-0.0012
751.877	-0.0006
752.12	-0.0008
752.362	0
752.604	0.0003
752.847	-0.0006
753.089	-0.0013
753.331	-0.0014
753.573	-0.0011
753.816	-0.001
754.058	-0.0005
754.3	0.0005
754.542	0.0005
754.783	0.0003
755.025	0.0015
755.267	0.0003
755.509	0.001
755.75	-0.0006
755.992	0.0001
756.234	0.0006
756.475	0.0002
756.716	0.0001
756.958	-0.0007
757.199	-0.0004
757.44	-0.0002
757.682	-0.0004
757.923	0.0005
758.164	0.0006
758.405	0
758.646	0.0001
758.887	-0.0015
759.128	-0.0007
759.369	-0.002
759.609	-0.0014
759.85	-0.0011
760.091	-0.0005
760.331	-0.0007
760.572	-0.0001
760.812	-0.0009
761.053	-0.0003
761.293	-0.0004
761.533	0.0013
761.774	0.0005
762.014	0.0005
762.254	0.0007
762.494	0.0012
762.734	0.0008
762.974	0.0009
763.214	0.0008
763.454	0.0017
763.694	0.0009
763.933	0.0026
764.173	0.0037
764.413	0.0032
764.652	0.0016
764.892	0.001
765.131	0.0004
765.371	-0.0002
765.61	-0.0008
765.849	-0.0018
766.089	-0.002
766.328	-0.0019
766.567	-0.0034
766.806	-0.0024
767.045	-0.0034
767.284	-0.0026
767.523	-0.0031
767.762	-0.0031
768.001	-0.0022
768.239	-0.0018
768.478	-0.002
768.717	-0.003
768.955	-0.0026
769.194	-0.0019
769.432	-0.002
769.671	-0.002
769.909	-0.0015
770.148	-0.0019
770.386	-0.0024
770.624	-0.0014
770.862	-0.0014
771.1	-0.0028
771.338	-0.0023
771.576	-0.0012
771.814	-0.0003
772.052	-0.0005
772.29	0.0006
772.528	-0.0005
772.765	-0.0016
773.003	-0.0007
773.24	-0.0005
773.478	-0.0003
773.716	0.0012
773.953	0.001
774.19	0.0015
774.428	0.0023
774.665	0.0031
774.902	0.0031
775.139	0.002
775.376	0.0005
775.613	0.0006
775.85	0.001
776.087	0.0014
776.324	0.0002
776.561	-0.0009
776.798	-0.0007
777.034	-0.0014
777.271	-0.0011
777.508	-0.0004
777.744	0.0001
777.981	-0.0001
778.217	-0.0013
778.454	-0.002
778.69	-0.0016
778.926	-0.0016
779.162	-0.0013
779.399	-0.0007
779.635	-0.0008
779.871	-0.0011
780.107	-0.0017
780.343	-0.0027
780.579	-0.0011
780.814	-0.0012
781.05	-0.0011
781.286	-0.0017
781.522	-0.0021
781.757	-0.0021
781.993	-0.0017
782.228	-0.002
782.464	-0.0012
782.699	-0.0009
782.934	-0.001
783.17	-0.001
783.405	-0.0004
783.64	-0.0012
783.875	-0.0018
784.11	-0.0027
784.345	-0.0006
784.58	-0.0007
784.815	-0.0011
785.05	-0.0017
785.285	-0.002
785.52	-0.0002
785.754	-0.0008
785.989	-0.0004
786.223	0.0003
786.458	0.0014
786.692	0.0022
786.927	0.0041
787.161	0.0033
787.396	0.0038
787.63	0.0032
787.864	0.0016
788.098	-0.0004
788.332	0
788.566	-0.0008
788.8	-0.0011
789.034	-0.0004
789.268	-0.0013
789.502	-0.0019
789.736	-0.0011
789.969	-0.0003
790.203	-0.0001
790.437	0.0002
790.67	-0.0001
790.904	0.0012
791.137	0.0018
791.37	0.0016
791.604	0.0013
791.837	0.0025
792.07	0.0027
792.303	0.003
792.537	0.0032
792.77	0.003
793.003	0.0022
793.236	0.0017
793.469	0.0025
793.701	0.0013
793.934	0.0011
794.167	0.0005
794.4	-0.0005
794.632	-0.0003
794.865	-0.001
795.097	-0.0014
795.33	-0.0011
795.562	-0.0013
795.795	-0.001
796.027	-0.0007
796.259	0.0004
796.491	-0
796.724	0.0009
796.956	0
797.188	0.0007
797.42	0.0001
797.652	0.0009
797.883	0.0009
798.115	0.0018
798.347	0.0023
798.579	0.0016
798.81	0.0015
799.042	0.0024
799.274	0.0029
799.505	0.0026
799.737	0.0024
799.968	0.0018
800.199	0.0016
800.431	0.0029
800.662	0.0018
800.893	0.0013
801.124	0.0012
801.355	0.0021
801.586	0.0025
801.817	0.0039
802.048	0.0041
802.279	0.0034
802.51	0.003
802.741	0.0042
802.971	0.0034
803.202	0.0023
803.433	0.002
803.663	0.0028
803.894	0.0021
804.124	0.0031
804.354	0.0035
804.585	0.0051
804.815	0.0045
805.045	0.0062
805.275	0.0049
805.506	0.052
805.736	-0.1413
805.966	-0.3889
806.196	-0.2148
