Data from 03 0.4 mM K2Cr2O7 0.25 M BQDS 1 M H2SO4 5 min_Absorbance_0121.txt Node
Date: Wed Dec 15 03:35:12 EST 2021
User: kwabilab-user
Spectrometer: HDX00518
Trigger mode: 0
Integration Time (sec): 5.000000E-2
Scans to average: 50
Nonlinearity correction enabled: false
Boxcar width: 0
Storing dark spectrum: false
XAxis mode: Wavelengths
Number of Pixels in Spectrum: 2068
>>>>>Begin Spectral Data<<<<<
195.27	-0.098
195.642	0.3298
196.014	0.0155
196.386	0.21
196.758	-0.1149
197.129	-0.0212
197.501	-0.0157
197.872	0.0094
198.244	0.0102
198.615	0.0482
198.986	0.0104
199.357	0.0155
199.728	0.0286
200.099	0.0114
200.47	0.0151
200.841	0.0239
201.212	0.0194
201.582	0.0177
201.953	0.0194
202.323	0.0209
202.694	0.017
203.064	-0.0046
203.434	0.0018
203.804	0.0042
204.174	0.0151
204.544	0.0189
204.914	0.0007
205.284	-0.0002
205.653	0.0062
206.023	0.0216
206.393	0.0163
206.762	0.0026
207.131	0.024
207.501	0.0164
207.87	0.0133
208.239	0.0316
208.608	0.0127
208.977	0.0033
209.346	-0.0136
209.715	-0.0074
210.083	0.0025
210.452	0.018
210.82	0.0217
211.189	0.0024
211.557	0.0246
211.925	0.0133
212.294	0.0199
212.662	0.0252
213.03	0.0132
213.398	-0.0061
213.766	-0.0054
214.133	0.0062
214.501	0.0075
214.869	-0.0001
215.236	0.0036
215.604	0.0202
215.971	0.0353
216.338	0.0171
216.705	0.0281
217.072	0.0301
217.439	0.0175
217.806	0.0341
218.173	0.0542
218.54	0.0321
218.907	0.056
219.273	0.0474
219.64	0.0762
220.006	0.0799
220.373	0.0745
220.739	0.112
221.105	0.1232
221.471	0.1149
221.837	0.1491
222.203	0.1734
222.569	0.1739
222.935	0.1796
223.3	0.2052
223.666	0.2214
224.031	0.2505
224.397	0.2558
224.762	0.302
225.127	0.3337
225.493	0.3509
225.858	0.3756
226.223	0.3948
226.588	0.4054
226.952	0.4299
227.317	0.4749
227.682	0.4531
228.046	0.4547
228.411	0.5003
228.775	0.523
229.14	0.5228
229.504	0.5396
229.868	0.5485
230.232	0.5563
230.596	0.569
230.96	0.5745
231.324	0.593
231.688	0.5962
232.052	0.609
232.415	0.5932
232.779	0.6113
233.142	0.6234
233.505	0.6093
233.869	0.6152
234.232	0.6231
234.595	0.6092
234.958	0.6136
235.321	0.6108
235.684	0.621
236.047	0.6081
236.409	0.6106
236.772	0.5971
237.134	0.5994
237.497	0.6021
237.859	0.6116
238.222	0.6017
238.584	0.6006
238.946	0.595
239.308	0.5891
239.67	0.5886
240.032	0.5908
240.393	0.5757
240.755	0.5835
241.117	0.574
241.478	0.5756
241.84	0.577
242.201	0.5669
242.562	0.5621
242.924	0.5586
243.285	0.5564
243.646	0.5539
244.007	0.5551
244.368	0.5586
244.728	0.5456
245.089	0.5438
245.45	0.5405
245.81	0.5428
246.171	0.5379
246.531	0.5377
246.891	0.5367
247.252	0.5304
247.612	0.5327
247.972	0.5339
248.332	0.5311
248.692	0.5282
249.051	0.5288
249.411	0.5293
249.771	0.5275
250.13	0.5237
250.49	0.5221
250.849	0.5238
251.208	0.523
251.568	0.5234
251.927	0.5191
252.286	0.5284
252.645	0.5179
253.004	0.5232
253.363	0.5147
253.721	0.5138
254.08	0.5165
254.439	0.5169
254.797	0.5132
255.155	0.5161
255.514	0.514
255.872	0.5122
256.23	0.5123
256.588	0.5157
256.946	0.5122
257.304	0.5112
257.662	0.5143
258.02	0.5117
258.377	0.5091
258.735	0.5019
259.093	0.5089
259.45	0.5084
259.807	0.5072
260.165	0.5042
260.522	0.5081
260.879	0.4979
261.236	0.5002
261.593	0.498
261.95	0.4946
262.306	0.499
262.663	0.4996
263.02	0.4961
263.376	0.4885
263.733	0.4898
264.089	0.4938
264.445	0.4854
264.802	0.4823
265.158	0.4862
265.514	0.4832
265.87	0.48
266.226	0.48
266.581	0.4795
266.937	0.4781
267.293	0.4733
267.648	0.472
268.004	0.469
268.359	0.4674
268.714	0.4629
269.07	0.4615
269.425	0.4597
269.78	0.4591
270.135	0.4574
270.49	0.4517
270.844	0.4507
271.199	0.4455
271.554	0.4474
271.908	0.4448
272.263	0.4461
272.617	0.4393
272.972	0.435
273.326	0.4315
273.68	0.4267
274.034	0.4273
274.388	0.4228
274.742	0.4229
275.096	0.4186
275.45	0.4158
275.803	0.4151
276.157	0.403
276.51	0.4059
276.864	0.4029
277.217	0.3998
277.571	0.3994
277.924	0.3958
278.277	0.39
278.63	0.3877
278.983	0.3829
279.336	0.3798
279.688	0.3784
280.041	0.3716
280.394	0.366
280.746	0.3654
281.099	0.3624
281.451	0.3567
281.803	0.3545
282.156	0.3497
282.508	0.3451
282.86	0.3431
283.212	0.3394
283.564	0.3347
283.916	0.3326
284.267	0.3284
284.619	0.3262
284.971	0.3217
285.322	0.3198
285.673	0.3158
286.025	0.3104
286.376	0.3103
286.727	0.3024
287.078	0.3012
287.429	0.3008
287.78	0.2951
288.131	0.2917
288.482	0.2865
288.833	0.2839
289.183	0.2793
289.534	0.2785
289.884	0.2736
290.235	0.2698
290.585	0.2679
290.935	0.2636
291.285	0.2634
291.635	0.2574
291.985	0.2542
292.335	0.2524
292.685	0.248
293.035	0.2453
293.384	0.2414
293.734	0.2388
294.083	0.2351
294.433	0.2333
294.782	0.2298
295.131	0.2259
295.48	0.2238
295.829	0.2204
296.179	0.2181
296.527	0.2144
296.876	0.2119
297.225	0.2073
297.574	0.205
297.922	0.202
298.271	0.1992
298.619	0.1953
298.968	0.1939
299.316	0.1909
299.664	0.1892
300.012	0.1856
300.36	0.1827
300.708	0.1806
301.056	0.1777
301.404	0.1763
301.752	0.1734
302.099	0.1714
302.447	0.169
302.794	0.167
303.142	0.1642
303.489	0.162
303.836	0.1604
304.183	0.1584
304.531	0.1581
304.878	0.1547
305.224	0.1534
305.571	0.1518
305.918	0.1503
306.265	0.1475
306.611	0.1474
306.958	0.1466
307.304	0.1443
307.651	0.1433
307.997	0.1424
308.343	0.1405
308.689	0.1402
309.035	0.1397
309.381	0.1379
309.727	0.1364
310.073	0.1366
310.419	0.1354
310.764	0.1348
311.11	0.1333
311.455	0.1325
311.801	0.1321
312.146	0.1316
312.491	0.1301
312.837	0.1311
313.182	0.1299
313.527	0.1295
313.872	0.1302
314.216	0.1298
314.561	0.1298
314.906	0.1291
315.251	0.1293
315.595	0.1295
315.94	0.1296
316.284	0.1294
316.628	0.129
316.972	0.1296
317.317	0.1298
317.661	0.1304
318.005	0.1296
318.348	0.1303
318.692	0.1308
319.036	0.1305
319.38	0.1317
319.723	0.1316
320.067	0.1326
320.41	0.1334
320.754	0.134
321.097	0.1332
321.44	0.1346
321.783	0.1356
322.126	0.1366
322.469	0.1372
322.812	0.1371
323.155	0.1383
323.498	0.1388
323.84	0.1397
324.183	0.1404
324.525	0.142
324.868	0.1432
325.21	0.143
325.552	0.1443
325.894	0.1455
326.236	0.1456
326.578	0.1464
326.92	0.1477
327.262	0.1484
327.604	0.1498
327.946	0.1512
328.287	0.1516
328.629	0.1535
328.97	0.1538
329.312	0.1546
329.653	0.1566
329.994	0.1571
330.335	0.1584
330.676	0.1596
331.017	0.1611
331.358	0.1619
331.699	0.1632
332.04	0.164
332.38	0.1662
332.721	0.166
333.061	0.1673
333.402	0.1689
333.742	0.1691
334.083	0.1708
334.423	0.1716
334.763	0.1728
335.103	0.1736
335.443	0.1745
335.783	0.1758
336.123	0.1764
336.462	0.177
336.802	0.1779
337.141	0.1785
337.481	0.1803
337.82	0.1815
338.16	0.182
338.499	0.1832
338.838	0.1836
339.177	0.1842
339.516	0.1848
339.855	0.186
340.194	0.1865
340.533	0.1877
340.872	0.1879
341.21	0.1893
341.549	0.1896
341.887	0.1898
342.226	0.1902
342.564	0.1911
342.902	0.1914
343.24	0.1913
343.578	0.1919
343.916	0.1919
344.254	0.1931
344.592	0.1932
344.93	0.1936
345.268	0.1927
345.605	0.1939
345.943	0.1937
346.28	0.1941
346.618	0.1936
346.955	0.1943
347.292	0.1947
347.629	0.1946
347.966	0.1938
348.303	0.1942
348.64	0.1944
348.977	0.1942
349.314	0.195
349.65	0.1946
349.987	0.195
350.324	0.1934
350.66	0.1949
350.996	0.1943
351.333	0.1936
351.669	0.193
352.005	0.1932
352.341	0.1917
352.677	0.1917
353.013	0.1905
353.349	0.1906
353.685	0.1894
354.02	0.1878
354.356	0.1883
354.691	0.1867
355.027	0.1859
355.362	0.1853
355.697	0.1842
356.033	0.1844
356.368	0.1835
356.703	0.1829
357.038	0.1821
357.373	0.18
357.707	0.1805
358.042	0.1802
358.377	0.1788
358.711	0.1786
359.046	0.1774
359.38	0.1766
359.715	0.1753
360.049	0.1747
360.383	0.1744
360.717	0.1722
361.051	0.171
361.385	0.1709
361.719	0.1692
362.053	0.1684
362.387	0.1662
362.72	0.1658
363.054	0.165
363.387	0.1634
363.721	0.1622
364.054	0.1603
364.387	0.1596
364.721	0.1576
365.054	0.156
365.387	0.155
365.72	0.1541
366.053	0.153
366.385	0.1501
366.718	0.1506
367.051	0.1487
367.383	0.1483
367.716	0.1478
368.048	0.1458
368.381	0.1452
368.713	0.1447
369.045	0.1423
369.377	0.1421
369.709	0.1412
370.041	0.1398
370.373	0.139
370.705	0.1376
371.037	0.1362
371.368	0.1353
371.7	0.1336
372.031	0.1326
372.363	0.1309
372.694	0.1297
373.025	0.1284
373.356	0.1272
373.688	0.1253
374.019	0.1243
374.35	0.1226
374.68	0.121
375.011	0.1195
375.342	0.1184
375.673	0.1167
376.003	0.1143
376.334	0.114
376.664	0.1128
376.995	0.1112
377.325	0.1099
377.655	0.1084
377.985	0.1065
378.315	0.1056
378.645	0.1055
378.975	0.1045
379.305	0.1031
379.635	0.1025
379.964	0.1016
380.294	0.1006
380.623	0.0991
380.953	0.0984
381.282	0.0976
381.611	0.0961
381.941	0.0959
382.27	0.0944
382.599	0.0938
382.928	0.0923
383.257	0.0912
383.585	0.0895
383.914	0.0885
384.243	0.0872
384.571	0.0866
384.9	0.0855
385.228	0.0833
385.557	0.0827
385.885	0.0812
386.213	0.0804
386.541	0.0798
386.869	0.0781
387.197	0.0761
387.525	0.075
387.853	0.074
388.181	0.0729
388.508	0.0718
388.836	0.0711
389.164	0.0702
389.491	0.0688
389.818	0.0676
390.146	0.0675
390.473	0.066
390.8	0.0657
391.127	0.0641
391.454	0.0633
391.781	0.0631
392.108	0.0628
392.435	0.0612
392.761	0.0608
393.088	0.0604
393.415	0.0594
393.741	0.0593
394.067	0.0587
394.394	0.0579
394.72	0.0571
395.046	0.056
395.372	0.0554
395.698	0.0549
396.024	0.0537
396.35	0.0532
396.676	0.0525
397.001	0.0518
397.327	0.0514
397.653	0.0504
397.978	0.0499
398.303	0.0488
398.629	0.0485
398.954	0.0481
399.279	0.0479
399.604	0.047
399.929	0.0467
400.254	0.0453
400.579	0.0452
400.904	0.0446
401.229	0.0442
401.553	0.0436
401.878	0.0434
402.202	0.0433
402.527	0.0422
402.851	0.0429
403.175	0.041
403.5	0.0414
403.824	0.0403
404.148	0.0406
404.472	0.0403
404.796	0.0405
405.119	0.0398
405.443	0.0398
405.767	0.0391
406.09	0.0392
406.414	0.0388
406.737	0.0389
407.061	0.0388
407.384	0.0383
407.707	0.0385
408.03	0.0378
408.353	0.0375
408.676	0.0378
408.999	0.0375
409.322	0.0373
409.645	0.0367
409.968	0.0377
410.29	0.0365
410.613	0.0379
410.935	0.036
411.258	0.0367
411.58	0.0359
411.902	0.0363
412.224	0.0364
412.546	0.0365
412.868	0.037
413.19	0.0364
413.512	0.0358
413.834	0.0362
414.156	0.0367
414.477	0.0354
414.799	0.0364
415.121	0.0351
415.442	0.0354
415.763	0.0354
416.085	0.0361
416.406	0.0354
416.727	0.0359
417.048	0.0364
417.369	0.0357
417.69	0.0351
418.011	0.0356
418.331	0.0358
418.652	0.0357
418.973	0.035
419.293	0.0354
419.614	0.035
419.934	0.036
420.254	0.0355
420.574	0.0346
420.895	0.0348
421.215	0.0349
421.535	0.0359
421.855	0.0347
422.174	0.0343
422.494	0.0348
422.814	0.0349
423.134	0.035
423.453	0.035
423.773	0.0356
424.092	0.0355
424.411	0.0352
424.731	0.0359
425.05	0.0354
425.369	0.0352
425.688	0.0344
426.007	0.0354
426.326	0.0355
426.644	0.0351
426.963	0.0352
427.282	0.035
427.6	0.0357
427.919	0.0354
428.237	0.0356
428.556	0.0356
428.874	0.0351
429.192	0.0354
429.51	0.035
429.828	0.0354
430.146	0.0355
430.464	0.0349
430.782	0.0351
431.1	0.0339
431.418	0.0347
431.735	0.0344
432.053	0.0351
432.37	0.035
432.688	0.035
433.005	0.0342
433.322	0.0357
433.639	0.0351
433.957	0.0353
434.274	0.0357
434.591	0.0348
434.907	0.0352
435.224	0.0349
435.541	0.035
435.858	0.0357
436.174	0.0358
436.491	0.0349
436.807	0.0344
437.124	0.035
437.44	0.0346
437.756	0.0348
438.072	0.0343
438.388	0.0342
438.704	0.0343
439.02	0.0345
439.336	0.0336
439.652	0.0354
439.968	0.0347
440.283	0.0352
440.599	0.0346
440.914	0.0344
441.23	0.035
441.545	0.0346
441.86	0.035
442.175	0.0348
442.491	0.0341
442.806	0.0343
443.121	0.0339
443.435	0.0341
443.75	0.0335
444.065	0.0338
444.38	0.0338
444.694	0.0335
445.009	0.0336
445.323	0.0338
445.638	0.0339
445.952	0.0339
446.266	0.0334
446.58	0.0326
446.894	0.033
447.208	0.0328
447.522	0.0321
447.836	0.0329
448.15	0.033
448.464	0.0322
448.777	0.0323
449.091	0.0323
449.404	0.032
449.718	0.0323
450.031	0.0316
450.345	0.0314
450.658	0.0318
450.971	0.0316
451.284	0.0315
451.597	0.0322
451.91	0.0315
452.223	0.032
452.535	0.0311
452.848	0.0312
453.161	0.031
453.473	0.0315
453.786	0.0314
454.098	0.0315
454.411	0.0308
454.723	0.0312
455.035	0.0302
455.347	0.0303
455.659	0.0308
455.971	0.0307
456.283	0.0316
456.595	0.0311
456.907	0.0306
457.218	0.0312
457.53	0.03
457.841	0.0294
458.153	0.0295
458.464	0.0297
458.776	0.0299
459.087	0.0294
459.398	0.0293
459.709	0.0285
460.02	0.0304
460.331	0.0292
460.642	0.029
460.953	0.0285
461.263	0.0287
461.574	0.028
461.885	0.0289
462.195	0.027
462.506	0.0282
462.816	0.0287
463.126	0.0278
463.437	0.0271
463.747	0.0269
464.057	0.0264
464.367	0.026
464.677	0.0268
464.987	0.0272
465.296	0.0259
465.606	0.0263
465.916	0.0255
466.225	0.0259
466.535	0.0264
466.844	0.0265
467.154	0.0268
467.463	0.0259
467.772	0.0248
468.081	0.0257
468.39	0.0255
468.699	0.025
469.008	0.025
469.317	0.025
469.626	0.025
469.935	0.0246
470.243	0.0247
470.552	0.0243
470.86	0.024
471.169	0.0231
471.477	0.0233
471.785	0.023
472.093	0.023
472.402	0.0226
472.71	0.0231
473.018	0.0215
473.326	0.0223
473.633	0.0228
473.941	0.0222
474.249	0.0226
474.556	0.022
474.864	0.0219
475.171	0.0223
475.479	0.0218
475.786	0.0221
476.094	0.0217
476.401	0.0207
476.708	0.0209
477.015	0.0212
477.322	0.02
477.629	0.0192
477.936	0.0205
478.242	0.0196
478.549	0.0204
478.856	0.0204
479.162	0.0196
479.469	0.0192
479.775	0.0193
480.081	0.0184
480.388	0.0178
480.694	0.0184
481	0.0184
481.306	0.019
481.612	0.0188
481.918	0.019
482.224	0.0187
482.53	0.0183
482.835	0.0183
483.141	0.0184
483.446	0.0177
483.752	0.0166
484.057	0.017
484.363	0.0172
484.668	0.0164
484.973	0.0164
485.278	0.0153
485.583	0.0158
485.888	0.0165
486.193	0.0157
486.498	0.0165
486.803	0.0157
487.107	0.015
487.412	0.0144
487.717	0.0151
488.021	0.0158
488.325	0.0147
488.63	0.015
488.934	0.0157
489.238	0.0151
489.542	0.015
489.846	0.0143
490.15	0.0143
490.454	0.0146
490.758	0.0141
491.062	0.0139
491.366	0.0135
491.669	0.0137
491.973	0.0134
492.276	0.013
492.58	0.0131
492.883	0.0131
493.186	0.0131
493.489	0.0138
493.792	0.0121
494.096	0.0125
494.399	0.0126
494.701	0.0126
495.004	0.0111
495.307	0.0124
495.61	0.0115
495.912	0.0127
496.215	0.0124
496.517	0.0121
496.82	0.0111
497.122	0.0118
497.424	0.0115
497.727	0.0107
498.029	0.0103
498.331	0.0104
498.633	0.0101
498.935	0.0101
499.237	0.0113
499.538	0.0102
499.84	0.011
500.142	0.0095
500.443	0.0107
500.745	0.01
501.046	0.0101
501.348	0.0093
501.649	0.0093
501.95	0.0102
502.251	0.0096
502.552	0.0091
502.853	0.0088
503.154	0.0099
503.455	0.0076
503.756	0.0099
504.057	0.0081
504.357	0.0088
504.658	0.0088
504.958	0.0079
505.259	0.0093
505.559	0.0073
505.859	0.0079
506.16	0.0073
506.46	0.0085
506.76	0.0076
507.06	0.0071
507.36	0.0076
507.66	0.0077
507.96	0.0094
508.259	0.0068
508.559	0.0077
508.859	0.0076
509.158	0.0075
509.457	0.0071
509.757	0.0063
510.056	0.0063
510.355	0.0064
510.655	0.0064
510.954	0.0058
511.253	0.0069
511.552	0.0066
511.851	0.0072
512.149	0.0067
512.448	0.0059
512.747	0.0069
513.045	0.0057
513.344	0.0059
513.642	0.0058
513.941	0.0061
514.239	0.0057
514.537	0.0049
514.836	0.0065
515.134	0.0061
515.432	0.0054
515.73	0.0053
516.028	0.0055
516.326	0.0043
516.623	0.0042
516.921	0.0055
517.219	0.0058
517.516	0.0045
517.814	0.0058
518.111	0.0051
518.409	0.0056
518.706	0.0051
519.003	0.0044
519.3	0.005
519.597	0.0045
519.894	0.0038
520.191	0.006
520.488	0.0063
520.785	0.0046
521.082	0.0053
521.378	0.0055
521.675	0.004
521.971	0.0042
522.268	0.0042
522.564	0.0043
522.861	0.0056
523.157	0.004
523.453	0.0052
523.749	0.0039
524.045	0.0041
524.341	0.0041
524.637	0.0035
524.933	0.005
525.229	0.0042
525.524	0.0039
525.82	0.0049
526.115	0.0046
526.411	0.0042
526.706	0.0044
527.002	0.0039
527.297	0.0021
527.592	0.0044
527.887	0.0037
528.182	0.0025
528.477	0.0037
528.772	0.0037
529.067	0.0036
529.362	0.0035
529.657	0.0042
529.951	0.0032
530.246	0.0016
530.54	0.003
530.835	0.0025
531.129	0.0038
531.423	0.0033
531.718	0.0024
532.012	0.0035
532.306	0.003
532.6	0.0022
532.894	0.002
533.188	0.0021
533.482	0.0035
533.775	0.0025
534.069	0.0026
534.363	0.0022
534.656	0.0022
534.95	0.0021
535.243	0.0024
535.536	0.0029
535.83	0.003
536.123	0.0027
536.416	0.0029
536.709	0.0034
537.002	0.0032
537.295	0.0032
537.588	0.0039
537.881	0.002
538.173	0.003
538.466	0.0029
538.759	0.0035
539.051	0.0031
539.344	0.0038
539.636	0.0034
539.928	0.0049
540.22	0.0027
540.513	0.0031
540.805	0.0033
541.097	0.0033
541.389	0.0029
541.681	0.0038
541.972	0.0033
542.264	0.0034
542.556	0.0039
542.847	0.0032
543.139	0.0036
543.431	0.0024
543.722	0.003
544.013	0.0035
544.305	0.0032
544.596	0.0032
544.887	0.0036
545.178	0.0048
545.469	0.0037
545.76	0.0041
546.051	0.0043
546.342	0.0038
546.632	0.004
546.923	0.0034
547.214	0.0028
547.504	0.0041
547.795	0.0023
548.085	0.0033
548.375	0.003
548.666	0.0039
548.956	0.0037
549.246	0.0043
549.536	0.004
549.826	0.0044
550.116	0.0048
550.406	0.0037
550.695	0.0037
550.985	0.003
551.275	0.0036
551.564	0.0045
551.854	0.0046
552.143	0.004
552.433	0.0039
552.722	0.0033
553.011	0.0051
553.3	0.004
553.589	0.0039
553.879	0.0043
554.167	0.0041
554.456	0.0036
554.745	0.0033
555.034	0.0049
555.323	0.0035
555.611	0.004
555.9	0.004
556.188	0.0033
556.477	0.0031
556.765	0.0047
557.053	0.0044
557.342	0.003
557.63	0.004
557.918	0.0031
558.206	0.0046
558.494	0.0041
558.782	0.0041
559.069	0.0042
559.357	0.0037
559.645	0.0043
559.932	0.0038
560.22	0.0048
560.507	0.0023
560.795	0.0031
561.082	0.0031
561.37	0.0033
561.657	0.0035
561.944	0.003
562.231	0.0036
562.518	0.0035
562.805	0.004
563.092	0.0033
563.379	0.0042
563.665	0.0034
563.952	0.0045
564.239	0.0037
564.525	0.0033
564.811	0.0039
565.098	0.0031
565.384	0.0029
565.67	0.0038
565.957	0.0034
566.243	0.0047
566.529	0.0037
566.815	0.0035
567.101	0.0023
567.387	0.003
567.672	0.0029
567.958	0.0027
568.244	0.002
568.529	0.0028
568.815	0.0035
569.1	0.0029
569.386	0.0036
569.671	0.0033
569.956	0.0027
570.242	0.0033
570.527	0.0024
570.812	0.0026
571.097	0.002
571.382	0.0019
571.666	0.0023
571.951	0.0039
572.236	0.0032
572.521	0.0034
572.805	0.0038
573.09	0.0032
573.374	0.0029
573.659	0.003
573.943	0.0033
574.227	0.0031
574.511	0.0033
574.795	0.0037
575.079	0.0036
575.363	0.0032
575.647	0.0033
575.931	0.003
576.215	0.0031
576.499	0.0027
576.782	0.002
577.066	0.0025
577.349	0.0034
577.633	0.0034
577.916	0.003
578.2	0.0034
578.483	0.0037
578.766	0.0037
579.049	0.0034
579.332	0.0038
579.615	0.0023
579.898	0.0022
580.181	0.003
580.464	0.0031
580.746	0.0027
581.029	0.0037
581.312	0.0024
581.594	0.0022
581.877	0.0029
582.159	0.004
582.441	0.0021
582.724	0.0029
583.006	0.0034
583.288	0.0028
583.57	0.0028
583.852	0.0035
584.134	0.0045
584.416	0.002
584.697	0.0032
584.979	0.0025
585.261	0.0025
585.542	0.0028
585.824	0.0038
586.105	0.003
586.387	0.0035
586.668	0.0035
586.949	0.004
587.231	0.0041
587.512	0.0031
587.793	0.0031
588.074	0.0029
588.355	0.0031
588.636	0.0031
588.916	0.003
589.197	0.002
589.478	0.003
589.758	0.0027
590.039	0.0029
590.319	0.002
590.6	0.0025
590.88	0.0026
591.16	0.0019
591.441	0.0033
591.721	0.0033
592.001	0.0032
592.281	0.0029
592.561	0.0034
592.841	0.0022
593.12	0.0025
593.4	0.003
593.68	0.0027
593.959	0.0028
594.239	0.0035
594.518	0.0037
594.798	0.0034
595.077	0.0027
595.356	0.0026
595.636	0.0022
595.915	0.0023
596.194	0.0021
596.473	0.0023
596.752	0.0025
597.031	0.0031
597.31	0.0016
597.588	0.0022
597.867	0.0011
598.146	0.0015
598.424	0.0015
598.703	0.0028
598.981	0.0016
599.259	0.0019
599.538	0.0024
599.816	0.0037
600.094	0.0036
600.372	0.003
600.65	0.0035
600.928	0.0036
601.206	0.0033
601.484	0.0032
601.762	0.0044
602.04	0.0042
602.317	0.0035
602.595	0.0039
602.872	0.0032
603.15	0.0042
603.427	0.002
603.704	0.002
603.982	0.0016
604.259	0.0023
604.536	0.0022
604.813	0.0024
605.09	0.0021
605.367	0.0019
605.644	0.0014
605.921	0.0024
606.197	0.0019
606.474	0.0022
606.751	0.0018
607.027	0.0021
607.304	0.0023
607.58	0.0026
607.856	0.0033
608.133	0.0034
608.409	0.0041
608.685	0.0034
608.961	0.0026
609.237	0.0034
609.513	0.0043
609.789	0.0022
610.065	0.0031
610.341	0.0016
610.616	0.0023
610.892	0.0026
611.167	0.0036
611.443	0.0037
611.718	0.003
611.994	0.0033
612.269	0.0023
612.544	0.0027
612.819	0.0028
613.095	0.0027
613.37	0.0019
613.645	0.001
613.919	0.0029
614.194	0.0025
614.469	0.0027
614.744	0.0018
615.019	0.0018
615.293	0.0021
615.568	0.0022
615.842	0.0009
616.116	0.0016
616.391	0.0016
616.665	0.0005
616.939	0.0011
617.213	0.0017
617.488	0.0024
617.762	0.0022
618.035	0.0028
618.309	0.0025
618.583	0.0026
618.857	0.0026
619.131	0.0022
619.404	0.0022
619.678	0.0034
619.951	0.0024
620.225	0.0013
620.498	0.0017
620.771	0.002
621.045	0.0013
621.318	0.0022
621.591	0.0022
621.864	0.0013
622.137	0.0008
622.41	0.0013
622.683	0.0008
622.956	0.0004
623.228	0.0015
623.501	0.0021
623.774	0.0024
624.046	0.0025
624.319	0.0018
624.591	0.0015
624.863	0.0017
625.136	0.0032
625.408	0.0029
625.68	0.0029
625.952	0.0024
626.224	0.003
626.496	0.0026
626.768	0.0028
627.04	0.0029
627.311	0.0018
627.583	0.0025
627.855	0.0016
628.126	0.0012
628.398	0.0013
628.669	0.0008
628.941	0.0004
629.212	0.0002
629.483	0.0014
629.755	0.0011
630.026	0.0011
630.297	0.0021
630.568	0.0017
630.839	0.0015
631.11	0.0023
631.38	0.0021
631.651	0.0027
631.922	0.0029
632.192	0.0016
632.463	0.003
632.733	0.0016
633.004	0.0018
633.274	0.0012
633.545	0.0015
633.815	0.0027
634.085	0.0026
634.355	0.0015
634.625	0.0022
634.895	0.0018
635.165	0.0015
635.435	0.0022
635.705	0.0014
635.974	0.0012
636.244	0.0014
636.514	-0.0007
636.783	0.0002
637.053	0.0001
637.322	0
637.591	-0.0002
637.861	-0.0011
638.13	0.0006
638.399	0.0017
638.668	0.0014
638.937	0.0023
639.206	0.0008
639.475	0.0017
639.744	0.0008
640.013	0.001
640.281	0.0008
640.55	0.0015
640.819	0.0012
641.087	0.0003
641.356	0.0004
641.624	0.0011
641.892	0.0016
642.161	0.0025
642.429	0.0013
642.697	0.0017
642.965	0.0009
643.233	-0.0017
643.501	-0.001
643.769	0.0001
644.037	-0.0014
644.305	-0.0007
644.572	-0.0003
644.84	0.0001
645.108	-0.0002
645.375	-0.0005
645.643	0.0013
645.91	0.0007
646.177	0.0006
646.445	0.0008
646.712	0.0009
646.979	0.0003
647.246	0.0006
647.513	0.0004
647.78	0.0008
648.047	-0.0016
648.314	-0.0013
648.58	-0.0016
648.847	-0.0025
649.114	-0.003
649.38	-0.0018
649.647	-0.0014
649.913	-0.001
650.18	0.0005
650.446	0.0011
650.712	0.0009
650.978	0.0006
651.245	0.0014
651.511	0.0026
651.777	0.0016
652.043	0.0003
652.309	0.0009
652.574	-0.0002
652.84	0.0015
653.106	0.0012
653.371	0.0026
653.637	0.0013
653.903	0.0016
654.168	0.0002
654.433	0.0012
654.699	0.0002
654.964	-0.0008
655.229	0.0002
655.494	0.0006
655.759	0.0002
656.024	0.0002
656.289	-0
656.554	0.0016
656.819	0.0013
657.084	0.0013
657.349	0.0006
657.613	0.0013
657.878	-0.0001
658.142	-0.0001
658.407	0.0006
658.671	0.0008
658.936	0.0006
659.2	0.0018
659.464	0.0009
659.728	0.0008
659.992	-0.0003
660.256	-0.0016
660.52	-0.0007
660.784	-0.0011
661.048	-0.0005
661.312	-0.0003
661.575	-0.0008
661.839	0.0002
662.103	-0.0001
662.366	0.0007
662.63	0.0009
662.893	-0.0002
663.156	0.0012
663.42	0.0015
663.683	0.0011
663.946	0.0018
664.209	0.0018
664.472	0.0015
664.735	0.002
664.998	0.0021
665.261	0.0028
665.524	0.0025
665.786	0.002
666.049	0.0022
666.312	0.0016
666.574	0.001
666.837	0.0022
667.099	0.0015
667.361	0.0023
667.624	0.0024
667.886	0.0019
668.148	0.002
668.41	0.0021
668.672	0.002
668.934	0.0015
669.196	0.0015
669.458	0.001
669.72	0.001
669.982	0.0013
670.243	0.0005
670.505	0.0013
670.766	0.0011
671.028	0.0019
671.289	0.0024
671.551	0.0025
671.812	0.0011
672.073	0.0013
672.334	0.0011
672.596	0.0002
672.857	0.0004
673.118	0.0015
673.379	0.0019
673.639	0.0016
673.9	0.0015
674.161	0.0014
674.422	0.0004
674.682	-0.0004
674.943	0
675.203	-0.0011
675.464	0.0003
675.724	-0.0003
675.985	0.0001
676.245	0.0004
676.505	-0.0001
676.765	-0.0007
677.025	-0
677.285	-0.0006
677.545	0.0003
677.805	-0.0004
678.065	0
678.325	0.0011
678.585	0.0022
678.844	0.0027
679.104	0.0028
679.363	0.0038
679.623	0.0034
679.882	0.0033
680.142	0.0033
680.401	0.0034
680.66	0.0029
680.919	0.002
681.178	0.0026
681.437	0.0026
681.696	0.0015
681.955	0.0042
682.214	0.003
682.473	0.0028
682.732	0.0021
682.99	0.0029
683.249	0.0015
683.508	0.002
683.766	0.0015
684.024	0.0014
684.283	-0.0001
684.541	0.0006
684.799	0.0002
685.058	-0.0013
685.316	-0.0015
685.574	-0.0014
685.832	-0.0006
686.09	-0.0015
686.348	-0.0016
686.606	-0.001
686.863	-0.0016
687.121	-0.0011
687.379	-0.0019
687.636	-0.0027
687.894	-0.0019
688.151	-0.002
688.409	-0.0015
688.666	-0.0007
688.923	-0.0008
689.181	-0.0011
689.438	-0.0011
689.695	-0.0011
689.952	-0.0013
690.209	-0.002
690.466	-0.0013
690.723	-0.0013
690.979	-0.002
691.236	-0.0022
691.493	-0.0036
691.75	-0.0017
692.006	-0.0023
692.263	-0.0026
692.519	-0.0025
692.775	-0.0041
693.032	-0.0031
693.288	-0.0047
693.544	-0.0022
693.8	-0.0015
694.056	-0.002
694.313	-0.0023
694.568	-0.0012
694.824	-0.0009
695.08	-0.0011
695.336	-0.001
695.592	-0.0013
695.847	-0.0005
696.103	0.0005
696.359	0.0012
696.614	0.0006
696.869	-0.0009
697.125	-0.0017
697.38	-0.0016
697.635	-0.0006
697.891	0.0011
698.146	0.0006
698.401	0.0007
698.656	0.0009
698.911	0.0013
699.166	0.0012
699.42	0.0014
699.675	0.002
699.93	0.0018
700.185	0.0026
700.439	0.0008
700.694	0.0011
700.948	0.0018
701.203	0.0017
701.457	0.0007
701.711	0.0004
701.965	-0.0006
702.22	-0.0003
702.474	-0.0005
702.728	-0.0001
702.982	0.0001
703.236	0.0005
703.49	0.0004
703.743	-0.0002
703.997	-0.0008
704.251	-0.0004
704.504	0.0016
704.758	0.0015
705.012	0.0021
705.265	0.0022
705.518	0.002
705.772	0.0018
706.025	0.0017
706.278	0.0001
706.531	0
706.785	-0.0013
707.038	-0.002
707.291	-0.0009
707.543	-0.0008
707.796	0
708.049	-0.0004
708.302	-0.0009
708.555	-0.0003
708.807	0.0004
709.06	0.001
709.312	0.0019
709.565	0.0006
709.817	0.0027
710.069	0.0009
710.322	0.0016
710.574	0.002
710.826	0.0011
711.078	0.0007
711.33	0.0002
711.582	0.0007
711.834	-0.0003
712.086	0.0009
712.338	0
712.59	-0.0006
712.841	-0.0013
713.093	-0.0008
713.344	-0.0004
713.596	-0.0015
713.847	-0.0022
714.099	-0.0027
714.35	-0.0016
714.601	-0.0031
714.853	-0.0037
715.104	-0.0023
715.355	-0.0021
715.606	-0.0008
715.857	-0.0012
716.108	0
716.359	0.0006
716.609	-0.0016
716.86	0.0001
717.111	-0.0006
717.361	-0.0011
717.612	-0.0012
717.863	-0.0005
718.113	0.0001
718.363	0.0008
718.614	0.0005
718.864	0.001
719.114	-0.0001
719.364	-0.0011
719.614	-0.0007
719.865	-0.0016
720.114	-0.0007
720.364	-0.0001
720.614	-0.0015
720.864	-0.0015
721.114	-0.0023
721.364	-0.002
721.613	-0.0023
721.863	-0.0021
722.112	-0.0022
722.362	-0.0016
722.611	-0.0006
722.86	-0.0001
723.11	0.0004
723.359	0
723.608	0
723.857	0.0023
724.106	0.0005
724.355	0.0005
724.604	0.0004
724.853	-0.0003
725.102	-0.002
725.351	-0.0019
725.599	-0.0032
725.848	-0.002
726.097	-0.0009
726.345	-0.0013
726.594	-0.001
726.842	0.0004
727.09	-0.0007
727.339	-0.0011
727.587	-0.002
727.835	-0.0024
728.083	-0.0026
728.331	-0.0031
728.579	-0.0013
728.827	-0.0026
729.075	-0.003
729.323	-0.0034
729.571	-0.0044
729.818	-0.0037
730.066	-0.0031
730.314	-0.0023
730.561	-0.0031
730.809	-0.0037
731.056	-0.003
731.303	-0.0028
731.551	-0.0031
731.798	-0.0029
732.045	-0.0015
732.292	-0.0025
732.539	-0.0016
732.786	-0.003
733.033	-0.0029
733.28	-0.0018
733.527	-0.0028
733.774	-0.0029
734.021	-0.003
734.267	-0.0023
734.514	-0.0023
734.76	-0.0018
735.007	-0.0018
735.253	-0.0002
735.5	0.0012
735.746	0.0022
735.992	0.0017
736.238	0.0013
736.485	0.0007
736.731	0.0004
736.977	0.0001
737.223	0
737.469	-0.0014
737.715	-0.0004
737.96	-0.0004
738.206	-0.0006
738.452	-0.0006
738.697	-0.0014
738.943	-0.002
739.189	-0.0011
739.434	-0.0006
739.679	-0.0002
739.925	0.0008
740.17	0.0018
740.415	0.0011
740.66	0.0011
740.906	0.001
741.151	0.0007
741.396	0.0007
741.641	-0.0003
741.886	0.0008
742.13	-0
742.375	0.0017
742.62	0.0001
742.865	0.0002
743.109	0.002
743.354	0.0006
743.598	0.0006
743.843	-0.0004
744.087	-0.001
744.331	-0.0014
744.576	-0.0007
744.82	0.0005
745.064	-0
745.308	0.0005
745.552	-0.0002
745.796	-0.0007
746.04	-0.0002
746.284	-0.0006
746.528	0.0005
746.771	-0.0006
747.015	-0.0007
747.259	-0.0009
747.502	-0.0008
747.746	-0.0011
747.989	-0.0002
748.233	0.0008
748.476	0.0007
748.719	0.001
748.963	0.0013
749.206	0.0009
749.449	0
749.692	0.0005
749.935	-0.0003
750.178	-0.0003
750.421	-0.0017
750.664	-0.0014
750.906	-0.0013
751.149	-0.0025
751.392	-0.002
751.635	-0.0009
751.877	-0.0011
752.12	-0.0019
752.362	-0.0001
752.604	0.0008
752.847	-0.0003
753.089	-0.0001
753.331	-0.0003
753.573	-0.001
753.816	-0.0002
754.058	-0.0002
754.3	-0.0003
754.542	0.0006
754.783	0.0007
755.025	0.0009
755.267	0.0006
755.509	0.0008
755.75	-0.0003
755.992	0.0004
756.234	0.0015
756.475	0.002
756.716	0.001
756.958	0.0005
757.199	0.0009
757.44	0.0018
757.682	0.0003
757.923	0.0013
758.164	0.0009
758.405	0.0005
758.646	0.0001
758.887	-0.0014
759.128	-0.0007
759.369	-0.0019
759.609	-0.0023
759.85	-0.0015
760.091	-0.0011
760.331	-0.0006
760.572	0.0002
760.812	-0.0016
761.053	-0.0009
761.293	0.0003
761.533	0.0006
761.774	-0.0006
762.014	0.0005
762.254	-0.0003
762.494	0.0007
762.734	0.0003
762.974	0.0003
763.214	-0.0001
763.454	-0.0005
763.694	0.0008
763.933	0.0021
764.173	0.0031
764.413	0.0027
764.652	-0.0002
764.892	-0.0006
765.131	-0.0005
765.371	-0.0012
765.61	-0.0017
765.849	-0.0027
766.089	-0.0022
766.328	-0.0025
766.567	-0.0027
766.806	-0.0031
767.045	-0.0038
767.284	-0.0026
767.523	-0.0025
767.762	-0.003
768.001	-0.0024
768.239	-0.0016
768.478	-0.0024
768.717	-0.0025
768.955	-0.0027
769.194	-0.0024
769.432	-0.0022
769.671	-0.0023
769.909	-0.0017
770.148	-0.0017
770.386	-0.0021
770.624	-0.0009
770.862	-0.002
771.1	-0.0019
771.338	-0.0024
771.576	-0.0018
771.814	-0.0011
772.052	-0.0012
772.29	-0.0005
772.528	-0.0003
772.765	-0.0012
773.003	-0.0003
773.24	0.0003
773.478	-0.0005
773.716	0.0009
773.953	0.0011
774.19	0.0006
774.428	0.0017
774.665	0.002
774.902	0.0016
775.139	0.0011
775.376	-0.0001
775.613	-0.0001
775.85	0.0012
776.087	-0.0004
776.324	-0.0004
776.561	-0.0007
776.798	-0.0004
777.034	-0.0007
777.271	-0.0003
777.508	-0.0001
777.744	0.0008
777.981	0.0002
778.217	-0.0002
778.454	-0.0014
778.69	-0.0008
778.926	-0.0004
779.162	-0.0011
779.399	0.0007
779.635	-0.0002
779.871	-0.0007
780.107	-0.0013
780.343	-0.0028
780.579	-0.0017
780.814	-0.0017
781.05	-0.0021
781.286	-0.0016
781.522	-0.0023
781.757	-0.0022
781.993	-0.0013
782.228	-0.0021
782.464	-0.0011
782.699	-0.0004
782.934	-0.0008
783.17	-0.0005
783.405	-0.0004
783.64	-0.0007
783.875	-0.0007
784.11	-0.0007
784.345	-0.001
784.58	-0.0001
784.815	-0.0007
785.05	-0.0015
785.285	-0.0015
785.52	-0.0004
785.754	-0.0008
785.989	0.0002
786.223	0.002
786.458	0.0019
786.692	0.0029
786.927	0.0035
787.161	0.0034
787.396	0.0036
787.63	0.0021
787.864	0.0021
788.098	0.0008
788.332	0.0005
788.566	0
788.8	-0.0003
789.034	-0.0001
789.268	-0.001
789.502	-0.0016
789.736	-0.0009
789.969	-0.0012
790.203	-0.0008
790.437	-0.0002
790.67	0.0001
790.904	0.0018
791.137	0.0022
791.37	0.0018
791.604	0.0016
791.837	0.0028
792.07	0.0033
792.303	0.0043
792.537	0.0049
792.77	0.0044
793.003	0.004
793.236	0.0019
793.469	0.0029
793.701	0.0012
793.934	0.0008
794.167	0.0006
794.4	-0.0007
794.632	-0.0005
794.865	-0.001
795.097	-0.0019
795.33	-0.0012
795.562	-0.0007
795.795	-0.0019
796.027	-0.0004
796.259	0.0003
796.491	0
796.724	0.0005
796.956	0.0007
797.188	0.0006
797.42	0.0007
797.652	0.0013
797.883	0.0013
798.115	0.0024
798.347	0.0018
798.579	0.0006
798.81	0.0008
799.042	0.0008
799.274	0.0023
799.505	0.0015
799.737	0.0022
799.968	0.0014
800.199	0.0012
800.431	0.0017
800.662	0.0011
800.893	0.0015
801.124	0.0016
801.355	0.0013
801.586	0.0024
801.817	0.0045
802.048	0.0027
802.279	0.0037
802.51	0.0039
802.741	0.0044
802.971	0.0041
803.202	0.0029
803.433	0.0029
803.663	0.0031
803.894	0.0022
804.124	0.0023
804.354	0.0028
804.585	0.004
804.815	0.0031
805.045	0.0044
805.275	0.0036
805.506	0.0154
805.736	-0.0647
805.966	-0.1736
806.196	0.0066
