Data from 03 0.4 mM K2Cr2O7 0.25 M BQDS 1 M H2SO4 5 min_Absorbance_0081.txt Node
Date: Wed Dec 15 00:15:12 EST 2021
User: kwabilab-user
Spectrometer: HDX00518
Trigger mode: 0
Integration Time (sec): 5.000000E-2
Scans to average: 50
Nonlinearity correction enabled: false
Boxcar width: 0
Storing dark spectrum: false
XAxis mode: Wavelengths
Number of Pixels in Spectrum: 2068
>>>>>Begin Spectral Data<<<<<
195.27	-0.0228
195.642	0.1212
196.014	-0.0674
196.386	-0.1617
196.758	-0.0528
197.129	-0.0058
197.501	-0.0219
197.872	0.0296
198.244	0.0157
198.615	0.0683
198.986	0.0249
199.357	0.0369
199.728	0.033
200.099	0.0341
200.47	0.0256
200.841	0.0295
201.212	0.0214
201.582	0.0384
201.953	0.0453
202.323	0.0328
202.694	0.0216
203.064	0.0284
203.434	0.0188
203.804	0.0282
204.174	0.0289
204.544	0.0538
204.914	0.0067
205.284	0.024
205.653	0.0261
206.023	0.0387
206.393	0.0199
206.762	0.0235
207.131	0.0416
207.501	0.0397
207.87	0.0287
208.239	0.0232
208.608	0.0394
208.977	0.0143
209.346	0.012
209.715	0.0348
210.083	0.0425
210.452	0.0341
210.82	0.0266
211.189	0.0503
211.557	0.0384
211.925	0.023
212.294	0.0332
212.662	0.0291
213.03	0.0136
213.398	0.0216
213.766	0.0285
214.133	0.0383
214.501	0.0266
214.869	0.0254
215.236	0.0201
215.604	0.0262
215.971	0.0574
216.338	0.0335
216.705	0.0556
217.072	0.0521
217.439	0.0475
217.806	0.0709
218.173	0.07
218.54	0.0736
218.907	0.0701
219.273	0.0601
219.64	0.0797
220.006	0.0868
220.373	0.0858
220.739	0.1162
221.105	0.1541
221.471	0.1572
221.837	0.1855
222.203	0.1963
222.569	0.2126
222.935	0.2195
223.3	0.233
223.666	0.265
224.031	0.2888
224.397	0.3122
224.762	0.324
225.127	0.3452
225.493	0.3717
225.858	0.4093
226.223	0.4323
226.588	0.4409
226.952	0.4472
227.317	0.5029
227.682	0.5016
228.046	0.4967
228.411	0.5463
228.775	0.5523
229.14	0.5596
229.504	0.5587
229.868	0.5738
230.232	0.5765
230.596	0.5937
230.96	0.6277
231.324	0.6126
231.688	0.6212
232.052	0.6384
232.415	0.6235
232.779	0.631
233.142	0.6449
233.505	0.6299
233.869	0.6455
234.232	0.6379
234.595	0.6338
234.958	0.649
235.321	0.6447
235.684	0.6363
236.047	0.6416
236.409	0.6338
236.772	0.627
237.134	0.6191
237.497	0.6211
237.859	0.6416
238.222	0.6317
238.584	0.6211
238.946	0.6157
239.308	0.6198
239.67	0.607
240.032	0.6107
240.393	0.6083
240.755	0.6019
241.117	0.6076
241.478	0.601
241.84	0.5995
242.201	0.5921
242.562	0.5938
242.924	0.5867
243.285	0.5827
243.646	0.5828
244.007	0.5776
244.368	0.5697
244.728	0.5783
245.089	0.5801
245.45	0.5713
245.81	0.5793
246.171	0.5687
246.531	0.567
246.891	0.559
247.252	0.5635
247.612	0.5652
247.972	0.558
248.332	0.5604
248.692	0.5614
249.051	0.5589
249.411	0.5557
249.771	0.5549
250.13	0.5507
250.49	0.5575
250.849	0.5492
251.208	0.554
251.568	0.5514
251.927	0.5516
252.286	0.5526
252.645	0.5494
253.004	0.5532
253.363	0.5509
253.721	0.5506
254.08	0.5474
254.439	0.5417
254.797	0.5426
255.155	0.5441
255.514	0.5452
255.872	0.547
256.23	0.5391
256.588	0.5428
256.946	0.5483
257.304	0.5465
257.662	0.5419
258.02	0.543
258.377	0.5422
258.735	0.5388
259.093	0.5383
259.45	0.5367
259.807	0.5396
260.165	0.5366
260.522	0.5338
260.879	0.5333
261.236	0.5373
261.593	0.5317
261.95	0.5301
262.306	0.531
262.663	0.5247
263.02	0.5272
263.376	0.5219
263.733	0.521
264.089	0.516
264.445	0.5205
264.802	0.5132
265.158	0.5144
265.514	0.5146
265.87	0.5135
266.226	0.5127
266.581	0.5129
266.937	0.509
267.293	0.5081
267.648	0.5004
268.004	0.5007
268.359	0.5
268.714	0.4933
269.07	0.495
269.425	0.4914
269.78	0.4862
270.135	0.4865
270.49	0.4808
270.844	0.4864
271.199	0.4781
271.554	0.4749
271.908	0.473
272.263	0.4721
272.617	0.4682
272.972	0.4679
273.326	0.4619
273.68	0.4577
274.034	0.4586
274.388	0.4577
274.742	0.4533
275.096	0.4475
275.45	0.4426
275.803	0.4423
276.157	0.4382
276.51	0.4326
276.864	0.4288
277.217	0.4288
277.571	0.4254
277.924	0.421
278.277	0.4175
278.63	0.4127
278.983	0.4087
279.336	0.4029
279.688	0.3993
280.041	0.3936
280.394	0.3889
280.746	0.3856
281.099	0.3857
281.451	0.3806
281.803	0.3774
282.156	0.3735
282.508	0.3664
282.86	0.3644
283.212	0.3605
283.564	0.3569
283.916	0.3517
284.267	0.3498
284.619	0.3449
284.971	0.3416
285.322	0.3388
285.673	0.3358
286.025	0.3303
286.376	0.3292
286.727	0.3244
287.078	0.3214
287.429	0.3182
287.78	0.3133
288.131	0.3105
288.482	0.3062
288.833	0.3027
289.183	0.2973
289.534	0.295
289.884	0.294
290.235	0.2894
290.585	0.2865
290.935	0.2806
291.285	0.2798
291.635	0.2737
291.985	0.2727
292.335	0.268
292.685	0.2641
293.035	0.261
293.384	0.2581
293.734	0.2548
294.083	0.2505
294.433	0.2487
294.782	0.2451
295.131	0.242
295.48	0.2387
295.829	0.234
296.179	0.2323
296.527	0.2275
296.876	0.2254
297.225	0.2212
297.574	0.2194
297.922	0.2153
298.271	0.2136
298.619	0.2095
298.968	0.2076
299.316	0.2046
299.664	0.2027
300.012	0.1979
300.36	0.1962
300.708	0.1936
301.056	0.1907
301.404	0.1882
301.752	0.1863
302.099	0.1835
302.447	0.1812
302.794	0.179
303.142	0.1771
303.489	0.1741
303.836	0.1726
304.183	0.17
304.531	0.1687
304.878	0.1661
305.224	0.1642
305.571	0.1633
305.918	0.1619
306.265	0.1588
306.611	0.1574
306.958	0.1559
307.304	0.1558
307.651	0.1535
307.997	0.1517
308.343	0.1498
308.689	0.1491
309.035	0.1492
309.381	0.1478
309.727	0.1469
310.073	0.1458
310.419	0.145
310.764	0.1451
311.11	0.1435
311.455	0.1428
311.801	0.1426
312.146	0.1408
312.491	0.1408
312.837	0.14
313.182	0.1395
313.527	0.1393
313.872	0.1385
314.216	0.139
314.561	0.1384
314.906	0.1384
315.251	0.1391
315.595	0.1387
315.94	0.1381
316.284	0.1386
316.628	0.1383
316.972	0.1387
317.317	0.139
317.661	0.1392
318.005	0.1389
318.348	0.1396
318.692	0.1401
319.036	0.1401
319.38	0.1409
319.723	0.1408
320.067	0.1416
320.41	0.1423
320.754	0.1429
321.097	0.1421
321.44	0.144
321.783	0.144
322.126	0.1458
322.469	0.1462
322.812	0.1472
323.155	0.1476
323.498	0.148
323.84	0.1489
324.183	0.1499
324.525	0.1513
324.868	0.1534
325.21	0.1528
325.552	0.1534
325.894	0.1558
326.236	0.1554
326.578	0.1566
326.92	0.1582
327.262	0.158
327.604	0.1595
327.946	0.161
328.287	0.1611
328.629	0.1625
328.97	0.1646
329.312	0.1645
329.653	0.167
329.994	0.1682
330.335	0.1677
330.676	0.1703
331.017	0.1712
331.358	0.1722
331.699	0.1731
332.04	0.1752
332.38	0.1753
332.721	0.1765
333.061	0.1773
333.402	0.1792
333.742	0.18
334.083	0.1812
334.423	0.1818
334.763	0.1827
335.103	0.1836
335.443	0.185
335.783	0.1864
336.123	0.1871
336.462	0.1884
336.802	0.1888
337.141	0.1895
337.481	0.1904
337.82	0.1919
338.16	0.192
338.499	0.1937
338.838	0.1951
339.177	0.1953
339.516	0.1958
339.855	0.1974
340.194	0.1978
340.533	0.198
340.872	0.1991
341.21	0.1999
341.549	0.2003
341.887	0.2016
342.226	0.2018
342.564	0.2013
342.902	0.2031
343.24	0.2032
343.578	0.2027
343.916	0.2028
344.254	0.204
344.592	0.2046
344.93	0.2044
345.268	0.204
345.605	0.2046
345.943	0.2056
346.28	0.2051
346.618	0.2047
346.955	0.205
347.292	0.2061
347.629	0.2051
347.966	0.2052
348.303	0.2061
348.64	0.2057
348.977	0.2062
349.314	0.2062
349.65	0.206
349.987	0.2059
350.324	0.2054
350.66	0.2055
350.996	0.2046
351.333	0.2043
351.669	0.2043
352.005	0.2043
352.341	0.2026
352.677	0.2022
353.013	0.2014
353.349	0.2013
353.685	0.1997
354.02	0.1994
354.356	0.1988
354.691	0.197
355.027	0.1971
355.362	0.1957
355.697	0.1954
356.033	0.1946
356.368	0.1934
356.703	0.1934
357.038	0.1924
357.373	0.1903
357.707	0.1906
358.042	0.1893
358.377	0.1878
358.711	0.1884
359.046	0.187
359.38	0.1869
359.715	0.1857
360.049	0.1844
360.383	0.1826
360.717	0.1823
361.051	0.181
361.385	0.1803
361.719	0.1787
362.053	0.1784
362.387	0.1752
362.72	0.1753
363.054	0.173
363.387	0.1718
363.721	0.1701
364.054	0.1698
364.387	0.1667
364.721	0.1659
365.054	0.1655
365.387	0.1635
365.72	0.1625
366.053	0.1611
366.385	0.1589
366.718	0.1584
367.051	0.1581
367.383	0.1556
367.716	0.1555
368.048	0.1539
368.381	0.1533
368.713	0.1516
369.045	0.1509
369.377	0.1497
369.709	0.1492
370.041	0.1476
370.373	0.146
370.705	0.145
371.037	0.144
371.368	0.1425
371.7	0.1413
372.031	0.1397
372.363	0.1385
372.694	0.1373
373.025	0.1357
373.356	0.1338
373.688	0.1323
374.019	0.1311
374.35	0.1285
374.68	0.1279
375.011	0.1256
375.342	0.1249
375.673	0.123
376.003	0.1209
376.334	0.1199
376.664	0.1184
376.995	0.1173
377.325	0.1158
377.655	0.1146
377.985	0.1132
378.315	0.1125
378.645	0.1109
378.975	0.1106
379.305	0.108
379.635	0.1075
379.964	0.1066
380.294	0.1058
380.623	0.1052
380.953	0.1036
381.282	0.1035
381.611	0.102
381.941	0.1011
382.27	0.0998
382.599	0.0994
382.928	0.0972
383.257	0.0961
383.585	0.0954
383.914	0.0931
384.243	0.0919
384.571	0.0906
384.9	0.0897
385.228	0.0879
385.557	0.087
385.885	0.086
386.213	0.0849
386.541	0.0833
386.869	0.0821
387.197	0.0801
387.525	0.0796
387.853	0.0779
388.181	0.0772
388.508	0.0755
388.836	0.0749
389.164	0.0735
389.491	0.0724
389.818	0.0708
390.146	0.0704
390.473	0.0695
390.8	0.0694
391.127	0.0673
391.454	0.0671
391.781	0.0664
392.108	0.0654
392.435	0.0641
392.761	0.064
393.088	0.0637
393.415	0.0625
393.741	0.0627
394.067	0.0613
394.394	0.061
394.72	0.06
395.046	0.0587
395.372	0.0581
395.698	0.0572
396.024	0.0563
396.35	0.0558
396.676	0.0554
397.001	0.0539
397.327	0.0537
397.653	0.0529
397.978	0.0522
398.303	0.0515
398.629	0.0505
398.954	0.0499
399.279	0.0499
399.604	0.0489
399.929	0.049
400.254	0.048
400.579	0.0473
400.904	0.0462
401.229	0.0462
401.553	0.0462
401.878	0.0452
402.202	0.0454
402.527	0.0445
402.851	0.0444
403.175	0.0429
403.5	0.0437
403.824	0.0426
404.148	0.0428
404.472	0.0423
404.796	0.0418
405.119	0.0414
405.443	0.0414
405.767	0.0413
406.09	0.0409
406.414	0.0401
406.737	0.0409
407.061	0.0403
407.384	0.0398
407.707	0.0398
408.03	0.0399
408.353	0.0389
408.676	0.0393
408.999	0.0396
409.322	0.0383
409.645	0.0385
409.968	0.0386
410.29	0.0381
410.613	0.039
410.935	0.0378
411.258	0.0382
411.58	0.0375
411.902	0.0376
412.224	0.0381
412.546	0.0377
412.868	0.0391
413.19	0.0376
413.512	0.0378
413.834	0.0375
414.156	0.0381
414.477	0.0369
414.799	0.0373
415.121	0.0366
415.442	0.0377
415.763	0.037
416.085	0.0378
416.406	0.037
416.727	0.0377
417.048	0.0375
417.369	0.0373
417.69	0.037
418.011	0.0369
418.331	0.0372
418.652	0.0372
418.973	0.0371
419.293	0.0372
419.614	0.0371
419.934	0.0368
420.254	0.0369
420.574	0.0362
420.895	0.0364
421.215	0.0363
421.535	0.0365
421.855	0.0355
422.174	0.0358
422.494	0.0357
422.814	0.0363
423.134	0.0369
423.453	0.037
423.773	0.0375
424.092	0.0367
424.411	0.0364
424.731	0.0363
425.05	0.0367
425.369	0.0364
425.688	0.0366
426.007	0.0364
426.326	0.0367
426.644	0.0368
426.963	0.0359
427.282	0.0367
427.6	0.0366
427.919	0.0368
428.237	0.0374
428.556	0.037
428.874	0.0369
429.192	0.0367
429.51	0.0366
429.828	0.0363
430.146	0.0372
430.464	0.0367
430.782	0.0364
431.1	0.0364
431.418	0.0365
431.735	0.036
432.053	0.0361
432.37	0.0364
432.688	0.0362
433.005	0.0358
433.322	0.0369
433.639	0.0366
433.957	0.0366
434.274	0.0366
434.591	0.0369
434.907	0.0365
435.224	0.0364
435.541	0.0366
435.858	0.0376
436.174	0.0371
436.491	0.0359
436.807	0.0361
437.124	0.0364
437.44	0.0359
437.756	0.0369
438.072	0.0368
438.388	0.0359
438.704	0.0359
439.02	0.0357
439.336	0.0356
439.652	0.0359
439.968	0.0358
440.283	0.0358
440.599	0.0362
440.914	0.0362
441.23	0.0352
441.545	0.0357
441.86	0.0362
442.175	0.0357
442.491	0.0353
442.806	0.0352
443.121	0.0346
443.435	0.0344
443.75	0.0346
444.065	0.035
444.38	0.0357
444.694	0.0344
445.009	0.0351
445.323	0.035
445.638	0.0344
445.952	0.0351
446.266	0.0343
446.58	0.0336
446.894	0.0352
447.208	0.0342
447.522	0.0333
447.836	0.0347
448.15	0.034
448.464	0.0336
448.777	0.0346
449.091	0.0343
449.404	0.034
449.718	0.0334
450.031	0.033
450.345	0.0334
450.658	0.0332
450.971	0.0336
451.284	0.0326
451.597	0.0335
451.91	0.0335
452.223	0.0329
452.535	0.0323
452.848	0.0325
453.161	0.0325
453.473	0.0324
453.786	0.0323
454.098	0.0322
454.411	0.0317
454.723	0.0324
455.035	0.0318
455.347	0.0311
455.659	0.0319
455.971	0.0321
456.283	0.0322
456.595	0.0323
456.907	0.0318
457.218	0.0319
457.53	0.0308
457.841	0.0309
458.153	0.0307
458.464	0.0304
458.776	0.0307
459.087	0.0309
459.398	0.0299
459.709	0.03
460.02	0.0306
460.331	0.0303
460.642	0.0292
460.953	0.0294
461.263	0.0289
461.574	0.0288
461.885	0.0304
462.195	0.0282
462.506	0.0289
462.816	0.0293
463.126	0.0286
463.437	0.0287
463.747	0.0276
464.057	0.0276
464.367	0.027
464.677	0.0273
464.987	0.0277
465.296	0.0271
465.606	0.0267
465.916	0.0272
466.225	0.0268
466.535	0.0264
466.844	0.0278
467.154	0.0268
467.463	0.0273
467.772	0.0255
468.081	0.026
468.39	0.0272
468.699	0.0264
469.008	0.0256
469.317	0.0253
469.626	0.0261
469.935	0.025
470.243	0.0254
470.552	0.0255
470.86	0.0252
471.169	0.0247
471.477	0.0236
471.785	0.024
472.093	0.0237
472.402	0.0233
472.71	0.0234
473.018	0.0229
473.326	0.024
473.633	0.0234
473.941	0.0234
474.249	0.0233
474.556	0.0228
474.864	0.0235
475.171	0.0231
475.479	0.0219
475.786	0.0229
476.094	0.0213
476.401	0.0219
476.708	0.022
477.015	0.0218
477.322	0.0203
477.629	0.0208
477.936	0.0208
478.242	0.0208
478.549	0.0199
478.856	0.0202
479.162	0.0201
479.469	0.0205
479.775	0.0206
480.081	0.0198
480.388	0.0191
480.694	0.0194
481	0.0187
481.306	0.0191
481.612	0.0195
481.918	0.02
482.224	0.0186
482.53	0.0197
482.835	0.0192
483.141	0.0189
483.446	0.0186
483.752	0.0182
484.057	0.0166
484.363	0.018
484.668	0.0183
484.973	0.0172
485.278	0.017
485.583	0.0158
485.888	0.0176
486.193	0.0154
486.498	0.016
486.803	0.0165
487.107	0.0157
487.412	0.0151
487.717	0.016
488.021	0.0159
488.325	0.0149
488.63	0.0156
488.934	0.0154
489.238	0.0144
489.542	0.0152
489.846	0.0149
490.15	0.015
490.454	0.0154
490.758	0.0142
491.062	0.0137
491.366	0.0144
491.669	0.0136
491.973	0.0138
492.276	0.0135
492.58	0.0132
492.883	0.0142
493.186	0.0128
493.489	0.0134
493.792	0.0126
494.096	0.0122
494.399	0.0126
494.701	0.012
495.004	0.0113
495.307	0.0128
495.61	0.0127
495.912	0.0135
496.215	0.0128
496.517	0.012
496.82	0.0113
497.122	0.0121
497.424	0.0119
497.727	0.0114
498.029	0.011
498.331	0.0112
498.633	0.0106
498.935	0.0108
499.237	0.0107
499.538	0.011
499.84	0.0106
500.142	0.0099
500.443	0.0107
500.745	0.0103
501.046	0.0099
501.348	0.0096
501.649	0.0098
501.95	0.0094
502.251	0.0105
502.552	0.0091
502.853	0.0094
503.154	0.0103
503.455	0.0091
503.756	0.0106
504.057	0.0094
504.357	0.0087
504.658	0.0092
504.958	0.0083
505.259	0.0085
505.559	0.0081
505.859	0.0077
506.16	0.0075
506.46	0.0079
506.76	0.0084
507.06	0.0066
507.36	0.0065
507.66	0.0077
507.96	0.0088
508.259	0.0068
508.559	0.007
508.859	0.0078
509.158	0.0075
509.457	0.006
509.757	0.007
510.056	0.0062
510.355	0.0066
510.655	0.006
510.954	0.0059
511.253	0.0065
511.552	0.006
511.851	0.0065
512.149	0.006
512.448	0.0061
512.747	0.0061
513.045	0.0058
513.344	0.006
513.642	0.0062
513.941	0.0062
514.239	0.0055
514.537	0.0054
514.836	0.0058
515.134	0.006
515.432	0.0055
515.73	0.006
516.028	0.0049
516.326	0.0044
516.623	0.004
516.921	0.0049
517.219	0.0063
517.516	0.0055
517.814	0.0046
518.111	0.0055
518.409	0.0047
518.706	0.0053
519.003	0.0049
519.3	0.0044
519.597	0.0048
519.894	0.0031
520.191	0.0055
520.488	0.0057
520.785	0.0036
521.082	0.0052
521.378	0.0056
521.675	0.0047
521.971	0.0046
522.268	0.0054
522.564	0.0049
522.861	0.0057
523.157	0.0046
523.453	0.0055
523.749	0.0041
524.045	0.0042
524.341	0.0042
524.637	0.004
524.933	0.0047
525.229	0.0043
525.524	0.0041
525.82	0.0049
526.115	0.0038
526.411	0.0046
526.706	0.0033
527.002	0.0039
527.297	0.0029
527.592	0.0047
527.887	0.0029
528.182	0.0026
528.477	0.0034
528.772	0.0034
529.067	0.0041
529.362	0.0035
529.657	0.0035
529.951	0.0021
530.246	0.0027
530.54	0.0031
530.835	0.004
531.129	0.0035
531.423	0.0029
531.718	0.0029
532.012	0.0031
532.306	0.0039
532.6	0.0033
532.894	0.0033
533.188	0.0034
533.482	0.0031
533.775	0.0026
534.069	0.0025
534.363	0.0025
534.656	0.0028
534.95	0.0035
535.243	0.0029
535.536	0.0025
535.83	0.0024
536.123	0.0018
536.416	0.0023
536.709	0.003
537.002	0.0032
537.295	0.003
537.588	0.0041
537.881	0.0025
538.173	0.0027
538.466	0.0034
538.759	0.0033
539.051	0.0039
539.344	0.0027
539.636	0.0028
539.928	0.0042
540.22	0.0034
540.513	0.004
540.805	0.0034
541.097	0.0043
541.389	0.0033
541.681	0.003
541.972	0.0033
542.264	0.004
542.556	0.0034
542.847	0.0031
543.139	0.0035
543.431	0.0032
543.722	0.0027
544.013	0.0038
544.305	0.0031
544.596	0.0028
544.887	0.0031
545.178	0.0035
545.469	0.0045
545.76	0.0043
546.051	0.0037
546.342	0.0039
546.632	0.0038
546.923	0.0038
547.214	0.003
547.504	0.0034
547.795	0.0035
548.085	0.0041
548.375	0.0038
548.666	0.0031
548.956	0.0027
549.246	0.0042
549.536	0.0043
549.826	0.0047
550.116	0.0043
550.406	0.0032
550.695	0.0035
550.985	0.0035
551.275	0.0051
551.564	0.0055
551.854	0.0043
552.143	0.0039
552.433	0.0041
552.722	0.0041
553.011	0.0043
553.3	0.0038
553.589	0.0039
553.879	0.0041
554.167	0.0037
554.456	0.0026
554.745	0.0042
555.034	0.0038
555.323	0.0027
555.611	0.004
555.9	0.0042
556.188	0.0035
556.477	0.0026
556.765	0.0035
557.053	0.0027
557.342	0.0027
557.63	0.0029
557.918	0.0024
558.206	0.0038
558.494	0.0039
558.782	0.0035
559.069	0.0038
559.357	0.0037
559.645	0.0039
559.932	0.003
560.22	0.0041
560.507	0.0019
560.795	0.0019
561.082	0.0025
561.37	0.0036
561.657	0.0021
561.944	0.0026
562.231	0.0025
562.518	0.0035
562.805	0.0035
563.092	0.0029
563.379	0.0035
563.665	0.0033
563.952	0.0043
564.239	0.0045
564.525	0.0033
564.811	0.0045
565.098	0.0025
565.384	0.0032
565.67	0.0036
565.957	0.0031
566.243	0.0043
566.529	0.0029
566.815	0.0037
567.101	0.0033
567.387	0.0036
567.672	0.0036
567.958	0.0028
568.244	0.0017
568.529	0.0027
568.815	0.0036
569.1	0.0026
569.386	0.0036
569.671	0.0027
569.956	0.003
570.242	0.003
570.527	0.0031
570.812	0.0029
571.097	0.0017
571.382	0.0016
571.666	0.0025
571.951	0.0027
572.236	0.0027
572.521	0.0026
572.805	0.004
573.09	0.0037
573.374	0.0025
573.659	0.0026
573.943	0.0022
574.227	0.0035
574.511	0.0032
574.795	0.0032
575.079	0.0027
575.363	0.0029
575.647	0.0024
575.931	0.0027
576.215	0.0036
576.499	0.0027
576.782	0.0026
577.066	0.0022
577.349	0.0032
577.633	0.0039
577.916	0.0033
578.2	0.0032
578.483	0.0028
578.766	0.0033
579.049	0.003
579.332	0.0028
579.615	0.0029
579.898	0.0025
580.181	0.0024
580.464	0.0029
580.746	0.0027
581.029	0.003
581.312	0.0027
581.594	0.0017
581.877	0.0023
582.159	0.0033
582.441	0.002
582.724	0.0033
583.006	0.0035
583.288	0.0028
583.57	0.0029
583.852	0.0039
584.134	0.0041
584.416	0.0024
584.697	0.0033
584.979	0.0028
585.261	0.0028
585.542	0.0027
585.824	0.0026
586.105	0.0033
586.387	0.0027
586.668	0.003
586.949	0.0038
587.231	0.0035
587.512	0.0031
587.793	0.0027
588.074	0.0029
588.355	0.0025
588.636	0.0035
588.916	0.0033
589.197	0.0022
589.478	0.0028
589.758	0.0026
590.039	0.0019
590.319	0.0016
590.6	0.0023
590.88	0.0017
591.16	0.0019
591.441	0.0034
591.721	0.0023
592.001	0.0021
592.281	0.0031
592.561	0.003
592.841	0.003
593.12	0.0028
593.4	0.0031
593.68	0.0026
593.959	0.0025
594.239	0.0026
594.518	0.0036
594.798	0.0034
595.077	0.0028
595.356	0.0026
595.636	0.0022
595.915	0.0027
596.194	0.0023
596.473	0.0038
596.752	0.0029
597.031	0.0022
597.31	0.0018
597.588	0.0018
597.867	0.0024
598.146	0.0021
598.424	0.001
598.703	0.0019
598.981	0.0016
599.259	0.0014
599.538	0.0025
599.816	0.0024
600.094	0.0023
600.372	0.0022
600.65	0.0028
600.928	0.0028
601.206	0.0027
601.484	0.0026
601.762	0.0033
602.04	0.0034
602.317	0.0028
602.595	0.004
602.872	0.003
603.15	0.0033
603.427	0.0019
603.704	0.0016
603.982	0.0017
604.259	0.0013
604.536	0.0021
604.813	0.0014
605.09	0.0027
605.367	0.0018
605.644	0.0021
605.921	0.0015
606.197	0.0015
606.474	0.0018
606.751	0.0015
607.027	0.0017
607.304	0.0023
607.58	0.0027
607.856	0.0028
608.133	0.0033
608.409	0.0038
608.685	0.0035
608.961	0.0037
609.237	0.0038
609.513	0.0039
609.789	0.0028
610.065	0.0032
610.341	0.0025
610.616	0.0027
610.892	0.0031
611.167	0.004
611.443	0.0039
611.718	0.004
611.994	0.0034
612.269	0.0032
612.544	0.0032
612.819	0.0025
613.095	0.0031
613.37	0.0016
613.645	0.0018
613.919	0.0026
614.194	0.0025
614.469	0.0025
614.744	0.0023
615.019	0.0015
615.293	0.0013
615.568	0.0021
615.842	0.0022
616.116	0.0018
616.391	0.0006
616.665	0.0011
616.939	0.0007
617.213	0.0004
617.488	0.0012
617.762	0.0018
618.035	0.0029
618.309	0.0024
618.583	0.0027
618.857	0.0029
619.131	0.0031
619.404	0.0026
619.678	0.0028
619.951	0.0027
620.225	0.0021
620.498	0.0016
620.771	0.0012
621.045	0.0017
621.318	0.0041
621.591	0.0024
621.864	0.002
622.137	0.0016
622.41	0.0018
622.683	0.0013
622.956	0.0013
623.228	0.0018
623.501	0.0027
623.774	0.0031
624.046	0.0024
624.319	0.0019
624.591	0.0014
624.863	0.0018
625.136	0.0028
625.408	0.004
625.68	0.0033
625.952	0.0031
626.224	0.0028
626.496	0.0034
626.768	0.0024
627.04	0.0032
627.311	0.0028
627.583	0.0033
627.855	0.0032
628.126	0.0015
628.398	0.0018
628.669	0.0015
628.941	0.0013
629.212	0.0006
629.483	0.0013
629.755	0.0011
630.026	0.0013
630.297	0.0013
630.568	0.0021
630.839	0.0019
631.11	0.0021
631.38	0.0024
631.651	0.0021
631.922	0.0028
632.192	0.0011
632.463	0.0018
632.733	0.0002
633.004	0.0009
633.274	0.0015
633.545	0.0008
633.815	0.0025
634.085	0.002
634.355	0.0014
634.625	0.0024
634.895	0.0027
635.165	0.0025
635.435	0.0031
635.705	0.0028
635.974	0.0024
636.244	0.0013
636.514	0.0008
636.783	0.0016
637.053	0.0019
637.322	0.002
637.591	0.0017
637.861	0.0003
638.13	0.0014
638.399	0.002
638.668	0.0015
638.937	0.0026
639.206	0.0028
639.475	0.0029
639.744	0.0015
640.013	0.0021
640.281	0.0023
640.55	0.0014
640.819	0.0018
641.087	0.0011
641.356	0.0026
641.624	0.0025
641.892	0.0028
642.161	0.0018
642.429	0.0012
642.697	0.0012
642.965	0.0009
643.233	-0.0007
643.501	-0
643.769	0.0008
644.037	0.0005
644.305	0.0009
644.572	0.0002
644.84	0.0003
645.108	0.0019
645.375	0.0011
645.643	0.0021
645.91	0.0023
646.177	0.0021
646.445	0.0014
646.712	0.0025
646.979	0.0021
647.246	0.0032
647.513	0.0028
647.78	0.002
648.047	0.0004
648.314	0.0007
648.58	-0.0002
648.847	-0.0018
649.114	-0.0011
649.38	-0.0015
649.647	-0.001
649.913	-0.0013
650.18	0.0009
650.446	0.002
650.712	0.0016
650.978	0.0018
651.245	0.0031
651.511	0.0039
651.777	0.0033
652.043	0.0019
652.309	0.0019
652.574	0.0013
652.84	0.0028
653.106	0.0031
653.371	0.0038
653.637	0.003
653.903	0.0023
654.168	0.002
654.433	0.0013
654.699	0.0016
654.964	-0.0002
655.229	0.0003
655.494	0.0012
655.759	0
656.024	0.0002
656.289	-0
656.554	0.0005
656.819	0.0015
657.084	0.0032
657.349	0.0022
657.613	0.0019
657.878	0.0006
658.142	0.0011
658.407	0.0006
658.671	0.0008
658.936	0.0014
659.2	0.0015
659.464	0.001
659.728	0.0008
659.992	0.0002
660.256	-0.0007
660.52	-0.0001
660.784	-0
661.048	0.0006
661.312	0.0008
661.575	0.0004
661.839	0.0014
662.103	0.0008
662.366	0.0004
662.63	0.0008
662.893	0.0007
663.156	0.0017
663.42	0.0022
663.683	0.0015
663.946	0.0022
664.209	0.0027
664.472	0.0022
664.735	0.0021
664.998	0.0027
665.261	0.0036
665.524	0.0028
665.786	0.0033
666.049	0.0024
666.312	0.0027
666.574	0.0026
666.837	0.0035
667.099	0.0026
667.361	0.0035
667.624	0.0034
667.886	0.0036
668.148	0.0032
668.41	0.0028
668.672	0.0026
668.934	0.0031
669.196	0.0023
669.458	0.0015
669.72	0.0013
669.982	0.0011
670.243	0.0008
670.505	0.0009
670.766	0.0012
671.028	0.002
671.289	0.0012
671.551	0.0022
671.812	0.0011
672.073	0.001
672.334	0.0018
672.596	0.0006
672.857	0.0014
673.118	0.002
673.379	0.0034
673.639	0.0022
673.9	0.0016
674.161	0.0013
674.422	0.0017
674.682	0.0014
674.943	0.0003
675.203	0.0018
675.464	0.002
675.724	0.0009
675.985	0.0009
676.245	0.0009
676.505	0.0004
676.765	0.0001
677.025	0.0009
677.285	0.0002
677.545	-0.0004
677.805	0.0003
678.065	0.0007
678.325	0.0015
678.585	0.0026
678.844	0.0029
679.104	0.0029
679.363	0.0041
679.623	0.0033
679.882	0.0034
680.142	0.0039
680.401	0.0038
680.66	0.0036
680.919	0.002
681.178	0.0028
681.437	0.003
681.696	0.0019
681.955	0.0045
682.214	0.0036
682.473	0.0038
682.732	0.0025
682.99	0.0039
683.249	0.004
683.508	0.0035
683.766	0.0037
684.024	0.003
684.283	0.0015
684.541	0.0009
684.799	0.0005
685.058	-0.0009
685.316	-0.0012
685.574	-0.0013
685.832	-0.0006
686.09	-0.0009
686.348	-0.0012
686.606	-0.0005
686.863	-0.0005
687.121	-0.0015
687.379	-0.0011
687.636	-0.0024
687.894	-0.0019
688.151	-0.0014
688.409	-0.0008
688.666	-0.001
688.923	-0.0007
689.181	-0.0001
689.438	-0.0009
689.695	-0.0003
689.952	-0.0003
690.209	-0.0005
690.466	0.0004
690.723	-0.0004
690.979	-0.0006
691.236	-0.0009
691.493	-0.0024
691.75	-0.0021
692.006	-0.0014
692.263	-0.0012
692.519	-0.0009
692.775	-0.0021
693.032	-0.0021
693.288	-0.003
693.544	-0.0025
693.8	-0.0007
694.056	-0.0013
694.313	-0.0016
694.568	-0.0007
694.824	-0.0006
695.08	-0.0004
695.336	-0
695.592	-0.0005
695.847	0.0008
696.103	0.0023
696.359	0.0017
696.614	0.0017
696.869	-0.0001
697.125	-0.0009
697.38	-0.0016
697.635	-0.0003
697.891	0.0012
698.146	0.0002
698.401	0.0006
698.656	0.0002
698.911	0.0011
699.166	0.001
699.42	0.0019
699.675	0.0023
699.93	0.0023
700.185	0.0029
700.439	0.0013
700.694	0.0015
700.948	0.0018
701.203	0.001
701.457	0.0011
701.711	0.0009
701.965	-0.0004
702.22	0.0003
702.474	0.0003
702.728	-0.0002
702.982	-0.0003
703.236	-0.001
703.49	-0.0002
703.743	-0.0013
703.997	-0.001
704.251	-0.0008
704.504	0.0005
704.758	0.0005
705.012	0.0005
705.265	0.0005
705.518	0.0007
705.772	0.0013
706.025	0.0015
706.278	0.0008
706.531	0.0007
706.785	-0.0016
707.038	-0.0018
707.291	-0.0019
707.543	-0.0015
707.796	-0.0015
708.049	-0.0013
708.302	-0.0015
708.555	-0.0017
708.807	-0.0002
709.06	-0.0002
709.312	0.0005
709.565	0.0009
709.817	0.002
710.069	0.0014
710.322	0.0013
710.574	0.0017
710.826	0.0017
711.078	0.0006
711.33	0.0011
711.582	0.0013
711.834	0.0011
712.086	0.0018
712.338	0.0006
712.59	0.0003
712.841	-0.0009
713.093	-0.0005
713.344	-0.0002
713.596	-0.0007
713.847	-0.0023
714.099	-0.0014
714.35	-0.0001
714.601	-0.0016
714.853	-0.0023
715.104	-0.0013
715.355	-0.0017
715.606	-0
715.857	0.0005
716.108	0.0007
716.359	0.001
716.609	-0.0006
716.86	0.0013
717.111	0.0006
717.361	0.0008
717.612	0.0008
717.863	0.0011
718.113	0.0026
718.363	0.0016
718.614	0.0018
718.864	0.0013
719.114	0.0017
719.364	-0
719.614	-0.0003
719.865	-0.0005
720.114	-0.0001
720.364	0.0003
720.614	-0.0015
720.864	-0.0014
721.114	-0.0014
721.364	-0.0018
721.613	-0.0019
721.863	-0.0019
722.112	-0.002
722.362	-0.0012
722.611	-0.0004
722.86	0.0009
723.11	0.0011
723.359	0.001
723.608	0.0012
723.857	0.0028
724.106	0.0021
724.355	0.0018
724.604	0.0006
724.853	0.0002
725.102	-0.0006
725.351	-0.0018
725.599	-0.0025
725.848	-0.0024
726.097	-0.001
726.345	-0.0021
726.594	-0.0017
726.842	-0.0008
727.09	-0.002
727.339	-0.0013
727.587	-0.0015
727.835	-0.0025
728.083	-0.0027
728.331	-0.0025
728.579	-0.0014
728.827	-0.0021
729.075	-0.0026
729.323	-0.0028
729.571	-0.0033
729.818	-0.0037
730.066	-0.0028
730.314	-0.0019
730.561	-0.0021
730.809	-0.0034
731.056	-0.0028
731.303	-0.0024
731.551	-0.0028
731.798	-0.0028
732.045	-0.0018
732.292	-0.0019
732.539	-0.0017
732.786	-0.0029
733.033	-0.0027
733.28	-0.0019
733.527	-0.0027
733.774	-0.0021
734.021	-0.0028
734.267	-0.0021
734.514	-0.0026
734.76	-0.0023
735.007	-0.002
735.253	-0.0012
735.5	0.0007
735.746	0.0016
735.992	0.0013
736.238	0.0013
736.485	0.0017
736.731	0.002
736.977	0.0004
737.223	-0.0004
737.469	-0.0005
737.715	0.0002
737.96	0.0002
738.206	0.0002
738.452	0.0005
738.697	0.0002
738.943	-0.0004
739.189	0.0006
739.434	-0.0005
739.679	0.0007
739.925	0.0021
740.17	0.0018
740.415	0.0011
740.66	0.0022
740.906	0.0013
741.151	0.002
741.396	0.0009
741.641	-0.0001
741.886	0.0017
742.13	0.0006
742.375	0.0013
742.62	-0.0002
742.865	0.0003
743.109	0.0006
743.354	-0.0009
743.598	-0.0011
743.843	-0.002
744.087	-0.003
744.331	-0.0025
744.576	-0.0012
744.82	-0.0013
745.064	-0.0009
745.308	-0.0006
745.552	-0.0005
745.796	-0.001
746.04	-0.0008
746.284	-0.0015
746.528	-0.0008
746.771	-0.0014
747.015	-0.0001
747.259	-0.0015
747.502	-0.0024
747.746	-0.0009
747.989	-0.0014
748.233	0.0006
748.476	0.0003
748.719	-0.0001
748.963	0.0004
749.206	0.0002
749.449	0.0001
749.692	0.0003
749.935	-0
750.178	0.0001
750.421	-0.0008
750.664	0.0003
750.906	0.0005
751.149	-0.0002
751.392	0.0014
751.635	0.0005
751.877	0.0009
752.12	-0.0002
752.362	0.001
752.604	0.0004
752.847	0.0008
753.089	0.0007
753.331	-0
753.573	0.0014
753.816	0.0012
754.058	0.001
754.3	0.0015
754.542	0.0013
754.783	0.0018
755.025	0.0022
755.267	0.0021
755.509	0.0027
755.75	0.0006
755.992	0.0013
756.234	0.002
756.475	0.0018
756.716	0.0012
756.958	0.0004
757.199	0.0004
757.44	0.0015
757.682	0.0013
757.923	0.0015
758.164	0.0024
758.405	0.0021
758.646	0.0016
758.887	0.0009
759.128	0.0011
759.369	-0.0007
759.609	0.0001
759.85	-0
760.091	-0.0002
760.331	0.0011
760.572	0.0005
760.812	-0.0002
761.053	0.0008
761.293	0.0021
761.533	0.0019
761.774	0.0015
762.014	0.0019
762.254	0.0022
762.494	0.0023
762.734	0.0017
762.974	0.0007
763.214	0.0011
763.454	0.0015
763.694	0.0013
763.933	0.0028
764.173	0.0031
764.413	0.0039
764.652	0.0014
764.892	0.0013
765.131	0.0003
765.371	0.0004
765.61	-0.0001
765.849	-0.0016
766.089	-0.0019
766.328	-0.0015
766.567	-0.0017
766.806	-0.0022
767.045	-0.0032
767.284	-0.0009
767.523	-0.0018
767.762	-0.0021
768.001	-0.0018
768.239	-0.0019
768.478	-0.0023
768.717	-0.003
768.955	-0.0024
769.194	-0.0019
769.432	-0.0017
769.671	-0.0009
769.909	-0.0013
770.148	-0.0015
770.386	-0.0018
770.624	-0.0014
770.862	-0.002
771.1	-0.0016
771.338	-0.0016
771.576	-0.0006
771.814	0.0004
772.052	0.0001
772.29	0.0011
772.528	0.0006
772.765	-0.0004
773.003	-0.0004
773.24	0.001
773.478	0.0005
773.716	0.0017
773.953	0.0018
774.19	0.0023
774.428	0.0028
774.665	0.0041
774.902	0.0043
775.139	0.0032
775.376	0.0014
775.613	0.0023
775.85	0.0018
776.087	0.0013
776.324	0.0011
776.561	-0.0001
776.798	0.0012
777.034	0.0004
777.271	0.0003
777.508	0.0005
777.744	0.0019
777.981	0.0022
778.217	0.0014
778.454	0.0004
778.69	0.0004
778.926	0.0006
779.162	0.0004
779.399	0.0013
779.635	0.0001
779.871	0.0005
780.107	0.0001
780.343	-0.001
780.579	-0.0003
780.814	-0.0003
781.05	-0.0003
781.286	-0.0004
781.522	-0.0015
781.757	-0.0016
781.993	-0.0009
782.228	-0.0014
782.464	-0.0006
782.699	-0.0001
782.934	-0.0007
783.17	-0.0001
783.405	0.0005
783.64	-0.0001
783.875	-0.0013
784.11	-0.0017
784.345	-0.0008
784.58	-0.0009
784.815	-0.0004
785.05	-0.0018
785.285	-0.0011
785.52	-0.0006
785.754	-0.0007
785.989	-0.0003
786.223	0.0008
786.458	0.002
786.692	0.0027
786.927	0.004
787.161	0.0038
787.396	0.0045
787.63	0.0031
787.864	0.0019
788.098	0.0005
788.332	-0.0001
788.566	0.0002
788.8	-0.0005
789.034	-0.0005
789.268	-0.0005
789.502	-0.0007
789.736	0.0002
789.969	-0.0001
790.203	0.0008
790.437	0.0012
790.67	0.0013
790.904	0.0024
791.137	0.0036
791.37	0.0031
791.604	0.0034
791.837	0.0041
792.07	0.0042
792.303	0.0045
792.537	0.0047
792.77	0.004
793.003	0.0041
793.236	0.0028
793.469	0.0023
793.701	0.0017
793.934	0.0017
794.167	0.0003
794.4	0.0001
794.632	-0.0002
794.865	-0.0003
795.097	-0.0013
795.33	-0.0011
795.562	-0.0011
795.795	-0.0012
796.027	-0.0012
796.259	0.0001
796.491	-0.0002
796.724	0.001
796.956	0.0008
797.188	0.0004
797.42	-0
797.652	0.0004
797.883	0.0016
798.115	0.0023
798.347	0.002
798.579	0.0018
798.81	0.0017
799.042	0.0014
799.274	0.0032
799.505	0.002
799.737	0.0021
799.968	0.0019
800.199	0.0011
800.431	0.0027
800.662	0.0001
800.893	0.0011
801.124	0.0012
801.355	0.0014
801.586	0.0019
801.817	0.0032
802.048	0.0029
802.279	0.0021
802.51	0.0032
802.741	0.0041
802.971	0.0037
803.202	0.0023
803.433	0.0018
803.663	0.0016
803.894	0.0023
804.124	0.0021
804.354	0.003
804.585	0.0044
804.815	0.003
805.045	0.004
805.275	0.0025
805.506	-0.0247
805.736	-0.0806
805.966	-0.1231
806.196	0.0434
