Data from 03 0.4 mM K2Cr2O7 0.25 M BQDS 1 M H2SO4 5 min_Absorbance_0100.txt Node
Date: Wed Dec 15 01:50:12 EST 2021
User: kwabilab-user
Spectrometer: HDX00518
Trigger mode: 0
Integration Time (sec): 5.000000E-2
Scans to average: 50
Nonlinearity correction enabled: false
Boxcar width: 0
Storing dark spectrum: false
XAxis mode: Wavelengths
Number of Pixels in Spectrum: 2068
>>>>>Begin Spectral Data<<<<<
195.27	-0.2637
195.642	-0.0717
196.014	-0.2267
196.386	-0.1793
196.758	-0.1627
197.129	-0.0673
197.501	-0.0827
197.872	-0.0373
198.244	-0.0257
198.615	-0.0015
198.986	-0.0286
199.357	-0.02
199.728	-0.0098
200.099	-0.0237
200.47	-0.03
200.841	-0.0261
201.212	-0.0246
201.582	0.0014
201.953	-0.0167
202.323	-0.0312
202.694	-0.0256
203.064	-0.0348
203.434	-0.0549
203.804	-0.0406
204.174	-0.0363
204.544	-0.0214
204.914	-0.0637
205.284	-0.042
205.653	-0.043
206.023	-0.0381
206.393	-0.0517
206.762	-0.0445
207.131	-0.0199
207.501	-0.0379
207.87	-0.0365
208.239	-0.0396
208.608	-0.0393
208.977	-0.0506
209.346	-0.0566
209.715	-0.0375
210.083	-0.0483
210.452	-0.0508
210.82	-0.0337
211.189	-0.0689
211.557	-0.0122
211.925	-0.0579
212.294	-0.0458
212.662	-0.036
213.03	-0.0394
213.398	-0.0478
213.766	-0.0541
214.133	-0.057
214.501	-0.0514
214.869	-0.0445
215.236	-0.0418
215.604	-0.0351
215.971	-0.0105
216.338	-0.0514
216.705	-0.0354
217.072	-0.0313
217.439	-0.0194
217.806	-0.0248
218.173	-0.0233
218.54	-0.0298
218.907	0.0054
219.273	-0.0191
219.64	0.014
220.006	0.0143
220.373	0.0287
220.739	0.0359
221.105	0.0634
221.471	0.0749
221.837	0.0976
222.203	0.1051
222.569	0.1194
222.935	0.1324
223.3	0.172
223.666	0.1743
224.031	0.2059
224.397	0.2152
224.762	0.2503
225.127	0.2648
225.493	0.2939
225.858	0.3279
226.223	0.346
226.588	0.3633
226.952	0.3936
227.317	0.4087
227.682	0.4194
228.046	0.4296
228.411	0.4676
228.775	0.4722
229.14	0.4914
229.504	0.4919
229.868	0.5059
230.232	0.5129
230.596	0.5417
230.96	0.562
231.324	0.5453
231.688	0.5508
232.052	0.5648
232.415	0.5744
232.779	0.5712
233.142	0.5897
233.505	0.5979
233.869	0.5926
234.232	0.5857
234.595	0.5925
234.958	0.5986
235.321	0.6087
235.684	0.5933
236.047	0.5799
236.409	0.589
236.772	0.5865
237.134	0.5875
237.497	0.581
237.859	0.5963
238.222	0.5881
238.584	0.5801
238.946	0.585
239.308	0.5725
239.67	0.5696
240.032	0.5773
240.393	0.571
240.755	0.5675
241.117	0.5707
241.478	0.5679
241.84	0.5654
242.201	0.5625
242.562	0.5548
242.924	0.5485
243.285	0.5505
243.646	0.5518
244.007	0.545
244.368	0.547
244.728	0.5414
245.089	0.544
245.45	0.5327
245.81	0.534
246.171	0.5291
246.531	0.5401
246.891	0.5327
247.252	0.5278
247.612	0.5342
247.972	0.5299
248.332	0.5297
248.692	0.5269
249.051	0.5298
249.411	0.5259
249.771	0.5189
250.13	0.5243
250.49	0.5237
250.849	0.522
251.208	0.5234
251.568	0.5235
251.927	0.5216
252.286	0.5259
252.645	0.522
253.004	0.5225
253.363	0.5199
253.721	0.5203
254.08	0.5187
254.439	0.5165
254.797	0.5168
255.155	0.5184
255.514	0.5189
255.872	0.5152
256.23	0.5134
256.588	0.5147
256.946	0.5193
257.304	0.514
257.662	0.5161
258.02	0.5154
258.377	0.5106
258.735	0.5134
259.093	0.5067
259.45	0.5078
259.807	0.5114
260.165	0.5115
260.522	0.5097
260.879	0.503
261.236	0.5069
261.593	0.5028
261.95	0.5062
262.306	0.502
262.663	0.4991
263.02	0.5035
263.376	0.4935
263.733	0.4917
264.089	0.496
264.445	0.4918
264.802	0.4947
265.158	0.489
265.514	0.4903
265.87	0.4912
266.226	0.4847
266.581	0.4832
266.937	0.4865
267.293	0.4811
267.648	0.4835
268.004	0.475
268.359	0.4736
268.714	0.4667
269.07	0.4714
269.425	0.4679
269.78	0.463
270.135	0.4607
270.49	0.4571
270.844	0.4609
271.199	0.4571
271.554	0.4534
271.908	0.4467
272.263	0.4485
272.617	0.4466
272.972	0.4418
273.326	0.441
273.68	0.4357
274.034	0.4312
274.388	0.4354
274.742	0.4288
275.096	0.4234
275.45	0.4213
275.803	0.4202
276.157	0.4149
276.51	0.4105
276.864	0.4101
277.217	0.4072
277.571	0.4103
277.924	0.3968
278.277	0.3986
278.63	0.3914
278.983	0.3911
279.336	0.3865
279.688	0.3808
280.041	0.3792
280.394	0.3738
280.746	0.3719
281.099	0.371
281.451	0.3642
281.803	0.363
282.156	0.3586
282.508	0.3543
282.86	0.3481
283.212	0.3466
283.564	0.3423
283.916	0.3396
284.267	0.3357
284.619	0.3354
284.971	0.329
285.322	0.3273
285.673	0.3218
286.025	0.3187
286.376	0.3145
286.727	0.312
287.078	0.3075
287.429	0.3076
287.78	0.3028
288.131	0.2981
288.482	0.2957
288.833	0.2924
289.183	0.2876
289.534	0.2838
289.884	0.2826
290.235	0.2771
290.585	0.2753
290.935	0.2734
291.285	0.2675
291.635	0.2656
291.985	0.263
292.335	0.2602
292.685	0.256
293.035	0.2516
293.384	0.2491
293.734	0.2458
294.083	0.2432
294.433	0.2405
294.782	0.2373
295.131	0.2316
295.48	0.2301
295.829	0.2253
296.179	0.2245
296.527	0.2211
296.876	0.2175
297.225	0.2139
297.574	0.212
297.922	0.2073
298.271	0.2053
298.619	0.2023
298.968	0.2012
299.316	0.1975
299.664	0.196
300.012	0.1925
300.36	0.189
300.708	0.1873
301.056	0.1848
301.404	0.1827
301.752	0.1797
302.099	0.178
302.447	0.1751
302.794	0.1736
303.142	0.1702
303.489	0.1684
303.836	0.1665
304.183	0.165
304.531	0.1643
304.878	0.1606
305.224	0.1593
305.571	0.1579
305.918	0.1561
306.265	0.1534
306.611	0.1524
306.958	0.152
307.304	0.1496
307.651	0.1492
307.997	0.1468
308.343	0.1453
308.689	0.1447
309.035	0.1441
309.381	0.1433
309.727	0.1421
310.073	0.142
310.419	0.1402
310.764	0.1404
311.11	0.1393
311.455	0.1381
311.801	0.1379
312.146	0.1367
312.491	0.1365
312.837	0.1371
313.182	0.1348
313.527	0.1348
313.872	0.1351
314.216	0.1348
314.561	0.1341
314.906	0.1341
315.251	0.1352
315.595	0.1346
315.94	0.1345
316.284	0.1346
316.628	0.1344
316.972	0.1339
317.317	0.134
317.661	0.1355
318.005	0.1357
318.348	0.1352
318.692	0.1357
319.036	0.1359
319.38	0.137
319.723	0.1368
320.067	0.1381
320.41	0.1384
320.754	0.1388
321.097	0.1381
321.44	0.1396
321.783	0.1401
322.126	0.1417
322.469	0.1414
322.812	0.1425
323.155	0.1434
323.498	0.1442
323.84	0.1446
324.183	0.1456
324.525	0.1466
324.868	0.1486
325.21	0.1485
325.552	0.1488
325.894	0.1508
326.236	0.1513
326.578	0.1523
326.92	0.1532
327.262	0.1538
327.604	0.1554
327.946	0.1568
328.287	0.1573
328.629	0.1586
328.97	0.1593
329.312	0.1602
329.653	0.1621
329.994	0.1628
330.335	0.164
330.676	0.1659
331.017	0.1662
331.358	0.1675
331.699	0.1688
332.04	0.1696
332.38	0.171
332.721	0.1718
333.061	0.1728
333.402	0.1739
333.742	0.1747
334.083	0.1756
334.423	0.1774
334.763	0.1785
335.103	0.1793
335.443	0.1802
335.783	0.1811
336.123	0.1817
336.462	0.1826
336.802	0.1835
337.141	0.1852
337.481	0.1851
337.82	0.1864
338.16	0.1878
338.499	0.1887
338.838	0.1893
339.177	0.1901
339.516	0.1902
339.855	0.1922
340.194	0.193
340.533	0.1932
340.872	0.1942
341.21	0.1953
341.549	0.1952
341.887	0.1966
342.226	0.1962
342.564	0.1973
342.902	0.1976
343.24	0.1974
343.578	0.1979
343.916	0.1984
344.254	0.199
344.592	0.2
344.93	0.199
345.268	0.1992
345.605	0.1995
345.943	0.2004
346.28	0.1991
346.618	0.1994
346.955	0.1999
347.292	0.2008
347.629	0.2006
347.966	0.1993
348.303	0.2006
348.64	0.1999
348.977	0.2005
349.314	0.2013
349.65	0.2
349.987	0.2008
350.324	0.1992
350.66	0.2004
350.996	0.2002
351.333	0.1995
351.669	0.1993
352.005	0.1986
352.341	0.1973
352.677	0.1972
353.013	0.1969
353.349	0.1965
353.685	0.1951
354.02	0.1933
354.356	0.1936
354.691	0.193
355.027	0.192
355.362	0.1906
355.697	0.1895
356.033	0.1897
356.368	0.1883
356.703	0.1883
357.038	0.1878
357.373	0.1857
357.707	0.186
358.042	0.1851
358.377	0.1839
358.711	0.1837
359.046	0.1825
359.38	0.1811
359.715	0.1813
360.049	0.1792
360.383	0.1781
360.717	0.1777
361.051	0.176
361.385	0.1757
361.719	0.1743
362.053	0.1739
362.387	0.1717
362.72	0.1701
363.054	0.1693
363.387	0.1672
363.721	0.1665
364.054	0.1656
364.387	0.1637
364.721	0.1619
365.054	0.1612
365.387	0.1595
365.72	0.1585
366.053	0.1571
366.385	0.155
366.718	0.1544
367.051	0.1531
367.383	0.1529
367.716	0.1515
368.048	0.1504
368.381	0.1496
368.713	0.1473
369.045	0.1476
369.377	0.1466
369.709	0.1452
370.041	0.1443
370.373	0.1426
370.705	0.1414
371.037	0.1407
371.368	0.1398
371.7	0.1379
372.031	0.1364
372.363	0.1349
372.694	0.1335
373.025	0.1322
373.356	0.1306
373.688	0.1288
374.019	0.1281
374.35	0.126
374.68	0.1244
375.011	0.1228
375.342	0.1217
375.673	0.1204
376.003	0.1178
376.334	0.1174
376.664	0.116
376.995	0.1146
377.325	0.1137
377.655	0.1117
377.985	0.11
378.315	0.1097
378.645	0.1088
378.975	0.1082
379.305	0.1061
379.635	0.106
379.964	0.1045
380.294	0.1038
380.623	0.1028
380.953	0.1014
381.282	0.1004
381.611	0.0998
381.941	0.099
382.27	0.0978
382.599	0.0968
382.928	0.0952
383.257	0.0941
383.585	0.0936
383.914	0.0911
384.243	0.0901
384.571	0.0892
384.9	0.0882
385.228	0.0868
385.557	0.0851
385.885	0.0837
386.213	0.083
386.541	0.0822
386.869	0.0803
387.197	0.0792
387.525	0.0782
387.853	0.0768
388.181	0.0754
388.508	0.0747
388.836	0.0732
389.164	0.0729
389.491	0.0709
389.818	0.0706
390.146	0.0692
390.473	0.0689
390.8	0.0679
391.127	0.0664
391.454	0.0657
391.781	0.0657
392.108	0.0649
392.435	0.0627
392.761	0.063
393.088	0.0622
393.415	0.0617
393.741	0.0611
394.067	0.0609
394.394	0.0604
394.72	0.0588
395.046	0.0576
395.372	0.0574
395.698	0.0564
396.024	0.0559
396.35	0.0555
396.676	0.0543
397.001	0.0532
397.327	0.053
397.653	0.0521
397.978	0.0519
398.303	0.0509
398.629	0.0501
398.954	0.0502
399.279	0.0495
399.604	0.049
399.929	0.0483
400.254	0.0473
400.579	0.0469
400.904	0.0463
401.229	0.0458
401.553	0.0452
401.878	0.0452
402.202	0.0449
402.527	0.0439
402.851	0.0442
403.175	0.0428
403.5	0.0422
403.824	0.0415
404.148	0.0423
404.472	0.0416
404.796	0.0418
405.119	0.0411
405.443	0.0412
405.767	0.0409
406.09	0.0409
406.414	0.0402
406.737	0.0407
407.061	0.0401
407.384	0.0405
407.707	0.0393
408.03	0.0394
408.353	0.0388
408.676	0.0386
408.999	0.0392
409.322	0.0384
409.645	0.0386
409.968	0.0385
410.29	0.0386
410.613	0.0388
410.935	0.0378
411.258	0.0382
411.58	0.0376
411.902	0.0372
412.224	0.037
412.546	0.0376
412.868	0.0388
413.19	0.0373
413.512	0.0371
413.834	0.0372
414.156	0.0372
414.477	0.0365
414.799	0.0372
415.121	0.0366
415.442	0.0366
415.763	0.0374
416.085	0.0376
416.406	0.037
416.727	0.0374
417.048	0.0372
417.369	0.0366
417.69	0.0368
418.011	0.0369
418.331	0.0368
418.652	0.0369
418.973	0.0365
419.293	0.0367
419.614	0.0359
419.934	0.0368
420.254	0.0366
420.574	0.036
420.895	0.0365
421.215	0.0366
421.535	0.0363
421.855	0.0359
422.174	0.0361
422.494	0.0357
422.814	0.0363
423.134	0.0362
423.453	0.0366
423.773	0.037
424.092	0.0364
424.411	0.0367
424.731	0.0367
425.05	0.0369
425.369	0.0364
425.688	0.0363
426.007	0.0362
426.326	0.0365
426.644	0.0361
426.963	0.0361
427.282	0.036
427.6	0.0371
427.919	0.0362
428.237	0.0365
428.556	0.0367
428.874	0.0365
429.192	0.0367
429.51	0.0361
429.828	0.0361
430.146	0.0362
430.464	0.0363
430.782	0.036
431.1	0.0358
431.418	0.036
431.735	0.0356
432.053	0.0367
432.37	0.0359
432.688	0.0358
433.005	0.0361
433.322	0.0366
433.639	0.0366
433.957	0.0363
434.274	0.0362
434.591	0.0363
434.907	0.0362
435.224	0.0361
435.541	0.036
435.858	0.0374
436.174	0.0369
436.491	0.0364
436.807	0.0356
437.124	0.0361
437.44	0.0355
437.756	0.0361
438.072	0.035
438.388	0.0357
438.704	0.0354
439.02	0.0359
439.336	0.0356
439.652	0.036
439.968	0.0356
440.283	0.0361
440.599	0.036
440.914	0.0355
441.23	0.0361
441.545	0.0358
441.86	0.0355
442.175	0.0361
442.491	0.0356
442.806	0.0356
443.121	0.0345
443.435	0.0347
443.75	0.0351
444.065	0.0345
444.38	0.0354
444.694	0.0343
445.009	0.0347
445.323	0.0354
445.638	0.0349
445.952	0.0345
446.266	0.0339
446.58	0.0332
446.894	0.0344
447.208	0.034
447.522	0.0335
447.836	0.0345
448.15	0.0337
448.464	0.0333
448.777	0.0342
449.091	0.0339
449.404	0.0331
449.718	0.0331
450.031	0.0324
450.345	0.0332
450.658	0.0327
450.971	0.0332
451.284	0.0327
451.597	0.0332
451.91	0.0322
452.223	0.0334
452.535	0.0325
452.848	0.0323
453.161	0.0327
453.473	0.0322
453.786	0.0326
454.098	0.032
454.411	0.0318
454.723	0.0323
455.035	0.0311
455.347	0.0311
455.659	0.032
455.971	0.0318
456.283	0.032
456.595	0.0323
456.907	0.0318
457.218	0.0314
457.53	0.0312
457.841	0.0307
458.153	0.0307
458.464	0.0306
458.776	0.0306
459.087	0.0307
459.398	0.0302
459.709	0.0288
460.02	0.0308
460.331	0.0307
460.642	0.0301
460.953	0.029
461.263	0.0299
461.574	0.0285
461.885	0.0296
462.195	0.0285
462.506	0.0294
462.816	0.0297
463.126	0.0289
463.437	0.0286
463.747	0.0283
464.057	0.0269
464.367	0.027
464.677	0.0272
464.987	0.0272
465.296	0.0268
465.606	0.0269
465.916	0.0265
466.225	0.0269
466.535	0.0265
466.844	0.0274
467.154	0.0269
467.463	0.0264
467.772	0.026
468.081	0.026
468.39	0.0261
468.699	0.0261
469.008	0.0255
469.317	0.0258
469.626	0.0256
469.935	0.0253
470.243	0.0255
470.552	0.0248
470.86	0.0255
471.169	0.0244
471.477	0.0234
471.785	0.0234
472.093	0.0239
472.402	0.0232
472.71	0.0229
473.018	0.0234
473.326	0.0235
473.633	0.0235
473.941	0.0227
474.249	0.0229
474.556	0.0226
474.864	0.0228
475.171	0.0225
475.479	0.0225
475.786	0.0226
476.094	0.0219
476.401	0.0213
476.708	0.0222
477.015	0.0222
477.322	0.0208
477.629	0.0203
477.936	0.021
478.242	0.0208
478.549	0.0211
478.856	0.0203
479.162	0.0209
479.469	0.0206
479.775	0.0207
480.081	0.019
480.388	0.019
480.694	0.0199
481	0.0192
481.306	0.0193
481.612	0.0194
481.918	0.0198
482.224	0.0189
482.53	0.0187
482.835	0.0187
483.141	0.0186
483.446	0.0189
483.752	0.018
484.057	0.0178
484.363	0.0172
484.668	0.018
484.973	0.017
485.278	0.0165
485.583	0.0164
485.888	0.0171
486.193	0.0163
486.498	0.0173
486.803	0.0165
487.107	0.0156
487.412	0.0151
487.717	0.0159
488.021	0.0165
488.325	0.0151
488.63	0.0163
488.934	0.0151
489.238	0.0146
489.542	0.015
489.846	0.0147
490.15	0.015
490.454	0.0159
490.758	0.0148
491.062	0.0149
491.366	0.0142
491.669	0.0143
491.973	0.0145
492.276	0.014
492.58	0.0134
492.883	0.0142
493.186	0.0134
493.489	0.0143
493.792	0.0125
494.096	0.0128
494.399	0.0131
494.701	0.0126
495.004	0.0118
495.307	0.0127
495.61	0.0122
495.912	0.0128
496.215	0.0129
496.517	0.0133
496.82	0.0119
497.122	0.0122
497.424	0.0119
497.727	0.0108
498.029	0.012
498.331	0.0111
498.633	0.011
498.935	0.011
499.237	0.0116
499.538	0.0108
499.84	0.0105
500.142	0.0096
500.443	0.01
500.745	0.0104
501.046	0.0102
501.348	0.0092
501.649	0.0095
501.95	0.01
502.251	0.0105
502.552	0.009
502.853	0.0092
503.154	0.01
503.455	0.0093
503.756	0.0098
504.057	0.0082
504.357	0.0084
504.658	0.0095
504.958	0.0076
505.259	0.0094
505.559	0.0085
505.859	0.0076
506.16	0.0082
506.46	0.0082
506.76	0.0081
507.06	0.0072
507.36	0.0077
507.66	0.0087
507.96	0.0089
508.259	0.0084
508.559	0.0074
508.859	0.008
509.158	0.0073
509.457	0.0069
509.757	0.0065
510.056	0.0071
510.355	0.0075
510.655	0.0061
510.954	0.0062
511.253	0.0066
511.552	0.0073
511.851	0.0063
512.149	0.0059
512.448	0.0061
512.747	0.006
513.045	0.0053
513.344	0.006
513.642	0.0056
513.941	0.0063
514.239	0.006
514.537	0.0059
514.836	0.0051
515.134	0.0057
515.432	0.0057
515.73	0.0052
516.028	0.0061
516.326	0.0044
516.623	0.0047
516.921	0.0049
517.219	0.0064
517.516	0.0053
517.814	0.0052
518.111	0.0048
518.409	0.005
518.706	0.0055
519.003	0.0051
519.3	0.0048
519.597	0.0052
519.894	0.0045
520.191	0.0061
520.488	0.0048
520.785	0.0046
521.082	0.0052
521.378	0.0055
521.675	0.0041
521.971	0.0039
522.268	0.0053
522.564	0.004
522.861	0.0054
523.157	0.004
523.453	0.004
523.749	0.0037
524.045	0.0044
524.341	0.0045
524.637	0.0045
524.933	0.0047
525.229	0.0043
525.524	0.0036
525.82	0.0043
526.115	0.0034
526.411	0.0042
526.706	0.0036
527.002	0.004
527.297	0.0026
527.592	0.0044
527.887	0.0028
528.182	0.0025
528.477	0.0036
528.772	0.0039
529.067	0.0035
529.362	0.0039
529.657	0.0035
529.951	0.0033
530.246	0.0023
530.54	0.003
530.835	0.0031
531.129	0.003
531.423	0.0033
531.718	0.0025
532.012	0.0031
532.306	0.0023
532.6	0.002
532.894	0.0027
533.188	0.0013
533.482	0.0025
533.775	0.0019
534.069	0.0025
534.363	0.0021
534.656	0.0024
534.95	0.0033
535.243	0.0019
535.536	0.0026
535.83	0.0025
536.123	0.0015
536.416	0.0027
536.709	0.0034
537.002	0.0039
537.295	0.0036
537.588	0.003
537.881	0.0019
538.173	0.0035
538.466	0.0032
538.759	0.0027
539.051	0.0042
539.344	0.0043
539.636	0.0033
539.928	0.0043
540.22	0.0021
540.513	0.0037
540.805	0.0035
541.097	0.0038
541.389	0.0032
541.681	0.0035
541.972	0.0028
542.264	0.0039
542.556	0.0043
542.847	0.0025
543.139	0.0038
543.431	0.0026
543.722	0.0026
544.013	0.0027
544.305	0.0032
544.596	0.0035
544.887	0.0028
545.178	0.0047
545.469	0.0044
545.76	0.0036
546.051	0.0037
546.342	0.0034
546.632	0.0038
546.923	0.0019
547.214	0.0024
547.504	0.0036
547.795	0.0024
548.085	0.0028
548.375	0.0032
548.666	0.0037
548.956	0.0035
549.246	0.0042
549.536	0.0039
549.826	0.0045
550.116	0.0038
550.406	0.0033
550.695	0.0028
550.985	0.0035
551.275	0.0036
551.564	0.0048
551.854	0.0036
552.143	0.0039
552.433	0.0032
552.722	0.0035
553.011	0.0035
553.3	0.0028
553.589	0.0039
553.879	0.0041
554.167	0.0035
554.456	0.0031
554.745	0.0035
555.034	0.0047
555.323	0.0034
555.611	0.0041
555.9	0.0037
556.188	0.0038
556.477	0.0024
556.765	0.0031
557.053	0.0037
557.342	0.0038
557.63	0.0033
557.918	0.0043
558.206	0.0047
558.494	0.0042
558.782	0.0034
559.069	0.0044
559.357	0.0032
559.645	0.0039
559.932	0.0032
560.22	0.004
560.507	0.002
560.795	0.0023
561.082	0.0013
561.37	0.0026
561.657	0.0022
561.944	0.0029
562.231	0.003
562.518	0.0034
562.805	0.0037
563.092	0.0027
563.379	0.0035
563.665	0.0037
563.952	0.0045
564.239	0.0039
564.525	0.0038
564.811	0.0037
565.098	0.0027
565.384	0.0027
565.67	0.003
565.957	0.0035
566.243	0.0037
566.529	0.0028
566.815	0.0019
567.101	0.0021
567.387	0.0015
567.672	0.0029
567.958	0.0021
568.244	0.0019
568.529	0.0029
568.815	0.0022
569.1	0.0022
569.386	0.0033
569.671	0.0025
569.956	0.003
570.242	0.0024
570.527	0.0025
570.812	0.0028
571.097	0.0024
571.382	0.0019
571.666	0.0026
571.951	0.0034
572.236	0.0024
572.521	0.0024
572.805	0.0043
573.09	0.0034
573.374	0.0017
573.659	0.0027
573.943	0.0021
574.227	0.0029
574.511	0.0034
574.795	0.0033
575.079	0.0041
575.363	0.0026
575.647	0.0028
575.931	0.0036
576.215	0.0029
576.499	0.0024
576.782	0.0026
577.066	0.0026
577.349	0.0036
577.633	0.0038
577.916	0.0028
578.2	0.0039
578.483	0.0032
578.766	0.0039
579.049	0.0026
579.332	0.0029
579.615	0.0026
579.898	0.0022
580.181	0.003
580.464	0.0026
580.746	0.0025
581.029	0.0031
581.312	0.0027
581.594	0.0025
581.877	0.0025
582.159	0.0043
582.441	0.0021
582.724	0.0031
583.006	0.0039
583.288	0.0025
583.57	0.0026
583.852	0.0041
584.134	0.0037
584.416	0.0026
584.697	0.0035
584.979	0.0028
585.261	0.0024
585.542	0.003
585.824	0.0036
586.105	0.0035
586.387	0.0034
586.668	0.0032
586.949	0.0036
587.231	0.0035
587.512	0.003
587.793	0.0026
588.074	0.0032
588.355	0.0033
588.636	0.0025
588.916	0.0028
589.197	0.0028
589.478	0.0029
589.758	0.0024
590.039	0.0021
590.319	0.0022
590.6	0.0021
590.88	0.0027
591.16	0.0023
591.441	0.0038
591.721	0.0027
592.001	0.0021
592.281	0.0029
592.561	0.0029
592.841	0.0028
593.12	0.0022
593.4	0.003
593.68	0.0027
593.959	0.0017
594.239	0.0023
594.518	0.0038
594.798	0.0034
595.077	0.0029
595.356	0.0022
595.636	0.0022
595.915	0.0022
596.194	0.002
596.473	0.0024
596.752	0.0018
597.031	0.003
597.31	0.0013
597.588	0.0016
597.867	0.002
598.146	0.0015
598.424	0.0018
598.703	0.0026
598.981	0.0021
599.259	0.0015
599.538	0.0036
599.816	0.0034
600.094	0.0027
600.372	0.0034
600.65	0.0035
600.928	0.004
601.206	0.0028
601.484	0.003
601.762	0.0033
602.04	0.0045
602.317	0.0025
602.595	0.0037
602.872	0.0027
603.15	0.0038
603.427	0.0021
603.704	0.0014
603.982	0.0021
604.259	0.0016
604.536	0.0016
604.813	0.0021
605.09	0.0023
605.367	0.0019
605.644	0.0019
605.921	0.0022
606.197	0.0013
606.474	0.0024
606.751	0.002
607.027	0.0021
607.304	0.0031
607.58	0.0028
607.856	0.003
608.133	0.0036
608.409	0.0034
608.685	0.0033
608.961	0.002
609.237	0.003
609.513	0.0038
609.789	0.0019
610.065	0.0022
610.341	0.0017
610.616	0.0023
610.892	0.002
611.167	0.0022
611.443	0.0032
611.718	0.0028
611.994	0.0018
612.269	0.0014
612.544	0.0023
612.819	0.0019
613.095	0.0014
613.37	0.0017
613.645	0.0012
613.919	0.0019
614.194	0.0021
614.469	0.0024
614.744	0.0023
615.019	0.0011
615.293	0.0016
615.568	0.0018
615.842	0.0014
616.116	0.0011
616.391	0.0012
616.665	0.0002
616.939	0.001
617.213	0.0009
617.488	0.0014
617.762	0.0017
618.035	0.0029
618.309	0.0026
618.583	0.0019
618.857	0.0016
619.131	0.0025
619.404	0.0018
619.678	0.0024
619.951	0.0016
620.225	0.001
620.498	0.0011
620.771	0.0012
621.045	0.0018
621.318	0.0014
621.591	0.0013
621.864	0.0014
622.137	0.001
622.41	0.0009
622.683	0.0006
622.956	-0.0001
623.228	0.0013
623.501	0.0016
623.774	0.002
624.046	0.0015
624.319	0.0012
624.591	0.0006
624.863	0.0014
625.136	0.0019
625.408	0.0028
625.68	0.0013
625.952	0.0012
626.224	0.0021
626.496	0.0007
626.768	0.0016
627.04	0.0012
627.311	0.0017
627.583	0.001
627.855	0.002
628.126	-0.0002
628.398	0.0001
628.669	0.0004
628.941	-0
629.212	-0.0003
629.483	0.0002
629.755	-0.0002
630.026	-0.0001
630.297	0
630.568	0.0008
630.839	0.001
631.11	0.0011
631.38	0.0022
631.651	0.0022
631.922	0.0024
632.192	0.0006
632.463	0.0017
632.733	0.0001
633.004	0.0006
633.274	0.0001
633.545	0.0007
633.815	0.0018
634.085	0.0012
634.355	0.0018
634.625	0.0015
634.895	0.0006
635.165	0.0006
635.435	0.0022
635.705	0.001
635.974	0.0005
636.244	-0.0005
636.514	-0.0008
636.783	-0.0014
637.053	0.0001
637.322	-0.0002
637.591	-0.0005
637.861	-0.002
638.13	-0.0016
638.399	0.0005
638.668	0.001
638.937	0.0003
639.206	0.0004
639.475	0.0008
639.744	-0.0004
640.013	0.0001
640.281	-0.0001
640.55	-0.0001
640.819	0.0003
641.087	0.0001
641.356	0.0003
641.624	0.0001
641.892	0.0015
642.161	0.0003
642.429	0.0005
642.697	0.0012
642.965	-0.0003
643.233	-0.0003
643.501	-0.0009
643.769	-0.0005
644.037	-0.0009
644.305	-0.0007
644.572	-0.0009
644.84	-0.0011
645.108	-0.0003
645.375	-0.0002
645.643	-0.0001
645.91	0.0001
646.177	0.0002
646.445	-0.0005
646.712	-0.0012
646.979	-0.001
647.246	0.0008
647.513	-0.0003
647.78	0.0004
648.047	-0.0012
648.314	-0.0016
648.58	-0.0018
648.847	-0.0023
649.114	-0.0029
649.38	-0.0015
649.647	-0.0013
649.913	-0.0008
650.18	0.0006
650.446	0.0002
650.712	0.0008
650.978	0.001
651.245	0.0011
651.511	0.0014
651.777	0.001
652.043	0.0001
652.309	0.0003
652.574	0.0002
652.84	0.0005
653.106	0.0014
653.371	0.0023
653.637	0.0018
653.903	0.0009
654.168	0.0004
654.433	0.0009
654.699	0.0003
654.964	-0.0014
655.229	-0.0001
655.494	0.0006
655.759	0.0016
656.024	0.0002
656.289	-0
656.554	0.0027
656.819	0.0019
657.084	0.0012
657.349	0.001
657.613	0.0008
657.878	-0.0007
658.142	-0
658.407	-0.0006
658.671	0.0003
658.936	0.0007
659.2	0.001
659.464	0.0006
659.728	0
659.992	-0.0014
660.256	-0.0027
660.52	-0.0016
660.784	-0.0012
661.048	-0.0004
661.312	-0.0014
661.575	-0.0007
661.839	0.0005
662.103	-0.0012
662.366	-0.0001
662.63	-0.0003
662.893	-0.0005
663.156	0
663.42	0.0014
663.683	-0.0001
663.946	0.0014
664.209	0.0014
664.472	0.0009
664.735	0.0011
664.998	0.0014
665.261	0.0018
665.524	0.0022
665.786	0.0016
666.049	0.002
666.312	0.0014
666.574	0.0006
666.837	0.0015
667.099	0.0015
667.361	0.002
667.624	0.0013
667.886	0.0013
668.148	0.0014
668.41	0.0013
668.672	0.0011
668.934	0.0024
669.196	0.0006
669.458	-0.0005
669.72	0.0001
669.982	-0.0014
670.243	-0.0004
670.505	0.0002
670.766	-0.0002
671.028	0.0007
671.289	0.0004
671.551	0.0017
671.812	0.0006
672.073	0.0009
672.334	0.0005
672.596	-0.0005
672.857	0.0002
673.118	0.0009
673.379	0.0017
673.639	0.0015
673.9	0.0007
674.161	0.0004
674.422	-0
674.682	-0.0002
674.943	-0.0011
675.203	-0.0013
675.464	-0.0004
675.724	0.0002
675.985	0.0004
676.245	0.0006
676.505	-0.0009
676.765	-0.0003
677.025	-0.0007
677.285	-0.0007
677.545	-0.001
677.805	-0.0009
678.065	-0.0009
678.325	0.0008
678.585	0.0018
678.844	0.0023
679.104	0.0019
679.363	0.003
679.623	0.0026
679.882	0.003
680.142	0.0033
680.401	0.0028
680.66	0.0035
680.919	0.0013
681.178	0.0027
681.437	0.0022
681.696	0.0019
681.955	0.0044
682.214	0.0037
682.473	0.0034
682.732	0
682.99	0.0027
683.249	0.0022
683.508	0.0017
683.766	0.0015
684.024	0.0011
684.283	-0.0005
684.541	-0.0009
684.799	-0.0009
685.058	-0.0012
685.316	-0.0019
685.574	-0.002
685.832	-0.0002
686.09	-0.0008
686.348	-0.0013
686.606	-0.0013
686.863	-0.0033
687.121	-0.0021
687.379	-0.0024
687.636	-0.0035
687.894	-0.0027
688.151	-0.0027
688.409	-0.0019
688.666	-0.0011
688.923	-0.0011
689.181	-0.001
689.438	-0.0024
689.695	-0.0015
689.952	-0.0013
690.209	-0.002
690.466	-0.0024
690.723	-0.0026
690.979	-0.0029
691.236	-0.0028
691.493	-0.0034
691.75	-0.0026
692.006	-0.0027
692.263	-0.0023
692.519	-0.0028
692.775	-0.0037
693.032	-0.0036
693.288	-0.0041
693.544	-0.0035
693.8	-0.0017
694.056	-0.0025
694.313	-0.0024
694.568	-0.002
694.824	-0.0014
695.08	-0.0011
695.336	-0.0014
695.592	-0.0016
695.847	-0.0006
696.103	0.0001
696.359	0.0009
696.614	0.0002
696.869	-0.0004
697.125	-0.0015
697.38	-0.0013
697.635	-0.0003
697.891	0.0008
698.146	0.0005
698.401	0.0011
698.656	0.0003
698.911	0.0009
699.166	0.001
699.42	0.0011
699.675	0.0014
699.93	0.0009
700.185	0.0011
700.439	0.0002
700.694	0.0011
700.948	0.0001
701.203	0.0008
701.457	0.0001
701.711	-0
701.965	-0.0015
702.22	-0.0008
702.474	-0.0007
702.728	-0.0003
702.982	0.0001
703.236	-0.0003
703.49	-0.0001
703.743	-0.0008
703.997	-0.0013
704.251	-0.0006
704.504	0.0007
704.758	0.0012
705.012	0.0006
705.265	0.0022
705.518	0.0009
705.772	0.0015
706.025	0.0018
706.278	-0.0002
706.531	-0.001
706.785	-0.0014
707.038	-0.0015
707.291	-0.0008
707.543	-0.0011
707.796	-0.0009
708.049	-0.0005
708.302	-0.0008
708.555	-0.0003
708.807	-0.0001
709.06	0.0004
709.312	0.0015
709.565	0.0009
709.817	0.0027
710.069	0.001
710.322	0.0014
710.574	0.0012
710.826	0.0007
711.078	0.0003
711.33	-0.0004
711.582	-0.0002
711.834	-0.0014
712.086	-0.0003
712.338	-0.0003
712.59	-0.0008
712.841	-0.0022
713.093	-0.001
713.344	-0.0006
713.596	-0.002
713.847	-0.0028
714.099	-0.0033
714.35	-0.0025
714.601	-0.0034
714.853	-0.0032
715.104	-0.0029
715.355	-0.0025
715.606	-0.0005
715.857	-0.0012
716.108	0.0003
716.359	-0.0007
716.609	-0.0018
716.86	-0.0002
717.111	-0.0009
717.361	-0.0009
717.612	-0.0015
717.863	-0.001
718.113	-0.0005
718.363	0
718.614	0
718.864	-0.0001
719.114	-0.0004
719.364	-0.0024
719.614	-0.0017
719.865	-0.0015
720.114	-0.0008
720.364	-0.0008
720.614	-0.002
720.864	-0.0009
721.114	-0.0023
721.364	-0.0018
721.613	-0.0024
721.863	-0.0022
722.112	-0.0025
722.362	-0.0013
722.611	-0.0011
722.86	-0.0005
723.11	0.0007
723.359	0.0003
723.608	-0.0004
723.857	0.0017
724.106	0.0013
724.355	0.0006
724.604	-0.0002
724.853	-0.0007
725.102	-0.0016
725.351	-0.0031
725.599	-0.0037
725.848	-0.0032
726.097	-0.0013
726.345	-0.0019
726.594	-0.001
726.842	-0
727.09	-0.0011
727.339	-0.0012
727.587	-0.0021
727.835	-0.0028
728.083	-0.0033
728.331	-0.0029
728.579	-0.0022
728.827	-0.003
729.075	-0.0027
729.323	-0.0025
729.571	-0.0038
729.818	-0.0037
730.066	-0.0029
730.314	-0.0021
730.561	-0.0025
730.809	-0.0048
731.056	-0.0033
731.303	-0.0034
731.551	-0.0033
731.798	-0.0033
732.045	-0.0016
732.292	-0.003
732.539	-0.0018
732.786	-0.0027
733.033	-0.0032
733.28	-0.0019
733.527	-0.0029
733.774	-0.0036
734.021	-0.0033
734.267	-0.0027
734.514	-0.0026
734.76	-0.0027
735.007	-0.0018
735.253	-0.0018
735.5	0.0009
735.746	0.0017
735.992	0.0012
736.238	0.0004
736.485	0.0005
736.731	0.0006
736.977	-0.0006
737.223	-0.0012
737.469	-0.0017
737.715	-0.0013
737.96	-0.0008
738.206	-0.0013
738.452	-0.0014
738.697	-0.0017
738.943	-0.0019
739.189	-0.0011
739.434	-0.0011
739.679	-0.0009
739.925	0.0005
740.17	0.0013
740.415	0
740.66	0.0009
740.906	0.0005
741.151	-0.0002
741.396	-0.0005
741.641	-0.0008
741.886	-0.0001
742.13	-0.0007
742.375	0.0009
742.62	0
742.865	0.0001
743.109	0.0015
743.354	0.0005
743.598	-0.0003
743.843	-0.0005
744.087	-0.0008
744.331	-0.0022
744.576	-0.0016
744.82	-0.0002
745.064	-0.0009
745.308	-0.0005
745.552	-0.0005
745.796	-0.0011
746.04	-0.0004
746.284	-0.0008
746.528	-0.0002
746.771	-0.0005
747.015	-0.0004
747.259	-0.0015
747.502	-0.0019
747.746	-0.0018
747.989	-0.0012
748.233	-0.0006
748.476	-0.0008
748.719	-0.0008
748.963	-0.0011
749.206	-0.0008
749.449	-0.0007
749.692	-0.0013
749.935	-0.0013
750.178	-0.0019
750.421	-0.0025
750.664	-0.0024
750.906	-0.002
751.149	-0.0029
751.392	-0.0027
751.635	-0.0029
751.877	-0.0024
752.12	-0.0029
752.362	-0.0016
752.604	-0.001
752.847	-0.0016
753.089	-0.0019
753.331	-0.0016
753.573	-0.0026
753.816	-0.0009
754.058	-0.0012
754.3	-0.002
754.542	-0.0008
754.783	-0.0009
755.025	-0.0007
755.267	-0.0008
755.509	-0.0001
755.75	-0.0023
755.992	-0.0008
756.234	-0.0004
756.475	-0.0002
756.716	-0.0004
756.958	-0.0001
757.199	-0.0003
757.44	0.0003
757.682	-0.0002
757.923	-0
758.164	-0.0006
758.405	-0.0011
758.646	-0.0012
758.887	-0.0026
759.128	-0.0028
759.369	-0.0032
759.609	-0.003
759.85	-0.0025
760.091	-0.003
760.331	-0.002
760.572	-0.0012
760.812	-0.0022
761.053	-0.0011
761.293	-0.0016
761.533	-0.0005
761.774	-0.0017
762.014	-0.002
762.254	-0.0024
762.494	-0.0014
762.734	-0.0016
762.974	-0.0011
763.214	-0.0012
763.454	-0.001
763.694	-0.0003
763.933	0.0012
764.173	0.0019
764.413	0.002
764.652	-0.0002
764.892	-0.0009
765.131	-0.0015
765.371	-0.0014
765.61	-0.0026
765.849	-0.0027
766.089	-0.0036
766.328	-0.0034
766.567	-0.0041
766.806	-0.004
767.045	-0.0052
767.284	-0.0038
767.523	-0.0043
767.762	-0.0046
768.001	-0.0035
768.239	-0.0024
768.478	-0.0036
768.717	-0.0034
768.955	-0.0036
769.194	-0.003
769.432	-0.0023
769.671	-0.0034
769.909	-0.0032
770.148	-0.0034
770.386	-0.0026
770.624	-0.0031
770.862	-0.003
771.1	-0.0035
771.338	-0.0033
771.576	-0.0024
771.814	-0.0019
772.052	-0.0028
772.29	-0.0019
772.528	-0.0021
772.765	-0.0023
773.003	-0.0023
773.24	-0.0019
773.478	-0.0016
773.716	-0.001
773.953	-0.0006
774.19	-0.0002
774.428	-0.0003
774.665	0
774.902	0.0003
775.139	-0.0005
775.376	-0.0013
775.613	-0.0013
775.85	-0.0013
776.087	-0.0016
776.324	-0.0023
776.561	-0.0022
776.798	-0.0027
777.034	-0.0029
777.271	-0.0024
777.508	-0.0021
777.744	-0.0012
777.981	-0.0021
778.217	-0.0027
778.454	-0.0036
778.69	-0.0029
778.926	-0.0025
779.162	-0.002
779.399	-0.0011
779.635	-0.0016
779.871	-0.0022
780.107	-0.0025
780.343	-0.0038
780.579	-0.0026
780.814	-0.0027
781.05	-0.0026
781.286	-0.0025
781.522	-0.0027
781.757	-0.0028
781.993	-0.002
782.228	-0.0031
782.464	-0.0014
782.699	-0.0014
782.934	-0.0019
783.17	-0.0017
783.405	-0.0008
783.64	-0.0018
783.875	-0.0015
784.11	-0.0018
784.345	-0.0009
784.58	-0.0012
784.815	-0.0009
785.05	-0.0014
785.285	-0.0017
785.52	-0.0016
785.754	-0.0014
785.989	-0.0007
786.223	-0.0001
786.458	0.0002
786.692	0.0014
786.927	0.0024
787.161	0.0019
787.396	0.0026
787.63	0.0015
787.864	0.0007
788.098	-0.0006
788.332	-0.0003
788.566	-0.0007
788.8	-0.0013
789.034	-0.0007
789.268	-0.0014
789.502	-0.0019
789.736	-0.0021
789.969	-0.0019
790.203	-0.0022
790.437	-0.0018
790.67	-0.0008
790.904	0.0001
791.137	0.001
791.37	0.0001
791.604	0.0006
791.837	0.0015
792.07	0.0023
792.303	0.0024
792.537	0.0029
792.77	0.0031
793.003	0.0028
793.236	0.0027
793.469	0.002
793.701	0.0003
793.934	-0.0004
794.167	-0.0006
794.4	-0.0012
794.632	-0.0018
794.865	-0.0025
795.097	-0.0022
795.33	-0.0012
795.562	-0.0016
795.795	-0.0015
796.027	-0.001
796.259	-0.0003
796.491	-0.0009
796.724	-0.0006
796.956	-0.0005
797.188	-0.0001
797.42	-0.0009
797.652	0.0005
797.883	0.0011
798.115	0.0011
798.347	0.0007
798.579	-0.0004
798.81	-0.0002
799.042	-0
799.274	0.0009
799.505	0.0003
799.737	0.0002
799.968	0.0002
800.199	0.0006
800.431	0.0012
800.662	-0.0001
800.893	0.001
801.124	0.0005
801.355	0.0007
801.586	0.0018
801.817	0.0037
802.048	0.0025
802.279	0.0028
802.51	0.0029
802.741	0.003
802.971	0.0029
803.202	0.0024
803.433	0.0016
803.663	0.0012
803.894	0.0015
804.124	0.001
804.354	0.0013
804.585	0.0031
804.815	0.0029
805.045	0.0044
805.275	0.0032
805.506	0.049
805.736	-0.1852
805.966	-0.3282
806.196	-0.1987
