Data from 03 0.4 mM K2Cr2O7 0.25 M BQDS 1 M H2SO4 5 min_Absorbance_0182.txt Node
Date: Wed Dec 15 08:40:12 EST 2021
User: kwabilab-user
Spectrometer: HDX00518
Trigger mode: 0
Integration Time (sec): 5.000000E-2
Scans to average: 50
Nonlinearity correction enabled: false
Boxcar width: 0
Storing dark spectrum: false
XAxis mode: Wavelengths
Number of Pixels in Spectrum: 2068
>>>>>Begin Spectral Data<<<<<
195.27	-0.1825
195.642	0.1324
196.014	-0.1543
196.386	-0.1457
196.758	-0.0754
197.129	-0.0011
197.501	-0.0183
197.872	0.0019
198.244	-0.0106
198.615	0.0273
198.986	0.0063
199.357	0.0226
199.728	0.0211
200.099	0.0037
200.47	0.0174
200.841	0.0216
201.212	-0.0002
201.582	0.0151
201.953	0.0331
202.323	0.0049
202.694	0.0037
203.064	0.0104
203.434	-0.0114
203.804	-0.0031
204.174	-0.0009
204.544	0.0189
204.914	-0.0128
205.284	0.0108
205.653	0.0048
206.023	0.0136
206.393	0.0167
206.762	-0.0043
207.131	0.0159
207.501	0.0123
207.87	0.0137
208.239	0.0037
208.608	0.005
208.977	-0.0214
209.346	-0.0068
209.715	0.0081
210.083	0.0044
210.452	-0.0092
210.82	0.007
211.189	-0.0045
211.557	0.0207
211.925	0.0041
212.294	-0.0066
212.662	0.0221
213.03	0.0166
213.398	-0.0015
213.766	0.0048
214.133	0.019
214.501	0.003
214.869	0.0081
215.236	0.0008
215.604	0.0176
215.971	0.0292
216.338	0.0296
216.705	0.0223
217.072	0.0092
217.439	0.0162
217.806	0.0294
218.173	0.0154
218.54	0.0404
218.907	0.054
219.273	0.0384
219.64	0.062
220.006	0.0825
220.373	0.079
220.739	0.0955
221.105	0.1097
221.471	0.1219
221.837	0.1558
222.203	0.1748
222.569	0.1643
222.935	0.1756
223.3	0.2179
223.666	0.2395
224.031	0.2558
224.397	0.2685
224.762	0.2993
225.127	0.3379
225.493	0.339
225.858	0.3717
226.223	0.3866
226.588	0.3979
226.952	0.4229
227.317	0.4564
227.682	0.4635
228.046	0.4808
228.411	0.5172
228.775	0.5045
229.14	0.5123
229.504	0.5491
229.868	0.5349
230.232	0.5448
230.596	0.5747
230.96	0.5819
231.324	0.5832
231.688	0.5722
232.052	0.5964
232.415	0.5863
232.779	0.5996
233.142	0.5952
233.505	0.6058
233.869	0.6075
234.232	0.6066
234.595	0.594
234.958	0.6026
235.321	0.6059
235.684	0.5917
236.047	0.6002
236.409	0.5984
236.772	0.593
237.134	0.5914
237.497	0.5903
237.859	0.5911
238.222	0.591
238.584	0.5781
238.946	0.5698
239.308	0.578
239.67	0.5736
240.032	0.5718
240.393	0.5703
240.755	0.5625
241.117	0.5596
241.478	0.5621
241.84	0.5583
242.201	0.5491
242.562	0.5466
242.924	0.544
243.285	0.5403
243.646	0.5336
244.007	0.5359
244.368	0.5397
244.728	0.5372
245.089	0.533
245.45	0.5317
245.81	0.5156
246.171	0.5174
246.531	0.5156
246.891	0.52
247.252	0.5196
247.612	0.5196
247.972	0.5134
248.332	0.5034
248.692	0.5082
249.051	0.5042
249.411	0.5088
249.771	0.506
250.13	0.5036
250.49	0.4977
250.849	0.4976
251.208	0.4996
251.568	0.4995
251.927	0.497
252.286	0.4943
252.645	0.4944
253.004	0.4956
253.363	0.4901
253.721	0.4918
254.08	0.4924
254.439	0.4908
254.797	0.4905
255.155	0.4894
255.514	0.488
255.872	0.4844
256.23	0.484
256.588	0.4846
256.946	0.4877
257.304	0.4842
257.662	0.4865
258.02	0.4862
258.377	0.4787
258.735	0.4787
259.093	0.4773
259.45	0.4773
259.807	0.4807
260.165	0.4766
260.522	0.4773
260.879	0.4701
261.236	0.4743
261.593	0.4722
261.95	0.4637
262.306	0.4665
262.663	0.4669
263.02	0.4659
263.376	0.464
263.733	0.4568
264.089	0.4595
264.445	0.4623
264.802	0.4589
265.158	0.4553
265.514	0.4539
265.87	0.4552
266.226	0.4501
266.581	0.45
266.937	0.4486
267.293	0.4436
267.648	0.4475
268.004	0.4433
268.359	0.4411
268.714	0.4354
269.07	0.4364
269.425	0.4332
269.78	0.4318
270.135	0.4306
270.49	0.4261
270.844	0.4232
271.199	0.4251
271.554	0.4168
271.908	0.4158
272.263	0.4149
272.617	0.4134
272.972	0.4069
273.326	0.4083
273.68	0.4044
274.034	0.4035
274.388	0.4037
274.742	0.4024
275.096	0.3934
275.45	0.3903
275.803	0.3853
276.157	0.3814
276.51	0.3828
276.864	0.3816
277.217	0.3782
277.571	0.3775
277.924	0.3697
278.277	0.369
278.63	0.3633
278.983	0.3592
279.336	0.357
279.688	0.3557
280.041	0.3509
280.394	0.3451
280.746	0.3459
281.099	0.3385
281.451	0.3387
281.803	0.3335
282.156	0.3315
282.508	0.3268
282.86	0.3246
283.212	0.3211
283.564	0.3183
283.916	0.3129
284.267	0.3108
284.619	0.3085
284.971	0.3027
285.322	0.3015
285.673	0.297
286.025	0.2931
286.376	0.2914
286.727	0.2883
287.078	0.2844
287.429	0.2826
287.78	0.2779
288.131	0.2741
288.482	0.2698
288.833	0.2681
289.183	0.2661
289.534	0.2617
289.884	0.2592
290.235	0.2562
290.585	0.2525
290.935	0.2495
291.285	0.246
291.635	0.2416
291.985	0.2409
292.335	0.2371
292.685	0.2346
293.035	0.2291
293.384	0.2288
293.734	0.2245
294.083	0.2216
294.433	0.2189
294.782	0.2175
295.131	0.2108
295.48	0.21
295.829	0.2063
296.179	0.2041
296.527	0.2002
296.876	0.1979
297.225	0.1947
297.574	0.1925
297.922	0.1904
298.271	0.1869
298.619	0.183
298.968	0.1812
299.316	0.1789
299.664	0.177
300.012	0.174
300.36	0.1705
300.708	0.1689
301.056	0.1668
301.404	0.164
301.752	0.1614
302.099	0.1597
302.447	0.158
302.794	0.1552
303.142	0.1535
303.489	0.1505
303.836	0.1498
304.183	0.1474
304.531	0.1468
304.878	0.1434
305.224	0.1419
305.571	0.1412
305.918	0.1392
306.265	0.1367
306.611	0.1363
306.958	0.135
307.304	0.1339
307.651	0.1328
307.997	0.1318
308.343	0.1293
308.689	0.1295
309.035	0.1285
309.381	0.1272
309.727	0.1264
310.073	0.1262
310.419	0.1253
310.764	0.1241
311.11	0.1227
311.455	0.1233
311.801	0.1224
312.146	0.1209
312.491	0.1215
312.837	0.121
313.182	0.1203
313.527	0.1193
313.872	0.1194
314.216	0.1196
314.561	0.1193
314.906	0.1188
315.251	0.1194
315.595	0.1191
315.94	0.1191
316.284	0.1195
316.628	0.1194
316.972	0.1195
317.317	0.1193
317.661	0.1197
318.005	0.1199
318.348	0.1204
318.692	0.1206
319.036	0.1213
319.38	0.1218
319.723	0.1212
320.067	0.1222
320.41	0.1234
320.754	0.1232
321.097	0.1228
321.44	0.1238
321.783	0.1255
322.126	0.126
322.469	0.1256
322.812	0.1269
323.155	0.1275
323.498	0.1288
323.84	0.1287
324.183	0.13
324.525	0.1309
324.868	0.133
325.21	0.1331
325.552	0.1336
325.894	0.1347
326.236	0.1347
326.578	0.136
326.92	0.1366
327.262	0.1374
327.604	0.1385
327.946	0.1399
328.287	0.1402
328.629	0.1412
328.97	0.1423
329.312	0.1437
329.653	0.1447
329.994	0.1456
330.335	0.147
330.676	0.1481
331.017	0.1488
331.358	0.1506
331.699	0.1505
332.04	0.1519
332.38	0.153
332.721	0.1546
333.061	0.1557
333.402	0.1568
333.742	0.1569
334.083	0.1575
334.423	0.1583
334.763	0.16
335.103	0.1605
335.443	0.1619
335.783	0.1627
336.123	0.1632
336.462	0.1645
336.802	0.1655
337.141	0.1661
337.481	0.1667
337.82	0.168
338.16	0.1684
338.499	0.1692
338.838	0.1705
339.177	0.1717
339.516	0.1719
339.855	0.1732
340.194	0.1745
340.533	0.1738
340.872	0.1751
341.21	0.176
341.549	0.1759
341.887	0.177
342.226	0.1765
342.564	0.1774
342.902	0.1782
343.24	0.1785
343.578	0.178
343.916	0.1787
344.254	0.1789
344.592	0.1801
344.93	0.1797
345.268	0.1793
345.605	0.1799
345.943	0.1802
346.28	0.1804
346.618	0.1803
346.955	0.1809
347.292	0.1809
347.629	0.1814
347.966	0.1805
348.303	0.1812
348.64	0.1809
348.977	0.1812
349.314	0.181
349.65	0.181
349.987	0.1819
350.324	0.1805
350.66	0.1815
350.996	0.1805
351.333	0.1802
351.669	0.1799
352.005	0.1801
352.341	0.1785
352.677	0.1784
353.013	0.1772
353.349	0.1763
353.685	0.176
354.02	0.1757
354.356	0.1748
354.691	0.174
355.027	0.1732
355.362	0.1725
355.697	0.1721
356.033	0.1719
356.368	0.1704
356.703	0.1704
357.038	0.1697
357.373	0.1672
357.707	0.1676
358.042	0.1673
358.377	0.1666
358.711	0.1664
359.046	0.1648
359.38	0.1651
359.715	0.1635
360.049	0.1627
360.383	0.1621
360.717	0.1604
361.051	0.1598
361.385	0.1594
361.719	0.158
362.053	0.1575
362.387	0.1557
362.72	0.1544
363.054	0.1533
363.387	0.152
363.721	0.1513
364.054	0.1493
364.387	0.1482
364.721	0.147
365.054	0.1452
365.387	0.1438
365.72	0.1437
366.053	0.1426
366.385	0.1404
366.718	0.1396
367.051	0.1388
367.383	0.1382
367.716	0.1376
368.048	0.136
368.381	0.1359
368.713	0.1339
369.045	0.1331
369.377	0.1325
369.709	0.1314
370.041	0.1301
370.373	0.1296
370.705	0.128
371.037	0.1268
371.368	0.1258
371.7	0.1235
372.031	0.1236
372.363	0.1218
372.694	0.121
373.025	0.1192
373.356	0.1183
373.688	0.1167
374.019	0.1155
374.35	0.1134
374.68	0.1121
375.011	0.1108
375.342	0.1095
375.673	0.1086
376.003	0.1065
376.334	0.1067
376.664	0.1046
376.995	0.1036
377.325	0.1022
377.655	0.1006
377.985	0.0988
378.315	0.0989
378.645	0.098
378.975	0.0967
379.305	0.0953
379.635	0.0954
379.964	0.0936
380.294	0.0934
380.623	0.0921
380.953	0.0911
381.282	0.0903
381.611	0.0901
381.941	0.0883
382.27	0.0873
382.599	0.087
382.928	0.0851
383.257	0.084
383.585	0.0837
383.914	0.0818
384.243	0.0806
384.571	0.0794
384.9	0.0788
385.228	0.0776
385.557	0.0765
385.885	0.0749
386.213	0.0744
386.541	0.0729
386.869	0.072
387.197	0.0703
387.525	0.0701
387.853	0.0684
388.181	0.0675
388.508	0.0662
388.836	0.0652
389.164	0.0642
389.491	0.0636
389.818	0.0617
390.146	0.0617
390.473	0.061
390.8	0.0606
391.127	0.0588
391.454	0.0584
391.781	0.0578
392.108	0.0579
392.435	0.0558
392.761	0.0556
393.088	0.0552
393.415	0.0547
393.741	0.0548
394.067	0.0544
394.394	0.0534
394.72	0.0522
395.046	0.0515
395.372	0.0506
395.698	0.0498
396.024	0.0497
396.35	0.0494
396.676	0.0485
397.001	0.0475
397.327	0.0463
397.653	0.046
397.978	0.0457
398.303	0.0449
398.629	0.0444
398.954	0.0438
399.279	0.0437
399.604	0.0429
399.929	0.0425
400.254	0.0418
400.579	0.0415
400.904	0.0406
401.229	0.0407
401.553	0.0408
401.878	0.04
402.202	0.0395
402.527	0.0391
402.851	0.0392
403.175	0.0376
403.5	0.0377
403.824	0.0374
404.148	0.0372
404.472	0.0369
404.796	0.0368
405.119	0.0364
405.443	0.0361
405.767	0.0355
406.09	0.0363
406.414	0.0351
406.737	0.0357
407.061	0.0358
407.384	0.0353
407.707	0.0349
408.03	0.0345
408.353	0.0341
408.676	0.0345
408.999	0.0344
409.322	0.0337
409.645	0.0341
409.968	0.0343
410.29	0.0336
410.613	0.0346
410.935	0.0331
411.258	0.0332
411.58	0.0328
411.902	0.0331
412.224	0.0335
412.546	0.0334
412.868	0.0342
413.19	0.0329
413.512	0.0332
413.834	0.0328
414.156	0.0336
414.477	0.0325
414.799	0.0331
415.121	0.0326
415.442	0.0327
415.763	0.0327
416.085	0.0333
416.406	0.0328
416.727	0.033
417.048	0.0333
417.369	0.0332
417.69	0.0328
418.011	0.0327
418.331	0.0325
418.652	0.0327
418.973	0.0323
419.293	0.0321
419.614	0.0322
419.934	0.033
420.254	0.033
420.574	0.0316
420.895	0.0321
421.215	0.0323
421.535	0.032
421.855	0.0314
422.174	0.0312
422.494	0.0316
422.814	0.0316
423.134	0.0321
423.453	0.0325
423.773	0.0327
424.092	0.0325
424.411	0.0322
424.731	0.0324
425.05	0.0321
425.369	0.0326
425.688	0.032
426.007	0.0323
426.326	0.0328
426.644	0.0322
426.963	0.0322
427.282	0.0326
427.6	0.0322
427.919	0.0324
428.237	0.0327
428.556	0.0325
428.874	0.0317
429.192	0.0327
429.51	0.0317
429.828	0.0324
430.146	0.0325
430.464	0.0317
430.782	0.0321
431.1	0.0317
431.418	0.0319
431.735	0.0317
432.053	0.0322
432.37	0.0318
432.688	0.0314
433.005	0.0314
433.322	0.0328
433.639	0.0321
433.957	0.0317
434.274	0.0325
434.591	0.0324
434.907	0.0318
435.224	0.0321
435.541	0.0324
435.858	0.0336
436.174	0.0328
436.491	0.0324
436.807	0.0323
437.124	0.0316
437.44	0.0317
437.756	0.0322
438.072	0.0313
438.388	0.032
438.704	0.0316
439.02	0.0313
439.336	0.0317
439.652	0.0322
439.968	0.0308
440.283	0.0314
440.599	0.0316
440.914	0.0315
441.23	0.0314
441.545	0.0315
441.86	0.0317
442.175	0.0321
442.491	0.0307
442.806	0.0314
443.121	0.0304
443.435	0.0308
443.75	0.0316
444.065	0.0307
444.38	0.0309
444.694	0.0309
445.009	0.0308
445.323	0.0312
445.638	0.0306
445.952	0.0304
446.266	0.0299
446.58	0.0296
446.894	0.0302
447.208	0.03
447.522	0.0293
447.836	0.0299
448.15	0.03
448.464	0.0296
448.777	0.0301
449.091	0.0294
449.404	0.0296
449.718	0.0295
450.031	0.0288
450.345	0.0288
450.658	0.0292
450.971	0.0292
451.284	0.0288
451.597	0.029
451.91	0.0288
452.223	0.0291
452.535	0.0283
452.848	0.0285
453.161	0.0281
453.473	0.0281
453.786	0.0279
454.098	0.0279
454.411	0.0281
454.723	0.0284
455.035	0.0273
455.347	0.0269
455.659	0.028
455.971	0.0281
456.283	0.028
456.595	0.0277
456.907	0.028
457.218	0.0279
457.53	0.0267
457.841	0.0271
458.153	0.0269
458.464	0.026
458.776	0.0266
459.087	0.0269
459.398	0.0265
459.709	0.0255
460.02	0.0268
460.331	0.0266
460.642	0.0262
460.953	0.0256
461.263	0.0257
461.574	0.025
461.885	0.026
462.195	0.0256
462.506	0.0256
462.816	0.0262
463.126	0.0251
463.437	0.0253
463.747	0.0238
464.057	0.0236
464.367	0.0232
464.677	0.0236
464.987	0.0236
465.296	0.0238
465.606	0.0236
465.916	0.0229
466.225	0.0234
466.535	0.023
466.844	0.024
467.154	0.0235
467.463	0.0234
467.772	0.0226
468.081	0.0227
468.39	0.0228
468.699	0.0228
469.008	0.0224
469.317	0.0226
469.626	0.0227
469.935	0.0217
470.243	0.0222
470.552	0.0215
470.86	0.0222
471.169	0.021
471.477	0.0207
471.785	0.0205
472.093	0.0203
472.402	0.0202
472.71	0.0205
473.018	0.0201
473.326	0.0207
473.633	0.0203
473.941	0.0207
474.249	0.0204
474.556	0.019
474.864	0.0203
475.171	0.0194
475.479	0.0196
475.786	0.0197
476.094	0.0189
476.401	0.0188
476.708	0.0187
477.015	0.0185
477.322	0.0173
477.629	0.0178
477.936	0.0179
478.242	0.0177
478.549	0.0183
478.856	0.0173
479.162	0.0175
479.469	0.0177
479.775	0.0171
480.081	0.016
480.388	0.0162
480.694	0.0169
481	0.0166
481.306	0.0166
481.612	0.0168
481.918	0.017
482.224	0.0158
482.53	0.016
482.835	0.0163
483.141	0.0162
483.446	0.0163
483.752	0.015
484.057	0.0151
484.363	0.0151
484.668	0.0159
484.973	0.0139
485.278	0.0139
485.583	0.0132
485.888	0.0139
486.193	0.0127
486.498	0.0141
486.803	0.0139
487.107	0.0136
487.412	0.012
487.717	0.0135
488.021	0.0134
488.325	0.0129
488.63	0.0128
488.934	0.0136
489.238	0.0129
489.542	0.0123
489.846	0.0122
490.15	0.0132
490.454	0.0125
490.758	0.0126
491.062	0.0116
491.366	0.0113
491.669	0.0118
491.973	0.0117
492.276	0.0119
492.58	0.0112
492.883	0.0121
493.186	0.0109
493.489	0.0118
493.792	0.0103
494.096	0.0104
494.399	0.0108
494.701	0.0111
495.004	0.0096
495.307	0.0104
495.61	0.0099
495.912	0.0108
496.215	0.0106
496.517	0.01
496.82	0.0104
497.122	0.0097
497.424	0.0107
497.727	0.0094
498.029	0.0096
498.331	0.0096
498.633	0.009
498.935	0.008
499.237	0.0094
499.538	0.0092
499.84	0.0095
500.142	0.0086
500.443	0.0088
500.745	0.0092
501.046	0.0083
501.348	0.008
501.649	0.0071
501.95	0.0074
502.251	0.0082
502.552	0.0068
502.853	0.0088
503.154	0.0089
503.455	0.007
503.756	0.0077
504.057	0.0075
504.357	0.0074
504.658	0.0075
504.958	0.0072
505.259	0.0074
505.559	0.0072
505.859	0.006
506.16	0.0065
506.46	0.0056
506.76	0.0067
507.06	0.0057
507.36	0.0063
507.66	0.0065
507.96	0.0076
508.259	0.0059
508.559	0.0062
508.859	0.0065
509.158	0.0062
509.457	0.0053
509.757	0.0058
510.056	0.0045
510.355	0.006
510.655	0.0053
510.954	0.0047
511.253	0.0049
511.552	0.0058
511.851	0.0053
512.149	0.005
512.448	0.0055
512.747	0.0055
513.045	0.0047
513.344	0.0045
513.642	0.005
513.941	0.0052
514.239	0.0046
514.537	0.0046
514.836	0.0045
515.134	0.0049
515.432	0.0046
515.73	0.0039
516.028	0.005
516.326	0.0042
516.623	0.0034
516.921	0.0043
517.219	0.0048
517.516	0.0033
517.814	0.0048
518.111	0.0045
518.409	0.0052
518.706	0.0051
519.003	0.0034
519.3	0.0033
519.597	0.0044
519.894	0.0038
520.191	0.0047
520.488	0.0054
520.785	0.0034
521.082	0.005
521.378	0.0044
521.675	0.0028
521.971	0.0033
522.268	0.0048
522.564	0.004
522.861	0.0053
523.157	0.004
523.453	0.0036
523.749	0.0036
524.045	0.0035
524.341	0.0049
524.637	0.0037
524.933	0.0048
525.229	0.0034
525.524	0.0033
525.82	0.0043
526.115	0.0039
526.411	0.0039
526.706	0.0029
527.002	0.0033
527.297	0.0027
527.592	0.0035
527.887	0.0027
528.182	0.0023
528.477	0.004
528.772	0.0019
529.067	0.0035
529.362	0.0037
529.657	0.003
529.951	0.0033
530.246	0.002
530.54	0.0028
530.835	0.0024
531.129	0.0031
531.423	0.0028
531.718	0.0026
532.012	0.004
532.306	0.0036
532.6	0.0022
532.894	0.0027
533.188	0.0023
533.482	0.0025
533.775	0.0034
534.069	0.0026
534.363	0.0024
534.656	0.0026
534.95	0.0024
535.243	0.0022
535.536	0.002
535.83	0.0023
536.123	0.0018
536.416	0.0028
536.709	0.003
537.002	0.0032
537.295	0.002
537.588	0.0035
537.881	0.0021
538.173	0.0032
538.466	0.0023
538.759	0.003
539.051	0.003
539.344	0.0032
539.636	0.0023
539.928	0.0041
540.22	0.0021
540.513	0.0034
540.805	0.0035
541.097	0.0037
541.389	0.0029
541.681	0.004
541.972	0.0026
542.264	0.0041
542.556	0.0041
542.847	0.004
543.139	0.0038
543.431	0.0028
543.722	0.0022
544.013	0.0037
544.305	0.003
544.596	0.0031
544.887	0.0039
545.178	0.0042
545.469	0.0034
545.76	0.0044
546.051	0.0035
546.342	0.0032
546.632	0.0031
546.923	0.0023
547.214	0.0032
547.504	0.0032
547.795	0.0029
548.085	0.0029
548.375	0.0027
548.666	0.0034
548.956	0.0033
549.246	0.0042
549.536	0.0043
549.826	0.0044
550.116	0.0034
550.406	0.0034
550.695	0.0039
550.985	0.0036
551.275	0.0047
551.564	0.0047
551.854	0.0039
552.143	0.0043
552.433	0.0039
552.722	0.0031
553.011	0.0035
553.3	0.0039
553.589	0.0044
553.879	0.004
554.167	0.0033
554.456	0.0026
554.745	0.0033
555.034	0.0048
555.323	0.0032
555.611	0.0032
555.9	0.0035
556.188	0.0037
556.477	0.0029
556.765	0.0046
557.053	0.0032
557.342	0.0038
557.63	0.0035
557.918	0.0038
558.206	0.0037
558.494	0.0041
558.782	0.0036
559.069	0.0041
559.357	0.0037
559.645	0.0038
559.932	0.0038
560.22	0.0033
560.507	0.0031
560.795	0.002
561.082	0.0017
561.37	0.0027
561.657	0.0025
561.944	0.0025
562.231	0.0029
562.518	0.0029
562.805	0.0036
563.092	0.0025
563.379	0.0025
563.665	0.0036
563.952	0.0043
564.239	0.0051
564.525	0.0032
564.811	0.0029
565.098	0.0033
565.384	0.0031
565.67	0.0041
565.957	0.0034
566.243	0.0043
566.529	0.0034
566.815	0.004
567.101	0.0032
567.387	0.0027
567.672	0.0022
567.958	0.0025
568.244	0.0021
568.529	0.0034
568.815	0.003
569.1	0.0029
569.386	0.003
569.671	0.0028
569.956	0.0024
570.242	0.0022
570.527	0.0021
570.812	0.0024
571.097	0.0019
571.382	0.0009
571.666	0.0017
571.951	0.003
572.236	0.002
572.521	0.0027
572.805	0.0035
573.09	0.0025
573.374	0.0012
573.659	0.0023
573.943	0.0026
574.227	0.0027
574.511	0.0024
574.795	0.0032
575.079	0.003
575.363	0.0025
575.647	0.0029
575.931	0.0035
576.215	0.0036
576.499	0.002
576.782	0.0021
577.066	0.0028
577.349	0.0032
577.633	0.0031
577.916	0.0024
578.2	0.0023
578.483	0.0032
578.766	0.004
579.049	0.0033
579.332	0.003
579.615	0.0025
579.898	0.0018
580.181	0.0025
580.464	0.0027
580.746	0.0024
581.029	0.0027
581.312	0.0018
581.594	0.0008
581.877	0.0021
582.159	0.0035
582.441	0.002
582.724	0.003
583.006	0.0033
583.288	0.003
583.57	0.0026
583.852	0.0033
584.134	0.0027
584.416	0.002
584.697	0.0024
584.979	0.002
585.261	0.0019
585.542	0.003
585.824	0.0029
586.105	0.0026
586.387	0.0029
586.668	0.0029
586.949	0.0033
587.231	0.0027
587.512	0.0029
587.793	0.0028
588.074	0.0031
588.355	0.0034
588.636	0.0016
588.916	0.0027
589.197	0.0029
589.478	0.0025
589.758	0.002
590.039	0.0019
590.319	0.0021
590.6	0.0023
590.88	0.0023
591.16	0.0031
591.441	0.0029
591.721	0.0022
592.001	0.0018
592.281	0.0026
592.561	0.0028
592.841	0.0018
593.12	0.0021
593.4	0.0026
593.68	0.0021
593.959	0.0027
594.239	0.0028
594.518	0.0044
594.798	0.004
595.077	0.002
595.356	0.0031
595.636	0.0022
595.915	0.0029
596.194	0.0027
596.473	0.0034
596.752	0.0031
597.031	0.0028
597.31	0.0019
597.588	0.0015
597.867	0.0021
598.146	0.0009
598.424	0.0013
598.703	0.0021
598.981	0.0013
599.259	0.0011
599.538	0.0032
599.816	0.003
600.094	0.0024
600.372	0.0024
600.65	0.003
600.928	0.0028
601.206	0.0034
601.484	0.0029
601.762	0.0034
602.04	0.0037
602.317	0.0033
602.595	0.0043
602.872	0.0032
603.15	0.0034
603.427	0.0018
603.704	0.0017
603.982	0.0019
604.259	0.0015
604.536	0.0017
604.813	0.0024
605.09	0.0021
605.367	0.0014
605.644	0.0015
605.921	0.0019
606.197	0.0016
606.474	0.0023
606.751	0.0017
607.027	0.0018
607.304	0.0017
607.58	0.0026
607.856	0.003
608.133	0.0036
608.409	0.0041
608.685	0.0031
608.961	0.0034
609.237	0.0033
609.513	0.0043
609.789	0.0029
610.065	0.0023
610.341	0.0016
610.616	0.0026
610.892	0.0036
611.167	0.0033
611.443	0.0036
611.718	0.003
611.994	0.0031
612.269	0.0018
612.544	0.0026
612.819	0.0018
613.095	0.002
613.37	0.0013
613.645	0.0012
613.919	0.0022
614.194	0.0017
614.469	0.0017
614.744	0.002
615.019	0.0012
615.293	0.0015
615.568	0.0014
615.842	0.0017
616.116	0.0015
616.391	0.0015
616.665	0.0011
616.939	0.0008
617.213	0.0012
617.488	0.0027
617.762	0.0021
618.035	0.0035
618.309	0.0024
618.583	0.0024
618.857	0.0026
619.131	0.0023
619.404	0.002
619.678	0.0028
619.951	0.0028
620.225	0.0013
620.498	0.0018
620.771	0.0019
621.045	0.0021
621.318	0.0027
621.591	0.0031
621.864	0.0012
622.137	0.0007
622.41	0.0018
622.683	0.0017
622.956	0.0019
623.228	0.0016
623.501	0.0025
623.774	0.0022
624.046	0.002
624.319	0.0013
624.591	0.0007
624.863	0.0015
625.136	0.0025
625.408	0.0036
625.68	0.0028
625.952	0.0029
626.224	0.0036
626.496	0.0026
626.768	0.0027
627.04	0.0027
627.311	0.0027
627.583	0.0032
627.855	0.0029
628.126	0.0024
628.398	0.0022
628.669	0.0022
628.941	0.0001
629.212	0.0005
629.483	0.0012
629.755	0.0007
630.026	0.0012
630.297	0.002
630.568	0.0017
630.839	0.0026
631.11	0.0028
631.38	0.0031
631.651	0.0027
631.922	0.0029
632.192	0.0018
632.463	0.0024
632.733	0.0013
633.004	0.0022
633.274	0.0015
633.545	0.0009
633.815	0.0034
634.085	0.0028
634.355	0.0012
634.625	0.0021
634.895	0.0027
635.165	0.0016
635.435	0.0032
635.705	0.0011
635.974	0.0015
636.244	0.0017
636.514	0.0004
636.783	0.0009
637.053	0.0013
637.322	0.0015
637.591	0.0012
637.861	-0
638.13	0.0017
638.399	0.0023
638.668	0.0027
638.937	0.0029
639.206	0.0036
639.475	0.0037
639.744	0.0028
640.013	0.0028
640.281	0.0031
640.55	0.0025
640.819	0.003
641.087	0.0016
641.356	0.0019
641.624	0.0017
641.892	0.0021
642.161	0.0024
642.429	0.0024
642.697	0.0025
642.965	0.0017
643.233	0.0011
643.501	0.0008
643.769	0.0013
644.037	0.0016
644.305	0.0006
644.572	0.0012
644.84	0.001
645.108	0.0015
645.375	0.0019
645.643	0.0022
645.91	0.0026
646.177	0.0031
646.445	0.0009
646.712	0.0021
646.979	0.0013
647.246	0.0038
647.513	0.0028
647.78	0.0029
648.047	0.0006
648.314	0.0001
648.58	-0.0002
648.847	-0.0009
649.114	-0.0014
649.38	-0.0016
649.647	-0.0012
649.913	-0.0005
650.18	0.0003
650.446	0.002
650.712	0.0015
650.978	0.0028
651.245	0.0024
651.511	0.0029
651.777	0.0027
652.043	0.0019
652.309	0.0021
652.574	0.0014
652.84	0.0026
653.106	0.0032
653.371	0.0039
653.637	0.0027
653.903	0.0029
654.168	0.0027
654.433	0.0023
654.699	0.0022
654.964	0.0008
655.229	0.0005
655.494	0.0011
655.759	-0.0019
656.024	-0
656.289	-0
656.554	0.0017
656.819	0.0025
657.084	0.0026
657.349	0.0034
657.613	0.0026
657.878	0.0015
658.142	0.0017
658.407	0.0018
658.671	0.0015
658.936	0.0017
659.2	0.0022
659.464	0.0025
659.728	0.0021
659.992	0.0009
660.256	-0.0004
660.52	0.001
660.784	0.0012
661.048	0.0017
661.312	0.0007
661.575	0.0014
661.839	0.0024
662.103	0.0018
662.366	0.0016
662.63	0.0017
662.893	0.0009
663.156	0.0021
663.42	0.0028
663.683	0.0017
663.946	0.003
664.209	0.0028
664.472	0.0025
664.735	0.0022
664.998	0.0038
665.261	0.0034
665.524	0.0032
665.786	0.0034
666.049	0.0029
666.312	0.003
666.574	0.002
666.837	0.0042
667.099	0.0035
667.361	0.0041
667.624	0.0042
667.886	0.0034
668.148	0.0034
668.41	0.0029
668.672	0.0038
668.934	0.0045
669.196	0.0029
669.458	0.0017
669.72	0.0017
669.982	0.0019
670.243	0.0018
670.505	0.0017
670.766	0.0019
671.028	0.0026
671.289	0.0023
671.551	0.0028
671.812	0.0007
672.073	0.0021
672.334	0.002
672.596	0.001
672.857	0.0025
673.118	0.0036
673.379	0.004
673.639	0.0033
673.9	0.0025
674.161	0.0026
674.422	0.0023
674.682	0.0016
674.943	0.0016
675.203	0.002
675.464	0.0025
675.724	0.0018
675.985	0.0016
676.245	0.0007
676.505	0.0004
676.765	0.0001
677.025	0.0016
677.285	0.001
677.545	0.0011
677.805	0.0008
678.065	0.0016
678.325	0.0026
678.585	0.0048
678.844	0.0033
679.104	0.0049
679.363	0.0049
679.623	0.005
679.882	0.0049
680.142	0.005
680.401	0.0049
680.66	0.0054
680.919	0.0035
681.178	0.0041
681.437	0.0042
681.696	0.0032
681.955	0.0057
682.214	0.0055
682.473	0.0048
682.732	0.0018
682.99	0.0049
683.249	0.005
683.508	0.0047
683.766	0.0038
684.024	0.0034
684.283	0.0019
684.541	0.0018
684.799	0.0007
685.058	-0.0002
685.316	-0.0012
685.574	-0.0012
685.832	-0.0008
686.09	-0.0003
686.348	-0.0003
686.606	-0.0003
686.863	-0.0007
687.121	-0.0004
687.379	-0.0011
687.636	-0.002
687.894	-0.0004
688.151	-0.0009
688.409	-0.0001
688.666	0.0005
688.923	0.0001
689.181	0.0014
689.438	-0.0003
689.695	0.0001
689.952	0.0006
690.209	0.0003
690.466	-0
690.723	0.0008
690.979	-0.0004
691.236	-0.0005
691.493	-0.0018
691.75	0
692.006	-0.0006
692.263	-0.0011
692.519	-0.0011
692.775	-0.0025
693.032	-0.0019
693.288	-0.0024
693.544	-0.0018
693.8	-0.0002
694.056	-0.0012
694.313	-0.0018
694.568	-0.0004
694.824	0.0003
695.08	0.0002
695.336	0.0005
695.592	-0.0006
695.847	0.0017
696.103	0.003
696.359	0.003
696.614	0.0029
696.869	-0.0001
697.125	-0.0009
697.38	-0.001
697.635	0.0004
697.891	0.0015
698.146	0.0018
698.401	0.0015
698.656	0.0015
698.911	0.0027
699.166	0.001
699.42	0.0026
699.675	0.003
699.93	0.0028
700.185	0.0026
700.439	0.0018
700.694	0.0016
700.948	0.0027
701.203	0.0022
701.457	0.0019
701.711	0.0022
701.965	0.001
702.22	0.0003
702.474	0.0011
702.728	0.0005
702.982	0.0011
703.236	0.0015
703.49	0.0012
703.743	0.0004
703.997	0.0003
704.251	0.0011
704.504	0.0021
704.758	0.0013
705.012	0.0023
705.265	0.0027
705.518	0.003
705.772	0.0033
706.025	0.0035
706.278	0.0025
706.531	0.0017
706.785	-0.0002
707.038	-0.0007
707.291	-0.0004
707.543	0
707.796	-0.0003
708.049	0.0001
708.302	-0.0003
708.555	-0.0002
708.807	0.0008
709.06	0.0012
709.312	0.0024
709.565	0.003
709.817	0.0033
710.069	0.0026
710.322	0.0037
710.574	0.0025
710.826	0.0016
711.078	0.0022
711.33	0.0015
711.582	0.002
711.834	0.0019
712.086	0.0023
712.338	0.0015
712.59	0.0013
712.841	-0.0003
713.093	0.0001
713.344	0.0012
713.596	-0.0006
713.847	-0.0012
714.099	-0.0015
714.35	0.0001
714.601	-0.0006
714.853	-0.0021
715.104	-0.0011
715.355	-0.0014
715.606	0
715.857	0.0008
716.108	0.0019
716.359	0.0023
716.609	0.0009
716.86	0.0025
717.111	0.0014
717.361	0.0008
717.612	0.0009
717.863	0.0017
718.113	0.0024
718.363	0.001
718.614	0.002
718.864	0.0021
719.114	0.0008
719.364	0.0001
719.614	0.0002
719.865	-0.0001
720.114	0.0011
720.364	0.0012
720.614	0.0009
720.864	0.0002
721.114	-0.0011
721.364	-0.0006
721.613	-0.0005
721.863	-0.0004
722.112	-0.0006
722.362	-0.0002
722.611	0.0009
722.86	0.0015
723.11	0.0021
723.359	0.0018
723.608	0.0017
723.857	0.0032
724.106	0.0027
724.355	0.0019
724.604	0.0016
724.853	0.0007
725.102	-0.0002
725.351	-0.0017
725.599	-0.0029
725.848	-0.0013
726.097	-0.001
726.345	-0.0013
726.594	-0.0003
726.842	0.0006
727.09	-0.0009
727.339	-0.0013
727.587	-0.0008
727.835	-0.0018
728.083	-0.0026
728.331	-0.0022
728.579	-0.0005
728.827	-0.0019
729.075	-0.0019
729.323	-0.0027
729.571	-0.0028
729.818	-0.0028
730.066	-0.002
730.314	-0.0023
730.561	-0.0018
730.809	-0.0033
731.056	-0.0031
731.303	-0.0027
731.551	-0.0016
731.798	-0.002
732.045	-0.0004
732.292	-0.001
732.539	-0.0005
732.786	-0.0018
733.033	-0.0026
733.28	-0.0014
733.527	-0.0014
733.774	-0.0027
734.021	-0.0024
734.267	-0.002
734.514	-0.0024
734.76	-0.0018
735.007	-0.0017
735.253	-0.0007
735.5	0.0013
735.746	0.0018
735.992	0.0011
736.238	0.0022
736.485	0.0017
736.731	0.0016
736.977	0.0009
737.223	0.0001
737.469	-0.0001
737.715	0.0007
737.96	0.0008
738.206	0.0009
738.452	0.0014
738.697	0.0007
738.943	-0.0002
739.189	0.0002
739.434	-0.0007
739.679	0.0006
739.925	0.0022
740.17	0.004
740.415	0.0017
740.66	0.0021
740.906	0.0021
741.151	0.0011
741.396	0.0007
741.641	0.0002
741.886	0.0003
742.13	-0.0004
742.375	0.0014
742.62	-0.0006
742.865	0.0001
743.109	0.0007
743.354	-0
743.598	0.0004
743.843	-0.0012
744.087	-0.001
744.331	-0.002
744.576	-0.0018
744.82	-0.0004
745.064	-0.0004
745.308	0.0009
745.552	0.0006
745.796	-0.0007
746.04	-0.0003
746.284	-0.0012
746.528	-0.0004
746.771	0.0004
747.015	0
747.259	-0.0015
747.502	-0.0017
747.746	-0.0009
747.989	0.0006
748.233	0.0014
748.476	0.0015
748.719	0.0012
748.963	0.0006
749.206	0.0007
749.449	0.0001
749.692	0.0004
749.935	0.0003
750.178	0.0006
750.421	-0.0008
750.664	0.0004
750.906	-0.0002
751.149	-0.0005
751.392	-0.0007
751.635	-0.0003
751.877	0.0006
752.12	0
752.362	0.001
752.604	0.0016
752.847	0.0009
753.089	0.0015
753.331	0.0009
753.573	0.001
753.816	0.0009
754.058	0.0011
754.3	0.0014
754.542	0.0025
754.783	0.0025
755.025	0.0022
755.267	0.0017
755.509	0.0012
755.75	-0.0002
755.992	0.0015
756.234	0.0015
756.475	0.0018
756.716	0.001
756.958	0.0006
757.199	0.0015
757.44	0.0019
757.682	0.0004
757.923	0.0018
758.164	0.0027
758.405	0.0022
758.646	0.002
758.887	0.0015
759.128	0.0005
759.369	-0.0003
759.609	0.0004
759.85	0.0001
760.091	0.0006
760.331	0.0016
760.572	0.0011
760.812	-0.0001
761.053	0.0008
761.293	0.0015
761.533	0.0023
761.774	0.0023
762.014	0.002
762.254	0.002
762.494	0.0017
762.734	0.0011
762.974	0.0018
763.214	0.0013
763.454	0.0018
763.694	0.0021
763.933	0.003
764.173	0.0044
764.413	0.0044
764.652	0.0013
764.892	0.0009
765.131	0.0006
765.371	0.0007
765.61	-0.0008
765.849	-0.0017
766.089	-0.0016
766.328	-0.0013
766.567	-0.0015
766.806	-0.0019
767.045	-0.0031
767.284	-0.0012
767.523	-0.0022
767.762	-0.002
768.001	-0.001
768.239	-0.0009
768.478	-0.0015
768.717	-0.0019
768.955	-0.0017
769.194	-0.0009
769.432	-0.0001
769.671	-0.0006
769.909	-0.0009
770.148	0.0001
770.386	-0.0009
770.624	-0.0006
770.862	-0.0007
771.1	-0.0013
771.338	-0.0017
771.576	-0.0007
771.814	0.0003
772.052	-0.0002
772.29	0.001
772.528	0.0004
772.765	-0.0008
773.003	0
773.24	0.0008
773.478	0.0004
773.716	0.0016
773.953	0.0027
774.19	0.0017
774.428	0.0027
774.665	0.003
774.902	0.003
775.139	0.0025
775.376	0.0015
775.613	0.0018
775.85	0.0019
776.087	0.0026
776.324	0.0012
776.561	0.0009
776.798	0.0013
777.034	0.0009
777.271	0.0016
777.508	0.0017
777.744	0.0026
777.981	0.0018
778.217	0.0014
778.454	0.0011
778.69	0.0009
778.926	0.0014
779.162	0.0007
779.399	0.0013
779.635	0.0014
779.871	0.0012
780.107	0.0001
780.343	-0.0006
780.579	0.0002
780.814	0.0002
781.05	-0.0002
781.286	-0.001
781.522	-0.0011
781.757	-0.0008
781.993	-0.0004
782.228	-0.0011
782.464	0.0002
782.699	0
782.934	-0.0002
783.17	-0.0005
783.405	0.001
783.64	0.0008
783.875	-0.0001
784.11	-0.0004
784.345	0.0003
784.58	0.0009
784.815	0.0003
785.05	-0.0003
785.285	-0.0006
785.52	0.0002
785.754	0.0002
785.989	0.0009
786.223	0.0021
786.458	0.0031
786.692	0.004
786.927	0.0053
787.161	0.0041
787.396	0.0043
787.63	0.0035
787.864	0.0026
788.098	0.0019
788.332	0.0008
788.566	0.0003
788.8	-0.0001
789.034	0
789.268	0.0001
789.502	-0.0001
789.736	0.0004
789.969	0.0002
790.203	0.0004
790.437	0.0014
790.67	0.0017
790.904	0.0036
791.137	0.0035
791.37	0.0039
791.604	0.0032
791.837	0.0039
792.07	0.0046
792.303	0.006
792.537	0.0064
792.77	0.0059
793.003	0.0047
793.236	0.0038
793.469	0.0045
793.701	0.0026
793.934	0.0024
794.167	0.0014
794.4	0.0007
794.632	0.0001
794.865	0
795.097	-0.0013
795.33	0.0001
795.562	0
795.795	-0.0012
796.027	-0.0001
796.259	0.0007
796.491	0.0002
796.724	0.0019
796.956	0.0013
797.188	0.0013
797.42	0.0017
797.652	0.0023
797.883	0.0021
798.115	0.0031
798.347	0.0029
798.579	0.0022
798.81	0.0023
799.042	0.0024
799.274	0.0046
799.505	0.0032
799.737	0.0033
799.968	0.0028
800.199	0.0023
800.431	0.0034
800.662	0.0019
800.893	0.0021
801.124	0.0024
801.355	0.003
801.586	0.0038
801.817	0.0053
802.048	0.0051
802.279	0.0056
802.51	0.006
802.741	0.0064
802.971	0.0057
803.202	0.0046
803.433	0.0048
803.663	0.0037
803.894	0.0035
804.124	0.0029
804.354	0.0049
804.585	0.0064
804.815	0.0053
805.045	0.0061
805.275	0.0057
805.506	0.0329
805.736	-0.1264
805.966	-0.3555
806.196	-0.1688
