Data from 03 0.4 mM K2Cr2O7 0.25 M BQDS 1 M H2SO4 5 min_Absorbance_0160.txt Node
Date: Wed Dec 15 06:50:14 EST 2021
User: kwabilab-user
Spectrometer: HDX00518
Trigger mode: 0
Integration Time (sec): 5.000000E-2
Scans to average: 50
Nonlinearity correction enabled: false
Boxcar width: 0
Storing dark spectrum: false
XAxis mode: Wavelengths
Number of Pixels in Spectrum: 2068
>>>>>Begin Spectral Data<<<<<
195.27	-0.1593
195.642	0.0113
196.014	-0.2529
196.386	-0.083
196.758	-0.0764
197.129	0.0034
197.501	-0.0383
197.872	0.0132
198.244	0.0006
198.615	0.0282
198.986	0.016
199.357	0.0189
199.728	0.0265
200.099	0.0048
200.47	0.0179
200.841	0.0302
201.212	0.0063
201.582	0.0222
201.953	0.014
202.323	0.0227
202.694	0.0208
203.064	0.0124
203.434	0.0152
203.804	0.0079
204.174	0.0246
204.544	0.0298
204.914	0.0045
205.284	0.0041
205.653	0.0062
206.023	0.0179
206.393	0.0192
206.762	0.0157
207.131	0.0225
207.501	0.0328
207.87	0.01
208.239	-0.0056
208.608	0.0398
208.977	0.0124
209.346	0.0041
209.715	0.0198
210.083	0.0108
210.452	0.0038
210.82	0.0224
211.189	0.0176
211.557	0.0272
211.925	0.0103
212.294	0.0249
212.662	0.0119
213.03	0.0203
213.398	0.0077
213.766	0.0107
214.133	0.0318
214.501	0.0063
214.869	0.0072
215.236	0.0118
215.604	0.0387
215.971	0.0351
216.338	0.0229
216.705	0.0162
217.072	0.0341
217.439	0.041
217.806	0.0326
218.173	0.0496
218.54	0.0533
218.907	0.0653
219.273	0.0612
219.64	0.076
220.006	0.069
220.373	0.0835
220.739	0.1008
221.105	0.13
221.471	0.1203
221.837	0.1603
222.203	0.1893
222.569	0.1762
222.935	0.197
223.3	0.2263
223.666	0.2439
224.031	0.2503
224.397	0.2966
224.762	0.3016
225.127	0.3404
225.493	0.3458
225.858	0.3802
226.223	0.3946
226.588	0.4087
226.952	0.426
227.317	0.4613
227.682	0.4671
228.046	0.49
228.411	0.5181
228.775	0.5227
229.14	0.5198
229.504	0.541
229.868	0.5548
230.232	0.5551
230.596	0.5662
230.96	0.6031
231.324	0.5759
231.688	0.5903
232.052	0.6043
232.415	0.5977
232.779	0.6079
233.142	0.6031
233.505	0.6182
233.869	0.6057
234.232	0.6203
234.595	0.6147
234.958	0.6138
235.321	0.6014
235.684	0.6145
236.047	0.6104
236.409	0.5984
236.772	0.5912
237.134	0.5959
237.497	0.5954
237.859	0.6035
238.222	0.5927
238.584	0.5838
238.946	0.5822
239.308	0.5853
239.67	0.5723
240.032	0.5815
240.393	0.5717
240.755	0.5695
241.117	0.5734
241.478	0.5712
241.84	0.5651
242.201	0.5667
242.562	0.5549
242.924	0.5474
243.285	0.5402
243.646	0.5493
244.007	0.5484
244.368	0.5407
244.728	0.5399
245.089	0.5442
245.45	0.5294
245.81	0.527
246.171	0.5234
246.531	0.5304
246.891	0.5222
247.252	0.5182
247.612	0.5254
247.972	0.5236
248.332	0.5143
248.692	0.518
249.051	0.5197
249.411	0.5186
249.771	0.5143
250.13	0.513
250.49	0.5055
250.849	0.5121
251.208	0.5105
251.568	0.5077
251.927	0.5015
252.286	0.5099
252.645	0.504
253.004	0.5044
253.363	0.5034
253.721	0.4995
254.08	0.5085
254.439	0.5014
254.797	0.4957
255.155	0.5003
255.514	0.4977
255.872	0.4971
256.23	0.4988
256.588	0.4966
256.946	0.4968
257.304	0.4972
257.662	0.5039
258.02	0.4957
258.377	0.4972
258.735	0.4889
259.093	0.4882
259.45	0.49
259.807	0.4885
260.165	0.4894
260.522	0.489
260.879	0.4791
261.236	0.4872
261.593	0.4823
261.95	0.4787
262.306	0.4851
262.663	0.4758
263.02	0.4702
263.376	0.4759
263.733	0.4687
264.089	0.4744
264.445	0.4697
264.802	0.4661
265.158	0.4662
265.514	0.4656
265.87	0.4599
266.226	0.4618
266.581	0.4596
266.937	0.4602
267.293	0.4604
267.648	0.4539
268.004	0.4528
268.359	0.4504
268.714	0.4418
269.07	0.4461
269.425	0.4443
269.78	0.4395
270.135	0.4376
270.49	0.4365
270.844	0.4359
271.199	0.4328
271.554	0.4294
271.908	0.4227
272.263	0.4196
272.617	0.4213
272.972	0.4162
273.326	0.4194
273.68	0.4101
274.034	0.4099
274.388	0.4119
274.742	0.4062
275.096	0.4011
275.45	0.3991
275.803	0.3979
276.157	0.3933
276.51	0.3876
276.864	0.3902
277.217	0.3851
277.571	0.3846
277.924	0.3779
278.277	0.3739
278.63	0.3721
278.983	0.3665
279.336	0.3643
279.688	0.3618
280.041	0.3594
280.394	0.3518
280.746	0.3477
281.099	0.3465
281.451	0.3452
281.803	0.3398
282.156	0.3368
282.508	0.3335
282.86	0.328
283.212	0.3266
283.564	0.3235
283.916	0.3177
284.267	0.313
284.619	0.3137
284.971	0.3085
285.322	0.3086
285.673	0.3029
286.025	0.3
286.376	0.2965
286.727	0.2916
287.078	0.2899
287.429	0.2879
287.78	0.282
288.131	0.2777
288.482	0.2764
288.833	0.2727
289.183	0.2687
289.534	0.2657
289.884	0.2638
290.235	0.2601
290.585	0.2562
290.935	0.2528
291.285	0.2517
291.635	0.2461
291.985	0.2438
292.335	0.2415
292.685	0.2392
293.035	0.2337
293.384	0.2323
293.734	0.2272
294.083	0.226
294.433	0.2219
294.782	0.2198
295.131	0.2152
295.48	0.2136
295.829	0.2096
296.179	0.2078
296.527	0.2046
296.876	0.2019
297.225	0.1977
297.574	0.1951
297.922	0.1939
298.271	0.189
298.619	0.1869
298.968	0.1853
299.316	0.1813
299.664	0.1803
300.012	0.177
300.36	0.1739
300.708	0.1727
301.056	0.1687
301.404	0.1678
301.752	0.1657
302.099	0.1632
302.447	0.1612
302.794	0.1587
303.142	0.1567
303.489	0.1543
303.836	0.1531
304.183	0.15
304.531	0.1502
304.878	0.1473
305.224	0.1452
305.571	0.1441
305.918	0.1424
306.265	0.1402
306.611	0.1389
306.958	0.1387
307.304	0.1372
307.651	0.1354
307.997	0.1343
308.343	0.1325
308.689	0.132
309.035	0.1323
309.381	0.1299
309.727	0.1289
310.073	0.1292
310.419	0.128
310.764	0.1272
311.11	0.1262
311.455	0.1253
311.801	0.1248
312.146	0.1247
312.491	0.1246
312.837	0.1237
313.182	0.123
313.527	0.1225
313.872	0.1229
314.216	0.1225
314.561	0.1222
314.906	0.1217
315.251	0.1221
315.595	0.122
315.94	0.1219
316.284	0.122
316.628	0.1222
316.972	0.1224
317.317	0.1223
317.661	0.1222
318.005	0.1224
318.348	0.1232
318.692	0.1232
319.036	0.1233
319.38	0.1245
319.723	0.1244
320.067	0.1247
320.41	0.1257
320.754	0.1266
321.097	0.1263
321.44	0.1273
321.783	0.1281
322.126	0.1288
322.469	0.1289
322.812	0.1302
323.155	0.131
323.498	0.132
323.84	0.1323
324.183	0.133
324.525	0.1343
324.868	0.1354
325.21	0.1358
325.552	0.1364
325.894	0.1383
326.236	0.1381
326.578	0.1395
326.92	0.1399
327.262	0.1406
327.604	0.142
327.946	0.1436
328.287	0.1436
328.629	0.1452
328.97	0.1459
329.312	0.1466
329.653	0.1485
329.994	0.1494
330.335	0.15
330.676	0.1521
331.017	0.1521
331.358	0.1539
331.699	0.1553
332.04	0.1558
332.38	0.1567
332.721	0.158
333.061	0.1585
333.402	0.1603
333.742	0.1605
334.083	0.1621
334.423	0.1628
334.763	0.1644
335.103	0.1645
335.443	0.1659
335.783	0.1666
336.123	0.1669
336.462	0.1685
336.802	0.169
337.141	0.1702
337.481	0.1706
337.82	0.172
338.16	0.1729
338.499	0.1735
338.838	0.1744
339.177	0.1758
339.516	0.1766
339.855	0.177
340.194	0.1775
340.533	0.1775
340.872	0.1785
341.21	0.1804
341.549	0.1805
341.887	0.1812
342.226	0.1805
342.564	0.1815
342.902	0.1826
343.24	0.1825
343.578	0.1833
343.916	0.1825
344.254	0.1839
344.592	0.1837
344.93	0.184
345.268	0.1831
345.605	0.1847
345.943	0.1844
346.28	0.184
346.618	0.1844
346.955	0.1852
347.292	0.1853
347.629	0.1854
347.966	0.1853
348.303	0.1853
348.64	0.185
348.977	0.1851
349.314	0.1851
349.65	0.1855
349.987	0.1857
350.324	0.1851
350.66	0.1854
350.996	0.1857
351.333	0.1854
351.669	0.1838
352.005	0.1842
352.341	0.1826
352.677	0.1823
353.013	0.1813
353.349	0.1815
353.685	0.1799
354.02	0.1792
354.356	0.1786
354.691	0.1785
355.027	0.1773
355.362	0.1764
355.697	0.1754
356.033	0.1757
356.368	0.1744
356.703	0.1737
357.038	0.1737
357.373	0.1721
357.707	0.1717
358.042	0.1709
358.377	0.1703
358.711	0.1703
359.046	0.1687
359.38	0.168
359.715	0.1676
360.049	0.1664
360.383	0.1648
360.717	0.1639
361.051	0.163
361.385	0.163
361.719	0.1614
362.053	0.1604
362.387	0.1587
362.72	0.1582
363.054	0.1565
363.387	0.1551
363.721	0.1544
364.054	0.1526
364.387	0.1511
364.721	0.1501
365.054	0.1492
365.387	0.1471
365.72	0.1467
366.053	0.1451
366.385	0.1437
366.718	0.1435
367.051	0.1419
367.383	0.1407
367.716	0.1402
368.048	0.1391
368.381	0.138
368.713	0.1365
369.045	0.1353
369.377	0.135
369.709	0.1344
370.041	0.1331
370.373	0.1325
370.705	0.1308
371.037	0.1299
371.368	0.1285
371.7	0.1271
372.031	0.1259
372.363	0.1247
372.694	0.1239
373.025	0.1224
373.356	0.1209
373.688	0.1202
374.019	0.1189
374.35	0.1164
374.68	0.1146
375.011	0.1131
375.342	0.1123
375.673	0.1106
376.003	0.1088
376.334	0.1087
376.664	0.1065
376.995	0.1057
377.325	0.1041
377.655	0.1025
377.985	0.1014
378.315	0.1007
378.645	0.0993
378.975	0.0991
379.305	0.0973
379.635	0.0973
379.964	0.0962
380.294	0.0954
380.623	0.0942
380.953	0.093
381.282	0.0926
381.611	0.0922
381.941	0.0905
382.27	0.0891
382.599	0.0889
382.928	0.0874
383.257	0.086
383.585	0.0861
383.914	0.0838
384.243	0.083
384.571	0.0812
384.9	0.0808
385.228	0.079
385.557	0.0781
385.885	0.0768
386.213	0.0763
386.541	0.0737
386.869	0.0736
387.197	0.072
387.525	0.0708
387.853	0.0702
388.181	0.069
388.508	0.0674
388.836	0.0665
389.164	0.066
389.491	0.0648
389.818	0.064
390.146	0.0637
390.473	0.0623
390.8	0.0623
391.127	0.0607
391.454	0.0599
391.781	0.0598
392.108	0.059
392.435	0.0575
392.761	0.0572
393.088	0.0563
393.415	0.0561
393.741	0.0561
394.067	0.0555
394.394	0.055
394.72	0.0532
395.046	0.0522
395.372	0.0525
395.698	0.0511
396.024	0.0502
396.35	0.0501
396.676	0.0493
397.001	0.0485
397.327	0.048
397.653	0.0468
397.978	0.0469
398.303	0.0454
398.629	0.0452
398.954	0.0448
399.279	0.0449
399.604	0.0436
399.929	0.0432
400.254	0.0425
400.579	0.0423
400.904	0.0413
401.229	0.0413
401.553	0.0412
401.878	0.0409
402.202	0.0408
402.527	0.0396
402.851	0.0394
403.175	0.0389
403.5	0.039
403.824	0.0381
404.148	0.0376
404.472	0.0375
404.796	0.0382
405.119	0.0373
405.443	0.0368
405.767	0.0363
406.09	0.0372
406.414	0.0364
406.737	0.0365
407.061	0.0366
407.384	0.0364
407.707	0.0353
408.03	0.0355
408.353	0.0344
408.676	0.035
408.999	0.0347
409.322	0.0348
409.645	0.0345
409.968	0.0342
410.29	0.0346
410.613	0.0352
410.935	0.0338
411.258	0.0343
411.58	0.0334
411.902	0.0335
412.224	0.034
412.546	0.034
412.868	0.0346
413.19	0.0335
413.512	0.0341
413.834	0.0341
414.156	0.0344
414.477	0.0333
414.799	0.0339
415.121	0.0331
415.442	0.0334
415.763	0.0328
416.085	0.034
416.406	0.0337
416.727	0.034
417.048	0.0336
417.369	0.0337
417.69	0.0334
418.011	0.033
418.331	0.0329
418.652	0.0334
418.973	0.0329
419.293	0.0332
419.614	0.0327
419.934	0.0342
420.254	0.0331
420.574	0.0325
420.895	0.0327
421.215	0.0329
421.535	0.0331
421.855	0.0322
422.174	0.0317
422.494	0.0328
422.814	0.0323
423.134	0.0326
423.453	0.0337
423.773	0.0339
424.092	0.0337
424.411	0.0335
424.731	0.0328
425.05	0.0333
425.369	0.0333
425.688	0.0329
426.007	0.033
426.326	0.0338
426.644	0.0331
426.963	0.0327
427.282	0.0332
427.6	0.0337
427.919	0.033
428.237	0.0338
428.556	0.0333
428.874	0.0329
429.192	0.0331
429.51	0.0332
429.828	0.0326
430.146	0.0331
430.464	0.033
430.782	0.033
431.1	0.0323
431.418	0.033
431.735	0.0325
432.053	0.0326
432.37	0.033
432.688	0.0322
433.005	0.0323
433.322	0.0333
433.639	0.0331
433.957	0.0331
434.274	0.033
434.591	0.0327
434.907	0.0328
435.224	0.0332
435.541	0.033
435.858	0.0339
436.174	0.0337
436.491	0.033
436.807	0.0321
437.124	0.0328
437.44	0.032
437.756	0.033
438.072	0.0319
438.388	0.0321
438.704	0.0323
439.02	0.0322
439.336	0.0323
439.652	0.0327
439.968	0.0323
440.283	0.0325
440.599	0.0323
440.914	0.0321
441.23	0.0323
441.545	0.0322
441.86	0.0325
442.175	0.0323
442.491	0.0317
442.806	0.0321
443.121	0.0312
443.435	0.0309
443.75	0.0312
444.065	0.0314
444.38	0.0318
444.694	0.0311
445.009	0.0318
445.323	0.0311
445.638	0.0312
445.952	0.0316
446.266	0.0306
446.58	0.0304
446.894	0.0312
447.208	0.0308
447.522	0.0302
447.836	0.0305
448.15	0.0306
448.464	0.0303
448.777	0.0308
449.091	0.03
449.404	0.0295
449.718	0.0306
450.031	0.0288
450.345	0.0299
450.658	0.0301
450.971	0.0299
451.284	0.0293
451.597	0.0297
451.91	0.0292
452.223	0.0293
452.535	0.0297
452.848	0.0287
453.161	0.0296
453.473	0.029
453.786	0.0291
454.098	0.0285
454.411	0.0296
454.723	0.0294
455.035	0.028
455.347	0.0275
455.659	0.0283
455.971	0.029
456.283	0.0289
456.595	0.0289
456.907	0.0282
457.218	0.029
457.53	0.0277
457.841	0.0274
458.153	0.0276
458.464	0.0273
458.776	0.0274
459.087	0.0276
459.398	0.0272
459.709	0.0262
460.02	0.028
460.331	0.0273
460.642	0.0273
460.953	0.0265
461.263	0.0271
461.574	0.026
461.885	0.0268
462.195	0.0258
462.506	0.0262
462.816	0.0265
463.126	0.0255
463.437	0.0245
463.747	0.0246
464.057	0.0246
464.367	0.0243
464.677	0.0248
464.987	0.0241
465.296	0.024
465.606	0.0242
465.916	0.0238
466.225	0.0242
466.535	0.0234
466.844	0.024
467.154	0.0243
467.463	0.0241
467.772	0.0232
468.081	0.0234
468.39	0.0231
468.699	0.0238
469.008	0.0236
469.317	0.0234
469.626	0.023
469.935	0.0229
470.243	0.0224
470.552	0.0218
470.86	0.0231
471.169	0.022
471.477	0.0215
471.785	0.0212
472.093	0.0216
472.402	0.0218
472.71	0.0208
473.018	0.0205
473.326	0.0211
473.633	0.0209
473.941	0.0209
474.249	0.021
474.556	0.0201
474.864	0.0205
475.171	0.0198
475.479	0.0197
475.786	0.0204
476.094	0.0199
476.401	0.0195
476.708	0.0193
477.015	0.0186
477.322	0.0186
477.629	0.0181
477.936	0.0191
478.242	0.0185
478.549	0.0182
478.856	0.0189
479.162	0.0186
479.469	0.0186
479.775	0.0179
480.081	0.0172
480.388	0.0169
480.694	0.0176
481	0.0175
481.306	0.017
481.612	0.0175
481.918	0.0182
482.224	0.0172
482.53	0.0169
482.835	0.0169
483.141	0.0176
483.446	0.0166
483.752	0.0152
484.057	0.0157
484.363	0.0153
484.668	0.0159
484.973	0.015
485.278	0.0145
485.583	0.0143
485.888	0.0142
486.193	0.0137
486.498	0.0146
486.803	0.0149
487.107	0.0143
487.412	0.013
487.717	0.0135
488.021	0.0136
488.325	0.0137
488.63	0.0138
488.934	0.0132
489.238	0.0132
489.542	0.0134
489.846	0.013
490.15	0.0133
490.454	0.0138
490.758	0.0125
491.062	0.0129
491.366	0.0129
491.669	0.0123
491.973	0.0122
492.276	0.0122
492.58	0.0117
492.883	0.0122
493.186	0.012
493.489	0.0127
493.792	0.011
494.096	0.0118
494.399	0.011
494.701	0.0105
495.004	0.0095
495.307	0.0109
495.61	0.0109
495.912	0.0107
496.215	0.0112
496.517	0.0104
496.82	0.0099
497.122	0.0108
497.424	0.01
497.727	0.01
498.029	0.0097
498.331	0.0094
498.633	0.0093
498.935	0.0094
499.237	0.0095
499.538	0.0091
499.84	0.0094
500.142	0.0089
500.443	0.0085
500.745	0.0092
501.046	0.0091
501.348	0.0087
501.649	0.0085
501.95	0.0088
502.251	0.009
502.552	0.0076
502.853	0.0082
503.154	0.009
503.455	0.0077
503.756	0.0077
504.057	0.0073
504.357	0.0083
504.658	0.0076
504.958	0.0074
505.259	0.0081
505.559	0.0065
505.859	0.0061
506.16	0.0068
506.46	0.0067
506.76	0.0071
507.06	0.0058
507.36	0.0063
507.66	0.0066
507.96	0.0073
508.259	0.0067
508.559	0.0059
508.859	0.0066
509.158	0.0057
509.457	0.0049
509.757	0.0058
510.056	0.0064
510.355	0.0061
510.655	0.0048
510.954	0.0053
511.253	0.0056
511.552	0.006
511.851	0.0052
512.149	0.005
512.448	0.0056
512.747	0.0046
513.045	0.0051
513.344	0.0047
513.642	0.0055
513.941	0.0052
514.239	0.0048
514.537	0.0052
514.836	0.0052
515.134	0.004
515.432	0.0054
515.73	0.0044
516.028	0.0044
516.326	0.0044
516.623	0.0035
516.921	0.0035
517.219	0.006
517.516	0.004
517.814	0.0041
518.111	0.0052
518.409	0.0047
518.706	0.0045
519.003	0.004
519.3	0.0032
519.597	0.004
519.894	0.0047
520.191	0.0053
520.488	0.0051
520.785	0.0041
521.082	0.0052
521.378	0.0041
521.675	0.0042
521.971	0.0037
522.268	0.0055
522.564	0.0042
522.861	0.005
523.157	0.0028
523.453	0.0041
523.749	0.0046
524.045	0.0037
524.341	0.0039
524.637	0.0037
524.933	0.0047
525.229	0.0041
525.524	0.0039
525.82	0.0049
526.115	0.004
526.411	0.0045
526.706	0.0029
527.002	0.0029
527.297	0.0023
527.592	0.004
527.887	0.0028
528.182	0.0029
528.477	0.003
528.772	0.0036
529.067	0.003
529.362	0.0045
529.657	0.0039
529.951	0.0033
530.246	0.0035
530.54	0.0034
530.835	0.0033
531.129	0.003
531.423	0.0027
531.718	0.0025
532.012	0.0023
532.306	0.0025
532.6	0.0035
532.894	0.0027
533.188	0.0017
533.482	0.0027
533.775	0.0021
534.069	0.0022
534.363	0.0018
534.656	0.0027
534.95	0.003
535.243	0.0024
535.536	0.0025
535.83	0.0025
536.123	0.0018
536.416	0.0022
536.709	0.0035
537.002	0.0046
537.295	0.0029
537.588	0.0032
537.881	0.0019
538.173	0.003
538.466	0.0024
538.759	0.0027
539.051	0.0041
539.344	0.0032
539.636	0.0023
539.928	0.0048
540.22	0.0023
540.513	0.0028
540.805	0.0031
541.097	0.0041
541.389	0.0017
541.681	0.0031
541.972	0.0032
542.264	0.0024
542.556	0.0032
542.847	0.004
543.139	0.003
543.431	0.0028
543.722	0.0027
544.013	0.0038
544.305	0.0031
544.596	0.0033
544.887	0.0043
545.178	0.0042
545.469	0.0039
545.76	0.0049
546.051	0.0042
546.342	0.0033
546.632	0.0035
546.923	0.0032
547.214	0.0026
547.504	0.0038
547.795	0.0029
548.085	0.0026
548.375	0.0041
548.666	0.0038
548.956	0.0035
549.246	0.004
549.536	0.0041
549.826	0.0043
550.116	0.0046
550.406	0.0033
550.695	0.0042
550.985	0.0036
551.275	0.0036
551.564	0.0044
551.854	0.0043
552.143	0.0044
552.433	0.0031
552.722	0.0036
553.011	0.0043
553.3	0.0038
553.589	0.0041
553.879	0.0037
554.167	0.0032
554.456	0.0034
554.745	0.0035
555.034	0.0043
555.323	0.0034
555.611	0.0041
555.9	0.0037
556.188	0.0024
556.477	0.0028
556.765	0.0061
557.053	0.004
557.342	0.0035
557.63	0.0033
557.918	0.0037
558.206	0.0047
558.494	0.0042
558.782	0.0037
559.069	0.0054
559.357	0.0042
559.645	0.0046
559.932	0.0033
560.22	0.0033
560.507	0.0018
560.795	0.0026
561.082	0.002
561.37	0.0036
561.657	0.0025
561.944	0.0027
562.231	0.0027
562.518	0.0028
562.805	0.0038
563.092	0.0033
563.379	0.0034
563.665	0.0036
563.952	0.0044
564.239	0.0045
564.525	0.0043
564.811	0.004
565.098	0.0033
565.384	0.0039
565.67	0.0033
565.957	0.004
566.243	0.0043
566.529	0.0037
566.815	0.0036
567.101	0.0031
567.387	0.002
567.672	0.0025
567.958	0.0017
568.244	0.0023
568.529	0.0022
568.815	0.0027
569.1	0.0026
569.386	0.0034
569.671	0.0021
569.956	0.0035
570.242	0.0026
570.527	0.0026
570.812	0.0028
571.097	0.0028
571.382	0.0016
571.666	0.0024
571.951	0.0024
572.236	0.0028
572.521	0.0033
572.805	0.0035
573.09	0.0025
573.374	0.002
573.659	0.0024
573.943	0.0028
574.227	0.0029
574.511	0.0033
574.795	0.0034
575.079	0.0027
575.363	0.0021
575.647	0.003
575.931	0.0032
576.215	0.0028
576.499	0.0023
576.782	0.0018
577.066	0.0024
577.349	0.0032
577.633	0.0031
577.916	0.0027
578.2	0.0028
578.483	0.0035
578.766	0.0041
579.049	0.0036
579.332	0.004
579.615	0.0027
579.898	0.0026
580.181	0.0028
580.464	0.0028
580.746	0.0024
581.029	0.0024
581.312	0.0017
581.594	0.0013
581.877	0.0024
582.159	0.0036
582.441	0.0022
582.724	0.0028
583.006	0.0034
583.288	0.0027
583.57	0.003
583.852	0.0039
584.134	0.0033
584.416	0.0019
584.697	0.0022
584.979	0.002
585.261	0.002
585.542	0.0025
585.824	0.004
586.105	0.003
586.387	0.0035
586.668	0.0029
586.949	0.0036
587.231	0.0036
587.512	0.0025
587.793	0.0023
588.074	0.0032
588.355	0.0034
588.636	0.0022
588.916	0.0037
589.197	0.0027
589.478	0.0026
589.758	0.0022
590.039	0.0023
590.319	0.0018
590.6	0.0029
590.88	0.0026
591.16	0.0023
591.441	0.0037
591.721	0.002
592.001	0.0014
592.281	0.0027
592.561	0.0032
592.841	0.0019
593.12	0.0019
593.4	0.0031
593.68	0.0026
593.959	0.0027
594.239	0.0037
594.518	0.0041
594.798	0.0036
595.077	0.0027
595.356	0.0029
595.636	0.0036
595.915	0.0025
596.194	0.0034
596.473	0.0035
596.752	0.0028
597.031	0.0037
597.31	0.0021
597.588	0.0025
597.867	0.0025
598.146	0.002
598.424	0.0012
598.703	0.0016
598.981	0.0013
599.259	0.0015
599.538	0.0028
599.816	0.0032
600.094	0.0023
600.372	0.0028
600.65	0.0033
600.928	0.0032
601.206	0.0029
601.484	0.004
601.762	0.0033
602.04	0.0039
602.317	0.003
602.595	0.0043
602.872	0.0036
603.15	0.0033
603.427	0.0019
603.704	0.0019
603.982	0.0024
604.259	0.002
604.536	0.002
604.813	0.0018
605.09	0.0022
605.367	0.0015
605.644	0.0019
605.921	0.0016
606.197	0.0013
606.474	0.0025
606.751	0.0015
607.027	0.0017
607.304	0.0021
607.58	0.0024
607.856	0.0031
608.133	0.0044
608.409	0.0038
608.685	0.0041
608.961	0.0035
609.237	0.003
609.513	0.0041
609.789	0.0026
610.065	0.0027
610.341	0.0023
610.616	0.003
610.892	0.0028
611.167	0.0035
611.443	0.0038
611.718	0.0032
611.994	0.003
612.269	0.0023
612.544	0.0027
612.819	0.002
613.095	0.0026
613.37	0.0019
613.645	0.0015
613.919	0.0028
614.194	0.0021
614.469	0.0028
614.744	0.0015
615.019	0.0015
615.293	0.002
615.568	0.0018
615.842	0.0015
616.116	0.0018
616.391	0.0016
616.665	0.001
616.939	0.0012
617.213	0.002
617.488	0.0024
617.762	0.0025
618.035	0.0034
618.309	0.0024
618.583	0.0028
618.857	0.0029
619.131	0.0025
619.404	0.0026
619.678	0.0032
619.951	0.0023
620.225	0.0019
620.498	0.0012
620.771	0.0016
621.045	0.0023
621.318	0.0028
621.591	0.003
621.864	0.0014
622.137	0.0006
622.41	0.002
622.683	0.0017
622.956	0.0022
623.228	0.0021
623.501	0.003
623.774	0.003
624.046	0.002
624.319	0.002
624.591	0.0016
624.863	0.0019
625.136	0.0034
625.408	0.004
625.68	0.0029
625.952	0.003
626.224	0.0037
626.496	0.0037
626.768	0.0029
627.04	0.0033
627.311	0.0028
627.583	0.0036
627.855	0.0028
628.126	0.0029
628.398	0.0028
628.669	0.0025
628.941	0
629.212	0.0003
629.483	0.0014
629.755	0.0017
630.026	0.0016
630.297	0.0017
630.568	0.0022
630.839	0.003
631.11	0.0035
631.38	0.0025
631.651	0.0026
631.922	0.0025
632.192	0.0023
632.463	0.0026
632.733	0.0013
633.004	0.0027
633.274	0.0017
633.545	0.0024
633.815	0.0035
634.085	0.0027
634.355	0.0026
634.625	0.0025
634.895	0.0025
635.165	0.0027
635.435	0.0032
635.705	0.0025
635.974	0.0019
636.244	0.0014
636.514	0.0007
636.783	0.0014
637.053	0.0021
637.322	0.002
637.591	0.0021
637.861	0.0003
638.13	0.0011
638.399	0.0021
638.668	0.0022
638.937	0.0022
639.206	0.003
639.475	0.0031
639.744	0.0026
640.013	0.0034
640.281	0.0026
640.55	0.003
640.819	0.0021
641.087	0.0015
641.356	0.0024
641.624	0.0023
641.892	0.0024
642.161	0.003
642.429	0.0024
642.697	0.0027
642.965	0.0021
643.233	0.0008
643.501	0.0007
643.769	0.0014
644.037	0.0013
644.305	0.0008
644.572	0.0023
644.84	0.0011
645.108	0.0027
645.375	0.0014
645.643	0.0025
645.91	0.0021
646.177	0.0022
646.445	0.0027
646.712	0.0028
646.979	0.0024
647.246	0.0037
647.513	0.0034
647.78	0.0028
648.047	0.0006
648.314	0.0001
648.58	-0.0001
648.847	-0.0004
649.114	-0.0013
649.38	-0.0009
649.647	-0.0003
649.913	-0.0003
650.18	0.0015
650.446	0.0017
650.712	0.0028
650.978	0.0033
651.245	0.004
651.511	0.0039
651.777	0.0035
652.043	0.0026
652.309	0.0025
652.574	0.0018
652.84	0.0034
653.106	0.0033
653.371	0.0044
653.637	0.0036
653.903	0.0036
654.168	0.0034
654.433	0.0029
654.699	0.002
654.964	-0
655.229	0.001
655.494	0.0008
655.759	-0.0024
656.024	0.0002
656.289	-0
656.554	0.0026
656.819	0.0035
657.084	0.0035
657.349	0.0028
657.613	0.0025
657.878	0.0013
658.142	0.0013
658.407	0.001
658.671	0.0009
658.936	0.0017
659.2	0.003
659.464	0.0015
659.728	0.0016
659.992	0.002
660.256	-0.0007
660.52	0.0002
660.784	0.0012
661.048	0.0013
661.312	0.0022
661.575	0.001
661.839	0.0024
662.103	0.0024
662.366	0.0017
662.63	0.0019
662.893	0.0016
663.156	0.0022
663.42	0.0029
663.683	0.0021
663.946	0.0033
664.209	0.0038
664.472	0.0023
664.735	0.0023
664.998	0.0041
665.261	0.0037
665.524	0.004
665.786	0.0027
666.049	0.0034
666.312	0.0026
666.574	0.0025
666.837	0.0037
667.099	0.0036
667.361	0.0043
667.624	0.0039
667.886	0.0034
668.148	0.0036
668.41	0.0037
668.672	0.0035
668.934	0.0038
669.196	0.003
669.458	0.0018
669.72	0.0015
669.982	0.0019
670.243	0.0016
670.505	0.0016
670.766	0.0015
671.028	0.0022
671.289	0.0029
671.551	0.0023
671.812	0.0008
672.073	0.0023
672.334	0.0019
672.596	0.0014
672.857	0.0027
673.118	0.0027
673.379	0.004
673.639	0.0044
673.9	0.0028
674.161	0.003
674.422	0.0031
674.682	0.0024
674.943	0.0013
675.203	0.0019
675.464	0.0023
675.724	0.002
675.985	0.0016
676.245	0.0012
676.505	0.0004
676.765	0.0015
677.025	0.0012
677.285	0.0006
677.545	0.0013
677.805	0.0008
678.065	0.0022
678.325	0.0027
678.585	0.0031
678.844	0.0039
679.104	0.0047
679.363	0.0054
679.623	0.0055
679.882	0.0053
680.142	0.0051
680.401	0.005
680.66	0.0058
680.919	0.0044
681.178	0.005
681.437	0.0035
681.696	0.0034
681.955	0.0057
682.214	0.0048
682.473	0.0052
682.732	0.0025
682.99	0.005
683.249	0.0051
683.508	0.0048
683.766	0.0041
684.024	0.0032
684.283	0.0023
684.541	0.0019
684.799	0.0016
685.058	0.0003
685.316	-0.0002
685.574	-0.0007
685.832	0.0004
686.09	0.0002
686.348	-0.0004
686.606	0.0006
686.863	-0.0008
687.121	-0.0011
687.379	-0.0018
687.636	-0.0018
687.894	-0.0007
688.151	-0.0013
688.409	-0.0007
688.666	-0
688.923	0
689.181	0.0001
689.438	-0.0006
689.695	-0.0001
689.952	0.0005
690.209	0.0002
690.466	-0.0005
690.723	0.0006
690.979	-0.0001
691.236	-0.001
691.493	-0.002
691.75	-0.0011
692.006	-0.0011
692.263	-0.0005
692.519	-0.0011
692.775	-0.002
693.032	-0.0014
693.288	-0.0028
693.544	-0.0015
693.8	-0.0001
694.056	-0.0005
694.313	-0.0014
694.568	-0.0003
694.824	0.0002
695.08	-0.0006
695.336	0.0004
695.592	-0.0004
695.847	0.0019
696.103	0.0027
696.359	0.0043
696.614	0.0026
696.869	0.0013
697.125	-0.0008
697.38	-0.0006
697.635	0.001
697.891	0.002
698.146	0.0016
698.401	0.0014
698.656	-0.0002
698.911	0.002
699.166	0.0008
699.42	0.0028
699.675	0.0024
699.93	0.0034
700.185	0.0037
700.439	0.003
700.694	0.002
700.948	0.0016
701.203	0.0024
701.457	0.0026
701.711	0.0014
701.965	0.001
702.22	0.0006
702.474	0.0008
702.728	0.0006
702.982	0.0011
703.236	0.001
703.49	0.0012
703.743	0.0015
703.997	0.0008
704.251	0.0011
704.504	0.0014
704.758	0.002
705.012	0.0024
705.265	0.0037
705.518	0.0016
705.772	0.0027
706.025	0.0031
706.278	0.0028
706.531	0.0021
706.785	0.0002
707.038	-0.0007
707.291	-0.0003
707.543	-0.0005
707.796	0.0006
708.049	0
708.302	0.0002
708.555	0
708.807	0.0009
709.06	0.0013
709.312	0.0026
709.565	0.0022
709.817	0.0038
710.069	0.0025
710.322	0.0033
710.574	0.003
710.826	0.0023
711.078	0.0025
711.33	0.0022
711.582	0.002
711.834	0.0015
712.086	0.0022
712.338	0.0018
712.59	0.0021
712.841	0.0002
713.093	0.0006
713.344	0.002
713.596	0.0002
713.847	-0.0008
714.099	-0.0001
714.35	0.0008
714.601	-0.0003
714.853	-0.0014
715.104	-0.0002
715.355	-0.0007
715.606	0.0004
715.857	0.0012
716.108	0.0016
716.359	0.0023
716.609	0.0007
716.86	0.0028
717.111	0.0013
717.361	0.0013
717.612	0.001
717.863	0.0019
718.113	0.003
718.363	0.0018
718.614	0.0027
718.864	0.002
719.114	0.0018
719.364	0.0001
719.614	0.0004
719.865	0.0006
720.114	0.0009
720.364	0.0015
720.614	0.0002
720.864	-0.0006
721.114	-0.0006
721.364	-0.0011
721.613	-0.0013
721.863	-0.0007
722.112	-0.0007
722.362	-0
722.611	0.0012
722.86	0.0017
723.11	0.0026
723.359	0.0028
723.608	0.002
723.857	0.0038
724.106	0.0026
724.355	0.0019
724.604	0.0015
724.853	0.0011
725.102	-0.0009
725.351	-0.0014
725.599	-0.0027
725.848	-0.0012
726.097	-0.0008
726.345	-0.0015
726.594	-0.0008
726.842	0.0003
727.09	-0.0004
727.339	-0.0011
727.587	-0.0008
727.835	-0.0019
728.083	-0.0023
728.331	-0.0021
728.579	-0.0007
728.827	-0.0018
729.075	-0.0022
729.323	-0.0014
729.571	-0.0025
729.818	-0.002
730.066	-0.0019
730.314	-0.0011
730.561	-0.0015
730.809	-0.0032
731.056	-0.0032
731.303	-0.0018
731.551	-0.0016
731.798	-0.0019
732.045	-0.0001
732.292	-0.0005
732.539	-0.0006
732.786	-0.0021
733.033	-0.0022
733.28	-0.0015
733.527	-0.001
733.774	-0.002
734.021	-0.0023
734.267	-0.0016
734.514	-0.0018
734.76	-0.0021
735.007	-0.0013
735.253	-0.0004
735.5	0.0017
735.746	0.0015
735.992	0.0017
736.238	0.0028
736.485	0.0019
736.731	0.002
736.977	0.0009
737.223	-0.0007
737.469	-0.0004
737.715	0.0011
737.96	0.0016
738.206	0.0007
738.452	0.0008
738.697	0.0007
738.943	-0.0002
739.189	-0.0001
739.434	0.0003
739.679	0.0009
739.925	0.0026
740.17	0.0029
740.415	0.002
740.66	0.0026
740.906	0.0025
741.151	0.0017
741.396	0.0003
741.641	0.0004
741.886	0.0009
742.13	0.0009
742.375	0.0016
742.62	0
742.865	0.0005
743.109	0.0008
743.354	-0.0006
743.598	-0.0013
743.843	-0.0019
744.087	-0.003
744.331	-0.0026
744.576	-0.0022
744.82	-0.0002
745.064	-0.0006
745.308	-0.0001
745.552	0.0004
745.796	-0.0004
746.04	-0
746.284	-0.0015
746.528	0.0003
746.771	-0.0002
747.015	0.0006
747.259	-0.0013
747.502	-0.0013
747.746	-0.0005
747.989	-0.0002
748.233	0.0012
748.476	0.0012
748.719	0.0008
748.963	0.0015
749.206	0.0006
749.449	0.0008
749.692	0.0001
749.935	0.0006
750.178	0.0004
750.421	0.0001
750.664	0.0003
750.906	0.0007
751.149	0.0002
751.392	0.0001
751.635	0.0005
751.877	0.0009
752.12	0.0004
752.362	0.0013
752.604	0.0016
752.847	0.0009
753.089	0.0007
753.331	0.0009
753.573	0.0009
753.816	0.0015
754.058	0.0017
754.3	0.0021
754.542	0.0024
754.783	0.0024
755.025	0.0029
755.267	0.0025
755.509	0.0022
755.75	0.0007
755.992	0.0016
756.234	0.001
756.475	0.0015
756.716	0.0007
756.958	-0
757.199	0.0007
757.44	0.001
757.682	0.0003
757.923	0.0013
758.164	0.0026
758.405	0.0017
758.646	0.002
758.887	0.0015
759.128	0.0016
759.369	-0.0004
759.609	0.0006
759.85	0.0001
760.091	0.0011
760.331	0.0011
760.572	0.0013
760.812	0.0008
761.053	0.001
761.293	0.0016
761.533	0.0025
761.774	0.0027
762.014	0.0025
762.254	0.0019
762.494	0.0025
762.734	0.0018
762.974	0.0013
763.214	0.0021
763.454	0.0017
763.694	0.0018
763.933	0.0036
764.173	0.0042
764.413	0.0037
764.652	0.0014
764.892	0.0017
765.131	0.0013
765.371	0.0004
765.61	0.0002
765.849	-0.0015
766.089	-0.0014
766.328	-0.0005
766.567	-0.0023
766.806	-0.0027
767.045	-0.0033
767.284	-0.0018
767.523	-0.0023
767.762	-0.0021
768.001	-0.0018
768.239	-0.0019
768.478	-0.002
768.717	-0.0021
768.955	-0.0023
769.194	-0.001
769.432	-0.0001
769.671	-0.0004
769.909	-0.0006
770.148	-0.0007
770.386	-0.0005
770.624	-0.0007
770.862	-0.0009
771.1	-0.001
771.338	-0.0013
771.576	-0.0003
771.814	0.0005
772.052	0.0011
772.29	0.0013
772.528	0.0007
772.765	-0.0005
773.003	0
773.24	0.0017
773.478	0.0006
773.716	0.0024
773.953	0.0017
774.19	0.0021
774.428	0.0031
774.665	0.0042
774.902	0.0035
775.139	0.0033
775.376	0.002
775.613	0.0022
775.85	0.0025
776.087	0.0028
776.324	0.0021
776.561	0.0011
776.798	0.0007
777.034	0.0012
777.271	0.0018
777.508	0.0012
777.744	0.0026
777.981	0.0028
778.217	0.0015
778.454	0.0008
778.69	0.0011
778.926	0.0007
779.162	0.0009
779.399	0.0019
779.635	0.0012
779.871	0.0012
780.107	0.0006
780.343	-0.0006
780.579	0.0001
780.814	0.0005
781.05	0.0005
781.286	-0.0006
781.522	-0.0004
781.757	-0.0011
781.993	-0.0005
782.228	-0.0012
782.464	0.0003
782.699	0.0005
782.934	-0.0008
783.17	-0.0003
783.405	0.0013
783.64	0.001
783.875	-0.0003
784.11	-0.0006
784.345	-0
784.58	-0.0003
784.815	-0.0001
785.05	0.0004
785.285	-0.0007
785.52	0.0005
785.754	-0.0005
785.989	0.0003
786.223	0.0021
786.458	0.0025
786.692	0.0034
786.927	0.0046
787.161	0.0048
787.396	0.005
787.63	0.0036
787.864	0.0026
788.098	0.0008
788.332	0.0006
788.566	-0.0002
788.8	0.0005
789.034	0.0003
789.268	-0.0002
789.502	0.0004
789.736	0.001
789.969	0.0003
790.203	0.0018
790.437	0.0021
790.67	0.0022
790.904	0.0043
791.137	0.0044
791.37	0.0043
791.604	0.0038
791.837	0.0047
792.07	0.0047
792.303	0.0057
792.537	0.0063
792.77	0.0054
793.003	0.0048
793.236	0.0042
793.469	0.0043
793.701	0.0034
793.934	0.0029
794.167	0.0018
794.4	0.0012
794.632	0.0006
794.865	0.0001
795.097	-0.0003
795.33	-0.0002
795.562	-0.0007
795.795	-0.0004
796.027	0.0007
796.259	0.0015
796.491	0.0015
796.724	0.003
796.956	0.0019
797.188	0.0023
797.42	0.0015
797.652	0.0022
797.883	0.0029
798.115	0.0034
798.347	0.0027
798.579	0.0032
798.81	0.0038
799.042	0.0031
799.274	0.0044
799.505	0.0033
799.737	0.0027
799.968	0.002
800.199	0.0024
800.431	0.0036
800.662	0.0021
800.893	0.0031
801.124	0.003
801.355	0.0034
801.586	0.0043
801.817	0.0062
802.048	0.0048
802.279	0.0059
802.51	0.0063
802.741	0.0062
802.971	0.0057
803.202	0.0052
803.433	0.0048
803.663	0.0039
803.894	0.0038
804.124	0.0033
804.354	0.0048
804.585	0.0059
804.815	0.0059
805.045	0.007
805.275	0.0052
805.506	0.0324
805.736	-0.1143
805.966	-0.2074
806.196	-0.0755
