Data from 03 0.4 mM K2Cr2O7 0.25 M BQDS 1 M H2SO4 5 min_Absorbance_0127.txt Node
Date: Wed Dec 15 04:05:12 EST 2021
User: kwabilab-user
Spectrometer: HDX00518
Trigger mode: 0
Integration Time (sec): 5.000000E-2
Scans to average: 50
Nonlinearity correction enabled: false
Boxcar width: 0
Storing dark spectrum: false
XAxis mode: Wavelengths
Number of Pixels in Spectrum: 2068
>>>>>Begin Spectral Data<<<<<
195.27	-0.1905
195.642	-0.1013
196.014	-0.2212
196.386	-0.1836
196.758	-0.1548
197.129	-0.0344
197.501	-0.0607
197.872	-0.0269
198.244	-0.0239
198.615	0.014
198.986	-0.016
199.357	-0.0056
199.728	0.0154
200.099	0.0025
200.47	-0.0071
200.841	-0.0285
201.212	-0.0125
201.582	0.0069
201.953	0.0023
202.323	-0.0038
202.694	-0.012
203.064	-0.0093
203.434	-0.0383
203.804	-0.0299
204.174	-0.0198
204.544	0.0069
204.914	-0.0386
205.284	-0.0141
205.653	-0.0318
206.023	-0.0054
206.393	0.0005
206.762	0.0018
207.131	-0.0078
207.501	-0.0139
207.87	-0.0075
208.239	-0.0116
208.608	0.0032
208.977	-0.0378
209.346	-0.0395
209.715	-0.0114
210.083	-0.0014
210.452	-0.0211
210.82	0.0103
211.189	-0.0368
211.557	-0.0062
211.925	-0.0195
212.294	-0.0335
212.662	-0.0139
213.03	-0.0141
213.398	-0.0217
213.766	-0.0252
214.133	-0.0121
214.501	-0.0179
214.869	-0.0138
215.236	-0.0301
215.604	0.0063
215.971	0.0295
216.338	-0.0058
216.705	0.0152
217.072	0.0112
217.439	0.0037
217.806	0.0015
218.173	0.0121
218.54	-0.0001
218.907	0.0254
219.273	0.0314
219.64	0.0287
220.006	0.0463
220.373	0.0508
220.739	0.0785
221.105	0.0792
221.471	0.0965
221.837	0.1265
222.203	0.1491
222.569	0.1363
222.935	0.1583
223.3	0.1929
223.666	0.2265
224.031	0.2266
224.397	0.2544
224.762	0.2814
225.127	0.2969
225.493	0.3242
225.858	0.3567
226.223	0.3694
226.588	0.3863
226.952	0.3961
227.317	0.4471
227.682	0.4411
228.046	0.4705
228.411	0.4871
228.775	0.4978
229.14	0.4995
229.504	0.5291
229.868	0.5247
230.232	0.5384
230.596	0.5518
230.96	0.5691
231.324	0.5594
231.688	0.5717
232.052	0.5842
232.415	0.5851
232.779	0.5809
233.142	0.5895
233.505	0.6042
233.869	0.5962
234.232	0.5998
234.595	0.599
234.958	0.6085
235.321	0.6067
235.684	0.6006
236.047	0.5967
236.409	0.5909
236.772	0.5964
237.134	0.5879
237.497	0.5804
237.859	0.5947
238.222	0.5902
238.584	0.5846
238.946	0.5809
239.308	0.5781
239.67	0.5686
240.032	0.5758
240.393	0.5672
240.755	0.566
241.117	0.5674
241.478	0.5671
241.84	0.5598
242.201	0.5559
242.562	0.5581
242.924	0.5544
243.285	0.5421
243.646	0.543
244.007	0.5471
244.368	0.5443
244.728	0.5441
245.089	0.5367
245.45	0.5423
245.81	0.537
246.171	0.5302
246.531	0.5312
246.891	0.5258
247.252	0.5207
247.612	0.5279
247.972	0.5174
248.332	0.5261
248.692	0.5148
249.051	0.5188
249.411	0.5185
249.771	0.5135
250.13	0.5149
250.49	0.5136
250.849	0.5152
251.208	0.5131
251.568	0.5144
251.927	0.5101
252.286	0.5148
252.645	0.5108
253.004	0.5135
253.363	0.5085
253.721	0.5096
254.08	0.5142
254.439	0.5082
254.797	0.5069
255.155	0.5079
255.514	0.505
255.872	0.504
256.23	0.5008
256.588	0.507
256.946	0.5106
257.304	0.5004
257.662	0.5079
258.02	0.5045
258.377	0.5018
258.735	0.5049
259.093	0.4989
259.45	0.499
259.807	0.4986
260.165	0.4973
260.522	0.4978
260.879	0.4898
261.236	0.4962
261.593	0.4915
261.95	0.4899
262.306	0.4923
262.663	0.4881
263.02	0.482
263.376	0.4807
263.733	0.4806
264.089	0.4826
264.445	0.4803
264.802	0.4775
265.158	0.4764
265.514	0.4744
265.87	0.4771
266.226	0.4737
266.581	0.4688
266.937	0.4666
267.293	0.463
267.648	0.4627
268.004	0.4586
268.359	0.4635
268.714	0.4526
269.07	0.4563
269.425	0.4523
269.78	0.4512
270.135	0.449
270.49	0.4466
270.844	0.4447
271.199	0.4443
271.554	0.4377
271.908	0.4328
272.263	0.4369
272.617	0.4307
272.972	0.4262
273.326	0.4251
273.68	0.423
274.034	0.4211
274.388	0.4184
274.742	0.4158
275.096	0.4091
275.45	0.411
275.803	0.4065
276.157	0.4036
276.51	0.4024
276.864	0.3969
277.217	0.3943
277.571	0.3914
277.924	0.3873
278.277	0.3851
278.63	0.3784
278.983	0.3773
279.336	0.3739
279.688	0.3735
280.041	0.3662
280.394	0.3596
280.746	0.3605
281.099	0.3544
281.451	0.3539
281.803	0.349
282.156	0.3449
282.508	0.3395
282.86	0.3388
283.212	0.3361
283.564	0.331
283.916	0.3254
284.267	0.3234
284.619	0.3227
284.971	0.3173
285.322	0.3146
285.673	0.3093
286.025	0.3061
286.376	0.3078
286.727	0.3005
287.078	0.2957
287.429	0.296
287.78	0.2888
288.131	0.287
288.482	0.2833
288.833	0.28
289.183	0.2767
289.534	0.2733
289.884	0.2704
290.235	0.2659
290.585	0.2649
290.935	0.2596
291.285	0.2588
291.635	0.2543
291.985	0.252
292.335	0.2478
292.685	0.2464
293.035	0.2418
293.384	0.2387
293.734	0.2348
294.083	0.2317
294.433	0.2287
294.782	0.2277
295.131	0.223
295.48	0.2199
295.829	0.2167
296.179	0.2148
296.527	0.2104
296.876	0.2089
297.225	0.2049
297.574	0.2027
297.922	0.1992
298.271	0.1956
298.619	0.1929
298.968	0.1914
299.316	0.1881
299.664	0.1868
300.012	0.1834
300.36	0.1796
300.708	0.1792
301.056	0.1757
301.404	0.1727
301.752	0.1709
302.099	0.1688
302.447	0.1669
302.794	0.1653
303.142	0.1624
303.489	0.1602
303.836	0.1584
304.183	0.1561
304.531	0.1548
304.878	0.1516
305.224	0.1508
305.571	0.1494
305.918	0.1487
306.265	0.145
306.611	0.1439
306.958	0.1435
307.304	0.1425
307.651	0.1409
307.997	0.1394
308.343	0.1382
308.689	0.1381
309.035	0.1366
309.381	0.1349
309.727	0.1351
310.073	0.1343
310.419	0.1322
310.764	0.1329
311.11	0.1309
311.455	0.1305
311.801	0.1301
312.146	0.1297
312.491	0.1293
312.837	0.1291
313.182	0.1276
313.527	0.1268
313.872	0.1279
314.216	0.1276
314.561	0.1269
314.906	0.1271
315.251	0.127
315.595	0.1271
315.94	0.1271
316.284	0.1267
316.628	0.1269
316.972	0.127
317.317	0.1271
317.661	0.1277
318.005	0.1277
318.348	0.1282
318.692	0.1283
319.036	0.1286
319.38	0.1298
319.723	0.1297
320.067	0.1298
320.41	0.1308
320.754	0.1314
321.097	0.1312
321.44	0.1325
321.783	0.1334
322.126	0.1346
322.469	0.1339
322.812	0.1354
323.155	0.1359
323.498	0.1367
323.84	0.1375
324.183	0.1385
324.525	0.1391
324.868	0.1415
325.21	0.1417
325.552	0.1423
325.894	0.1427
326.236	0.1434
326.578	0.1449
326.92	0.1452
327.262	0.1461
327.604	0.1476
327.946	0.1489
328.287	0.1494
328.629	0.1507
328.97	0.1514
329.312	0.1527
329.653	0.1541
329.994	0.1551
330.335	0.1562
330.676	0.157
331.017	0.1576
331.358	0.1598
331.699	0.1603
332.04	0.1616
332.38	0.1628
332.721	0.1639
333.061	0.1646
333.402	0.1663
333.742	0.1669
334.083	0.1678
334.423	0.1691
334.763	0.1697
335.103	0.1707
335.443	0.1723
335.783	0.1731
336.123	0.1735
336.462	0.1742
336.802	0.1763
337.141	0.1763
337.481	0.1772
337.82	0.1784
338.16	0.1793
338.499	0.18
338.838	0.1813
339.177	0.1813
339.516	0.1827
339.855	0.184
340.194	0.1845
340.533	0.1847
340.872	0.1855
341.21	0.1868
341.549	0.1869
341.887	0.1874
342.226	0.188
342.564	0.1885
342.902	0.1896
343.24	0.1889
343.578	0.19
343.916	0.1896
344.254	0.1905
344.592	0.1908
344.93	0.191
345.268	0.1906
345.605	0.1903
345.943	0.1913
346.28	0.1914
346.618	0.1912
346.955	0.1914
347.292	0.192
347.629	0.1921
347.966	0.1914
348.303	0.1916
348.64	0.192
348.977	0.1923
349.314	0.1922
349.65	0.1918
349.987	0.1923
350.324	0.1912
350.66	0.1924
350.996	0.1909
351.333	0.1907
351.669	0.1901
352.005	0.1905
352.341	0.1894
352.677	0.1885
353.013	0.1883
353.349	0.187
353.685	0.1867
354.02	0.1862
354.356	0.1853
354.691	0.1837
355.027	0.184
355.362	0.1822
355.697	0.1822
356.033	0.1818
356.368	0.1804
356.703	0.1792
357.038	0.1794
357.373	0.1784
357.707	0.1778
358.042	0.177
358.377	0.1762
358.711	0.1764
359.046	0.1743
359.38	0.1741
359.715	0.1737
360.049	0.1725
360.383	0.1705
360.717	0.1707
361.051	0.1695
361.385	0.168
361.719	0.167
362.053	0.1666
362.387	0.164
362.72	0.1633
363.054	0.1624
363.387	0.1603
363.721	0.1596
364.054	0.1582
364.387	0.1562
364.721	0.1549
365.054	0.1542
365.387	0.1532
365.72	0.1518
366.053	0.1503
366.385	0.1486
366.718	0.1483
367.051	0.1468
367.383	0.1457
367.716	0.145
368.048	0.1439
368.381	0.1435
368.713	0.1413
369.045	0.1411
369.377	0.1396
369.709	0.1392
370.041	0.1376
370.373	0.1369
370.705	0.1353
371.037	0.1339
371.368	0.1326
371.7	0.132
372.031	0.1305
372.363	0.1295
372.694	0.128
373.025	0.1259
373.356	0.1254
373.688	0.1233
374.019	0.1226
374.35	0.1208
374.68	0.1187
375.011	0.1171
375.342	0.1165
375.673	0.115
376.003	0.1125
376.334	0.1121
376.664	0.1103
376.995	0.1095
377.325	0.1078
377.655	0.1063
377.985	0.1053
378.315	0.1043
378.645	0.1036
378.975	0.1024
379.305	0.1011
379.635	0.1006
379.964	0.0992
380.294	0.099
380.623	0.0978
380.953	0.0963
381.282	0.0957
381.611	0.0957
381.941	0.0945
382.27	0.0929
382.599	0.092
382.928	0.0898
383.257	0.0894
383.585	0.0886
383.914	0.0865
384.243	0.086
384.571	0.0846
384.9	0.0841
385.228	0.0818
385.557	0.0813
385.885	0.0794
386.213	0.0788
386.541	0.0772
386.869	0.0762
387.197	0.0747
387.525	0.0738
387.853	0.072
388.181	0.0713
388.508	0.0707
388.836	0.0695
389.164	0.0686
389.491	0.0671
389.818	0.0656
390.146	0.0657
390.473	0.0646
390.8	0.0645
391.127	0.0625
391.454	0.0621
391.781	0.0619
392.108	0.0607
392.435	0.0597
392.761	0.0595
393.088	0.0584
393.415	0.0575
393.741	0.0584
394.067	0.0575
394.394	0.0562
394.72	0.0554
395.046	0.0543
395.372	0.0537
395.698	0.0531
396.024	0.0521
396.35	0.0516
396.676	0.0511
397.001	0.0505
397.327	0.0497
397.653	0.0489
397.978	0.0484
398.303	0.0471
398.629	0.0473
398.954	0.0463
399.279	0.0461
399.604	0.0451
399.929	0.045
400.254	0.0449
400.579	0.0435
400.904	0.0428
401.229	0.0427
401.553	0.0424
401.878	0.0419
402.202	0.0415
402.527	0.0412
402.851	0.0412
403.175	0.0397
403.5	0.0396
403.824	0.0389
404.148	0.0395
404.472	0.0389
404.796	0.0384
405.119	0.0384
405.443	0.0386
405.767	0.0378
406.09	0.0384
406.414	0.0377
406.737	0.0377
407.061	0.0372
407.384	0.0372
407.707	0.0367
408.03	0.0365
408.353	0.0366
408.676	0.0359
408.999	0.0362
409.322	0.0359
409.645	0.0352
409.968	0.0362
410.29	0.0356
410.613	0.0361
410.935	0.0345
411.258	0.0356
411.58	0.0346
411.902	0.0344
412.224	0.035
412.546	0.0354
412.868	0.0357
413.19	0.0348
413.512	0.0347
413.834	0.035
414.156	0.0354
414.477	0.0345
414.799	0.0344
415.121	0.0343
415.442	0.0343
415.763	0.034
416.085	0.035
416.406	0.0342
416.727	0.0352
417.048	0.0348
417.369	0.0346
417.69	0.0343
418.011	0.0346
418.331	0.0339
418.652	0.0343
418.973	0.0338
419.293	0.0342
419.614	0.0337
419.934	0.0348
420.254	0.0345
420.574	0.0327
420.895	0.0342
421.215	0.0334
421.535	0.0335
421.855	0.0336
422.174	0.0331
422.494	0.0335
422.814	0.0334
423.134	0.0338
423.453	0.0339
423.773	0.0345
424.092	0.0342
424.411	0.0338
424.731	0.0338
425.05	0.0346
425.369	0.0337
425.688	0.0338
426.007	0.0339
426.326	0.0336
426.644	0.0339
426.963	0.0336
427.282	0.0335
427.6	0.0338
427.919	0.0342
428.237	0.0346
428.556	0.0348
428.874	0.034
429.192	0.0338
429.51	0.0339
429.828	0.034
430.146	0.0341
430.464	0.034
430.782	0.034
431.1	0.0333
431.418	0.0341
431.735	0.0333
432.053	0.0335
432.37	0.0336
432.688	0.0333
433.005	0.0336
433.322	0.0349
433.639	0.0339
433.957	0.034
434.274	0.034
434.591	0.0343
434.907	0.0333
435.224	0.034
435.541	0.0342
435.858	0.0348
436.174	0.0345
436.491	0.0339
436.807	0.0337
437.124	0.0337
437.44	0.0335
437.756	0.0335
438.072	0.0333
438.388	0.0333
438.704	0.0334
439.02	0.0328
439.336	0.0329
439.652	0.0333
439.968	0.033
440.283	0.0327
440.599	0.0336
440.914	0.033
441.23	0.0334
441.545	0.033
441.86	0.0333
442.175	0.0334
442.491	0.0335
442.806	0.033
443.121	0.0325
443.435	0.0328
443.75	0.0324
444.065	0.0323
444.38	0.0327
444.694	0.0324
445.009	0.0318
445.323	0.0331
445.638	0.0322
445.952	0.032
446.266	0.0322
446.58	0.0314
446.894	0.0318
447.208	0.0314
447.522	0.0313
447.836	0.0316
448.15	0.0314
448.464	0.0307
448.777	0.0318
449.091	0.0314
449.404	0.031
449.718	0.0304
450.031	0.0306
450.345	0.0306
450.658	0.0303
450.971	0.031
451.284	0.0305
451.597	0.0306
451.91	0.0306
452.223	0.0307
452.535	0.0301
452.848	0.03
453.161	0.0297
453.473	0.0301
453.786	0.0296
454.098	0.0293
454.411	0.0296
454.723	0.0297
455.035	0.0288
455.347	0.0284
455.659	0.0294
455.971	0.0295
456.283	0.0297
456.595	0.0296
456.907	0.0293
457.218	0.0292
457.53	0.0278
457.841	0.0282
458.153	0.0285
458.464	0.0278
458.776	0.0284
459.087	0.0285
459.398	0.0284
459.709	0.0276
460.02	0.0288
460.331	0.0279
460.642	0.0274
460.953	0.0273
461.263	0.0268
461.574	0.0265
461.885	0.0271
462.195	0.0264
462.506	0.0272
462.816	0.0277
463.126	0.0268
463.437	0.0265
463.747	0.0256
464.057	0.0253
464.367	0.0248
464.677	0.0251
464.987	0.025
465.296	0.0252
465.606	0.0247
465.916	0.0247
466.225	0.0251
466.535	0.0244
466.844	0.0247
467.154	0.0251
467.463	0.0249
467.772	0.0242
468.081	0.0244
468.39	0.0242
468.699	0.0243
469.008	0.0241
469.317	0.0238
469.626	0.024
469.935	0.0236
470.243	0.0237
470.552	0.0228
470.86	0.0234
471.169	0.023
471.477	0.0223
471.785	0.0214
472.093	0.0216
472.402	0.0222
472.71	0.0217
473.018	0.0209
473.326	0.0221
473.633	0.0215
473.941	0.0209
474.249	0.021
474.556	0.0204
474.864	0.0212
475.171	0.0211
475.479	0.0199
475.786	0.0207
476.094	0.0197
476.401	0.0197
476.708	0.0202
477.015	0.0193
477.322	0.0177
477.629	0.0188
477.936	0.0195
478.242	0.0187
478.549	0.019
478.856	0.0191
479.162	0.0188
479.469	0.0189
479.775	0.0184
480.081	0.0176
480.388	0.0172
480.694	0.0173
481	0.0176
481.306	0.0177
481.612	0.0174
481.918	0.0181
482.224	0.0171
482.53	0.0172
482.835	0.0169
483.141	0.0171
483.446	0.0169
483.752	0.0169
484.057	0.0156
484.363	0.0158
484.668	0.0161
484.973	0.0156
485.278	0.0152
485.583	0.0145
485.888	0.0149
486.193	0.0142
486.498	0.0145
486.803	0.0145
487.107	0.0139
487.412	0.0136
487.717	0.014
488.021	0.0144
488.325	0.0137
488.63	0.0136
488.934	0.014
489.238	0.0134
489.542	0.0137
489.846	0.0139
490.15	0.0136
490.454	0.014
490.758	0.0128
491.062	0.013
491.366	0.0126
491.669	0.0123
491.973	0.0128
492.276	0.0122
492.58	0.0122
492.883	0.0125
493.186	0.0113
493.489	0.0129
493.792	0.0109
494.096	0.0109
494.399	0.0113
494.701	0.0111
495.004	0.01
495.307	0.0115
495.61	0.0111
495.912	0.0108
496.215	0.011
496.517	0.0113
496.82	0.0104
497.122	0.0103
497.424	0.0102
497.727	0.0101
498.029	0.0099
498.331	0.0097
498.633	0.0101
498.935	0.0094
499.237	0.0104
499.538	0.0095
499.84	0.0101
500.142	0.0088
500.443	0.0089
500.745	0.0089
501.046	0.009
501.348	0.0083
501.649	0.0085
501.95	0.008
502.251	0.0088
502.552	0.0072
502.853	0.008
503.154	0.0086
503.455	0.0078
503.756	0.0088
504.057	0.0081
504.357	0.0076
504.658	0.0082
504.958	0.007
505.259	0.0071
505.559	0.007
505.859	0.0062
506.16	0.0063
506.46	0.0072
506.76	0.0074
507.06	0.0062
507.36	0.0065
507.66	0.0066
507.96	0.0081
508.259	0.0063
508.559	0.006
508.859	0.0069
509.158	0.0064
509.457	0.0047
509.757	0.0059
510.056	0.0061
510.355	0.0056
510.655	0.0051
510.954	0.0051
511.253	0.0057
511.552	0.0053
511.851	0.0055
512.149	0.0051
512.448	0.0045
512.747	0.0044
513.045	0.0045
513.344	0.0052
513.642	0.0054
513.941	0.005
514.239	0.0044
514.537	0.0053
514.836	0.0046
515.134	0.0041
515.432	0.0039
515.73	0.0041
516.028	0.0041
516.326	0.0039
516.623	0.0039
516.921	0.0036
517.219	0.0043
517.516	0.0038
517.814	0.0045
518.111	0.004
518.409	0.0047
518.706	0.0042
519.003	0.0034
519.3	0.0033
519.597	0.0037
519.894	0.003
520.191	0.0046
520.488	0.005
520.785	0.0033
521.082	0.0048
521.378	0.0046
521.675	0.0037
521.971	0.0029
522.268	0.0037
522.564	0.004
522.861	0.0048
523.157	0.0038
523.453	0.0034
523.749	0.0034
524.045	0.0029
524.341	0.0032
524.637	0.0028
524.933	0.0047
525.229	0.0042
525.524	0.0024
525.82	0.0037
526.115	0.0034
526.411	0.0037
526.706	0.0035
527.002	0.0031
527.297	0.0018
527.592	0.0037
527.887	0.0024
528.182	0.0022
528.477	0.0038
528.772	0.0026
529.067	0.0024
529.362	0.0033
529.657	0.0032
529.951	0.0024
530.246	0.0019
530.54	0.0026
530.835	0.0021
531.129	0.0024
531.423	0.0022
531.718	0.0022
532.012	0.0019
532.306	0.0028
532.6	0.0012
532.894	0.0028
533.188	0.0012
533.482	0.0021
533.775	0.0019
534.069	0.0034
534.363	0.0015
534.656	0.0022
534.95	0.0024
535.243	0.0018
535.536	0.0012
535.83	0.0009
536.123	0.0015
536.416	0.0022
536.709	0.0017
537.002	0.003
537.295	0.0029
537.588	0.003
537.881	0.0018
538.173	0.0021
538.466	0.003
538.759	0.002
539.051	0.0023
539.344	0.0035
539.636	0.0019
539.928	0.0037
540.22	0.0021
540.513	0.0024
540.805	0.0031
541.097	0.0029
541.389	0.0024
541.681	0.0023
541.972	0.0015
542.264	0.0035
542.556	0.0038
542.847	0.003
543.139	0.0029
543.431	0.0023
543.722	0.0021
544.013	0.0022
544.305	0.0023
544.596	0.003
544.887	0.0027
545.178	0.0043
545.469	0.0033
545.76	0.0038
546.051	0.0035
546.342	0.0031
546.632	0.003
546.923	0.0026
547.214	0.0025
547.504	0.0029
547.795	0.0019
548.085	0.0029
548.375	0.0031
548.666	0.0023
548.956	0.0031
549.246	0.0033
549.536	0.0032
549.826	0.0046
550.116	0.0033
550.406	0.0034
550.695	0.0025
550.985	0.0026
551.275	0.0038
551.564	0.0042
551.854	0.0038
552.143	0.0034
552.433	0.004
552.722	0.0032
553.011	0.0035
553.3	0.0024
553.589	0.0042
553.879	0.003
554.167	0.0026
554.456	0.0022
554.745	0.0034
555.034	0.0039
555.323	0.004
555.611	0.0033
555.9	0.0032
556.188	0.0027
556.477	0.0025
556.765	0.0026
557.053	0.0024
557.342	0.0018
557.63	0.0033
557.918	0.0031
558.206	0.0039
558.494	0.0036
558.782	0.0027
559.069	0.0044
559.357	0.0033
559.645	0.0029
559.932	0.0031
560.22	0.0033
560.507	0.0017
560.795	0.0019
561.082	0.0012
561.37	0.003
561.657	0.0028
561.944	0.0023
562.231	0.0026
562.518	0.0028
562.805	0.0036
563.092	0.0018
563.379	0.003
563.665	0.003
563.952	0.0034
564.239	0.0038
564.525	0.0033
564.811	0.0033
565.098	0.0022
565.384	0.0033
565.67	0.0027
565.957	0.0032
566.243	0.0032
566.529	0.0032
566.815	0.0024
567.101	0.0031
567.387	0.0021
567.672	0.0024
567.958	0.0024
568.244	0.0015
568.529	0.0023
568.815	0.0021
569.1	0.0021
569.386	0.0032
569.671	0.0028
569.956	0.002
570.242	0.0018
570.527	0.0018
570.812	0.0021
571.097	0.0018
571.382	0.0018
571.666	0.0015
571.951	0.0027
572.236	0.0018
572.521	0.0024
572.805	0.0028
573.09	0.0031
573.374	0.0022
573.659	0.0017
573.943	0.0017
574.227	0.0025
574.511	0.0025
574.795	0.0023
575.079	0.0031
575.363	0.0022
575.647	0.0016
575.931	0.0021
576.215	0.0026
576.499	0.0019
576.782	0.0019
577.066	0.0017
577.349	0.0022
577.633	0.0031
577.916	0.0027
578.2	0.0022
578.483	0.0026
578.766	0.0032
579.049	0.0019
579.332	0.0026
579.615	0.0028
579.898	0.0018
580.181	0.0019
580.464	0.0025
580.746	0.0021
581.029	0.0031
581.312	0.0019
581.594	0.0018
581.877	0.0017
582.159	0.0023
582.441	0.0015
582.724	0.0019
583.006	0.0026
583.288	0.0031
583.57	0.0028
583.852	0.0028
584.134	0.003
584.416	0.0026
584.697	0.0028
584.979	0.0018
585.261	0.0021
585.542	0.0022
585.824	0.0029
586.105	0.0022
586.387	0.0027
586.668	0.0029
586.949	0.0032
587.231	0.0022
587.512	0.0028
587.793	0.0019
588.074	0.0018
588.355	0.0026
588.636	0.0018
588.916	0.0021
589.197	0.0014
589.478	0.0025
589.758	0.0026
590.039	0.0012
590.319	0.0014
590.6	0.0016
590.88	0.0019
591.16	0.0014
591.441	0.0034
591.721	0.0019
592.001	0.0023
592.281	0.0017
592.561	0.0029
592.841	0.0025
593.12	0.0024
593.4	0.0019
593.68	0.0019
593.959	0.0015
594.239	0.0026
594.518	0.0032
594.798	0.0027
595.077	0.0026
595.356	0.0018
595.636	0.0015
595.915	0.0014
596.194	0.0021
596.473	0.0025
596.752	0.0021
597.031	0.0025
597.31	0.0008
597.588	0.0014
597.867	0.0017
598.146	0.0007
598.424	0.0009
598.703	0.0021
598.981	0.0016
599.259	0.0008
599.538	0.0024
599.816	0.003
600.094	0.0027
600.372	0.0017
600.65	0.0025
600.928	0.0027
601.206	0.0021
601.484	0.0023
601.762	0.0031
602.04	0.0041
602.317	0.0024
602.595	0.0032
602.872	0.0024
603.15	0.0033
603.427	0.0016
603.704	0.0012
603.982	0.0016
604.259	0.0011
604.536	0.0022
604.813	0.0017
605.09	0.002
605.367	0.0016
605.644	0.0008
605.921	0.0012
606.197	0.001
606.474	0.0018
606.751	0.002
607.027	0.0016
607.304	0.002
607.58	0.002
607.856	0.0023
608.133	0.0033
608.409	0.0038
608.685	0.0037
608.961	0.0024
609.237	0.0025
609.513	0.0035
609.789	0.0018
610.065	0.0024
610.341	0.0015
610.616	0.0012
610.892	0.0025
611.167	0.0029
611.443	0.0034
611.718	0.0034
611.994	0.0031
612.269	0.0022
612.544	0.0018
612.819	0.0028
613.095	0.0016
613.37	0.0013
613.645	0.0011
613.919	0.0014
614.194	0.0014
614.469	0.0017
614.744	0.0011
615.019	0.001
615.293	0.0012
615.568	0.0012
615.842	0.0001
616.116	0.0002
616.391	0.0003
616.665	0.0003
616.939	0
617.213	0.0012
617.488	0.001
617.762	0.001
618.035	0.0024
618.309	0.0015
618.583	0.0019
618.857	0.0028
619.131	0.002
619.404	0.0023
619.678	0.002
619.951	0.0022
620.225	0.0006
620.498	0.0006
620.771	0.0013
621.045	0.0009
621.318	0.0026
621.591	0.002
621.864	0.001
622.137	0.0006
622.41	0.0013
622.683	-0
622.956	-0.0001
623.228	0.0008
623.501	0.0018
623.774	0.0015
624.046	0.0012
624.319	0.0014
624.591	0.001
624.863	0.0011
625.136	0.0024
625.408	0.0035
625.68	0.0018
625.952	0.0019
626.224	0.0019
626.496	0.0019
626.768	0.002
627.04	0.0023
627.311	0.0024
627.583	0.0021
627.855	0.0022
628.126	0.0011
628.398	0.001
628.669	0.0013
628.941	0.0002
629.212	0.0001
629.483	0.0013
629.755	0.0002
630.026	0.0012
630.297	0.001
630.568	0.002
630.839	0.0008
631.11	0.0013
631.38	0.0011
631.651	0.0011
631.922	0.0024
632.192	0.0007
632.463	0.0024
632.733	0.0008
633.004	0.0016
633.274	0.0004
633.545	0.001
633.815	0.002
634.085	0.0013
634.355	0.0011
634.625	0.0015
634.895	0.0006
635.165	0.0014
635.435	0.0025
635.705	0.0021
635.974	0.0009
636.244	0.0011
636.514	0.0001
636.783	0.0006
637.053	0.0009
637.322	0.0004
637.591	0.0003
637.861	-0.0009
638.13	0.0007
638.399	0.0004
638.668	0.0017
638.937	0.0024
639.206	0.0017
639.475	0.002
639.744	0.0009
640.013	0.0017
640.281	0.0014
640.55	0.0008
640.819	0.0013
641.087	0.0004
641.356	0.001
641.624	0.001
641.892	0.0011
642.161	0.0009
642.429	0.0013
642.697	0.0014
642.965	0.0006
643.233	-0.002
643.501	-0.0004
643.769	-0.001
644.037	-0.0006
644.305	-0.0008
644.572	-0.0002
644.84	-0.0009
645.108	0.0006
645.375	-0.0003
645.643	0.0004
645.91	0.0004
646.177	0.0011
646.445	0.0003
646.712	0.0014
646.979	0.0008
647.246	0.0014
647.513	0.0015
647.78	0.0013
648.047	-0.0008
648.314	-0.0008
648.58	-0.0024
648.847	-0.0027
649.114	-0.0027
649.38	-0.0021
649.647	-0.0016
649.913	-0.0011
650.18	-0.0007
650.446	0.0006
650.712	0.0012
650.978	0.0012
651.245	0.0012
651.511	0.0017
651.777	0.0019
652.043	0.0007
652.309	0.0007
652.574	0.0008
652.84	0.0014
653.106	0.002
653.371	0.0028
653.637	0.0018
653.903	0.0012
654.168	0.0007
654.433	0.0003
654.699	0.0003
654.964	-0.0009
655.229	-0.0008
655.494	0.0009
655.759	0.0013
656.024	0.0001
656.289	-0
656.554	-0.0013
656.819	0.0002
657.084	0.0015
657.349	0.0016
657.613	0.0014
657.878	0
658.142	0.0002
658.407	-0.0002
658.671	0.0002
658.936	0.0007
659.2	0.0017
659.464	0.0011
659.728	0.0009
659.992	-0.0003
660.256	-0.0014
660.52	-0.0014
660.784	-0.0004
661.048	-0.0004
661.312	-0.0015
661.575	0.0002
661.839	0.0007
662.103	0.0002
662.366	-0.0002
662.63	0.0004
662.893	0.0012
663.156	0.0012
663.42	0.0018
663.683	0.0002
663.946	0.002
664.209	0.0025
664.472	0.0016
664.735	0.002
664.998	0.0015
665.261	0.0026
665.524	0.002
665.786	0.0016
666.049	0.0014
666.312	0.0017
666.574	0.001
666.837	0.0024
667.099	0.0024
667.361	0.0023
667.624	0.0024
667.886	0.0018
668.148	0.0027
668.41	0.0021
668.672	0.0025
668.934	0.0019
669.196	0.0015
669.458	0.0005
669.72	0.0002
669.982	0.0006
670.243	-0
670.505	0.0008
670.766	0.0009
671.028	0.0009
671.289	0.0016
671.551	0.0013
671.812	0.0004
672.073	0.0009
672.334	0.0011
672.596	0.0002
672.857	0.0005
673.118	0.0012
673.379	0.0021
673.639	0.0018
673.9	0.0017
674.161	0.001
674.422	0.0007
674.682	-0.0002
674.943	-0.0005
675.203	0.0001
675.464	0.0001
675.724	0.0001
675.985	0.0002
676.245	-0.0002
676.505	-0.0003
676.765	-0.0005
677.025	0.0007
677.285	0
677.545	-0.0007
677.805	-0.0002
678.065	0.0006
678.325	0.0013
678.585	0.0018
678.844	0.0026
679.104	0.0029
679.363	0.004
679.623	0.0027
679.882	0.002
680.142	0.0035
680.401	0.0029
680.66	0.0036
680.919	0.0019
681.178	0.0028
681.437	0.003
681.696	0.0017
681.955	0.0037
682.214	0.0034
682.473	0.0038
682.732	0.0009
682.99	0.0033
683.249	0.0033
683.508	0.0032
683.766	0.0033
684.024	0.0018
684.283	0.0008
684.541	0
684.799	0.0001
685.058	-0.0014
685.316	-0.0011
685.574	-0.0014
685.832	-0.0016
686.09	-0.0015
686.348	-0.0024
686.606	-0.0011
686.863	-0.0022
687.121	-0.0018
687.379	-0.0017
687.636	-0.0027
687.894	-0.0023
688.151	-0.0028
688.409	-0.0022
688.666	-0.0015
688.923	-0.001
689.181	-0.0002
689.438	-0.0019
689.695	-0.001
689.952	-0.0011
690.209	-0.0014
690.466	-0.0017
690.723	-0.0006
690.979	-0.0015
691.236	-0.0021
691.493	-0.0024
691.75	-0.0017
692.006	-0.0016
692.263	-0.0015
692.519	-0.0018
692.775	-0.0025
693.032	-0.0027
693.288	-0.0032
693.544	-0.0022
693.8	-0.0015
694.056	-0.0019
694.313	-0.0016
694.568	-0.0013
694.824	-0.0009
695.08	-0.0008
695.336	-0.0005
695.592	-0.001
695.847	0.0002
696.103	0.0009
696.359	0.0014
696.614	0.0007
696.869	-0.0002
697.125	-0.0018
697.38	-0.0013
697.635	-0.0016
697.891	0.0009
698.146	0
698.401	0.0004
698.656	0.0003
698.911	0.0011
699.166	0.0002
699.42	0.0019
699.675	0.0018
699.93	0.0017
700.185	0.0022
700.439	0.0008
700.694	0.0015
700.948	0.001
701.203	0.0007
701.457	0.0009
701.711	-0.0005
701.965	-0.0007
702.22	-0.0001
702.474	-0.0011
702.728	-0.0004
702.982	-0.0005
703.236	-0.0002
703.49	0.0005
703.743	-0.001
703.997	-0.001
704.251	-0.0011
704.504	0.0006
704.758	-0.0003
705.012	0.0004
705.265	0.0018
705.518	0.0011
705.772	0.0015
706.025	0.0018
706.278	0.0004
706.531	0.0001
706.785	-0.0015
707.038	-0.0011
707.291	-0.0016
707.543	-0.0011
707.796	-0.0012
708.049	-0.0006
708.302	-0.0011
708.555	-0.0013
708.807	-0.0003
709.06	-0.0002
709.312	0.0013
709.565	0.0003
709.817	0.0025
710.069	0.0009
710.322	0.0021
710.574	0.0015
710.826	0.0009
711.078	0.0004
711.33	0.0011
711.582	0.0009
711.834	0.0003
712.086	0.0012
712.338	0.0002
712.59	0.0001
712.841	-0.0008
713.093	-0.0011
713.344	-0
713.596	-0.0011
713.847	-0.0022
714.099	-0.002
714.35	-0.0022
714.601	-0.0023
714.853	-0.0027
715.104	-0.0025
715.355	-0.0021
715.606	-0.0007
715.857	-0.0008
716.108	0
716.359	0.0007
716.609	-0.0007
716.86	0.0008
717.111	-0.0003
717.361	-0.0005
717.612	-0.0002
717.863	0
718.113	0.0012
718.363	0.0013
718.614	0.001
718.864	0.0011
719.114	0.0008
719.364	-0.0002
719.614	-0.0008
719.865	-0.0007
720.114	0.0004
720.364	-0.0001
720.614	-0.0013
720.864	-0.0009
721.114	-0.0017
721.364	-0.0022
721.613	-0.0023
721.863	-0.0026
722.112	-0.0021
722.362	-0.0019
722.611	-0.0006
722.86	-0.0002
723.11	0.001
723.359	0.0012
723.608	0.0011
723.857	0.0028
724.106	0.0019
724.355	0.0005
724.604	0.0007
724.853	-0.0006
725.102	-0.001
725.351	-0.0025
725.599	-0.0038
725.848	-0.0023
726.097	-0.0013
726.345	-0.0017
726.594	-0.0014
726.842	-0.0011
727.09	-0.0009
727.339	-0.0011
727.587	-0.0016
727.835	-0.0029
728.083	-0.0034
728.331	-0.0032
728.579	-0.0022
728.827	-0.0027
729.075	-0.004
729.323	-0.003
729.571	-0.0041
729.818	-0.0035
730.066	-0.0036
730.314	-0.0031
730.561	-0.0028
730.809	-0.0042
731.056	-0.0034
731.303	-0.0035
731.551	-0.0028
731.798	-0.0027
732.045	-0.002
732.292	-0.0018
732.539	-0.002
732.786	-0.003
733.033	-0.0035
733.28	-0.0027
733.527	-0.0025
733.774	-0.0028
734.021	-0.0032
734.267	-0.0026
734.514	-0.0025
734.76	-0.0026
735.007	-0.0028
735.253	-0.0007
735.5	0.0006
735.746	0.0021
735.992	0.0014
736.238	0.0008
736.485	0.0005
736.731	0.0008
736.977	0.0005
737.223	-0.0009
737.469	-0.0008
737.715	-0.0007
737.96	0.0002
738.206	-0.0007
738.452	-0.0006
738.697	-0.0009
738.943	-0.0013
739.189	-0.0011
739.434	-0.0011
739.679	-0.0003
739.925	0.0006
740.17	0.0018
740.415	0.001
740.66	0.0015
740.906	0.0012
741.151	0.0013
741.396	-0.0002
741.641	-0.0007
741.886	0.0002
742.13	-0.0001
742.375	0.0009
742.62	-0.001
742.865	-0.0006
743.109	0.0006
743.354	-0.0007
743.598	-0.0006
743.843	-0.0024
744.087	-0.0023
744.331	-0.0021
744.576	-0.0021
744.82	-0.0011
745.064	-0.0008
745.308	-0.0001
745.552	-0.0009
745.796	-0.0017
746.04	-0.0017
746.284	-0.0018
746.528	-0.0007
746.771	-0.0011
747.015	-0.0019
747.259	-0.0022
747.502	-0.0029
747.746	-0.0024
747.989	-0.0013
748.233	-0.0004
748.476	0.0001
748.719	0.0006
748.963	0.0001
749.206	-0.0003
749.449	0.0005
749.692	-0.0005
749.935	-0.0002
750.178	-0.0006
750.421	-0.0013
750.664	-0.0009
750.906	-0.0014
751.149	-0.0017
751.392	-0.0007
751.635	-0.0012
751.877	-0.0007
752.12	-0.0016
752.362	0.0002
752.604	-0
752.847	-0.0004
753.089	-0.0001
753.331	-0.0008
753.573	-0.0005
753.816	-0.0006
754.058	-0
754.3	-0.0003
754.542	0.0014
754.783	0.0006
755.025	0.0013
755.267	0.0004
755.509	0.0011
755.75	0
755.992	0.0007
756.234	0.0004
756.475	0.0008
756.716	0.001
756.958	-0
757.199	0.0003
757.44	0.0008
757.682	0.0001
757.923	0.0009
758.164	0.0013
758.405	0.0009
758.646	-0.0002
758.887	-0.0006
759.128	-0.0001
759.369	-0.0016
759.609	-0.0016
759.85	-0.0009
760.091	-0.0012
760.331	-0.0008
760.572	0.0002
760.812	-0.0011
761.053	-0.0007
761.293	0.0003
761.533	0.0003
761.774	0.0007
762.014	0.0005
762.254	0.0008
762.494	0.0008
762.734	0.0004
762.974	0.0007
763.214	0.0004
763.454	0.0005
763.694	0.0011
763.933	0.0016
764.173	0.0029
764.413	0.0035
764.652	0.0011
764.892	-0.0005
765.131	-0.0007
765.371	-0.0014
765.61	-0.0013
765.849	-0.0021
766.089	-0.0031
766.328	-0.0015
766.567	-0.0032
766.806	-0.0024
767.045	-0.0033
767.284	-0.0023
767.523	-0.0034
767.762	-0.0033
768.001	-0.002
768.239	-0.0026
768.478	-0.0028
768.717	-0.0032
768.955	-0.0028
769.194	-0.003
769.432	-0.002
769.671	-0.0024
769.909	-0.0017
770.148	-0.0022
770.386	-0.0018
770.624	-0.0014
770.862	-0.0018
771.1	-0.002
771.338	-0.0022
771.576	-0.0011
771.814	-0.0008
772.052	-0.0015
772.29	-0.0001
772.528	-0.0004
772.765	-0.0007
773.003	-0.0008
773.24	0.0001
773.478	-0.0001
773.716	0.0006
773.953	0.001
774.19	0.0007
774.428	0.003
774.665	0.0027
774.902	0.0027
775.139	0.0015
775.376	0.0014
775.613	0.0008
775.85	0.0006
776.087	0.0008
776.324	-0.0005
776.561	-0
776.798	-0.0004
777.034	-0.0008
777.271	0.0002
777.508	-0.0005
777.744	0.0006
777.981	0.0006
778.217	-0.0011
778.454	-0.0008
778.69	-0.0013
778.926	-0.0004
779.162	-0.0009
779.399	0.0001
779.635	-0.0002
779.871	-0.0011
780.107	-0.0012
780.343	-0.002
780.579	-0.0009
780.814	-0.0018
781.05	-0.0011
781.286	-0.0019
781.522	-0.0023
781.757	-0.0029
781.993	-0.0017
782.228	-0.0026
782.464	-0.0016
782.699	-0.0008
782.934	-0.0008
783.17	-0.0014
783.405	-0.0002
783.64	-0.0011
783.875	-0.0015
784.11	-0.0022
784.345	-0.0013
784.58	-0.0004
784.815	-0.0016
785.05	-0.0016
785.285	-0.0019
785.52	-0.001
785.754	-0.001
785.989	-0.0006
786.223	0.0014
786.458	0.0017
786.692	0.003
786.927	0.0037
787.161	0.003
787.396	0.0041
787.63	0.0033
787.864	0.0023
788.098	0.0009
788.332	0.0003
788.566	-0.0006
788.8	-0.0002
789.034	-0.0003
789.268	-0.0016
789.502	-0.0013
789.736	-0.0011
789.969	-0.0015
790.203	-0.0006
790.437	0.0005
790.67	-0.0003
790.904	0.0012
791.137	0.0017
791.37	0.0008
791.604	0.0021
791.837	0.0028
792.07	0.0029
792.303	0.0036
792.537	0.0038
792.77	0.0033
793.003	0.003
793.236	0.0021
793.469	0.0018
793.701	0.0012
793.934	0.0011
794.167	0.0002
794.4	0.0001
794.632	-0.0007
794.865	-0.0016
795.097	-0.0017
795.33	-0.0012
795.562	-0.0014
795.795	-0.0012
796.027	-0.0008
796.259	0.0002
796.491	-0.0003
796.724	0.001
796.956	0.0006
797.188	0.0002
797.42	0.0009
797.652	0.0011
797.883	0.001
798.115	0.0018
798.347	0.0012
798.579	0.0008
798.81	0.0013
799.042	0.0017
799.274	0.002
799.505	0.0015
799.737	0.0016
799.968	0.0013
800.199	0.0007
800.431	0.002
800.662	0.001
800.893	0.0013
801.124	0.0011
801.355	0.0011
801.586	0.0025
801.817	0.0042
802.048	0.0025
802.279	0.0028
802.51	0.0031
802.741	0.0041
802.971	0.0041
803.202	0.0022
803.433	0.0023
803.663	0.0022
803.894	0.0022
804.124	0.002
804.354	0.0028
804.585	0.004
804.815	0.0037
805.045	0.0043
805.275	0.0035
805.506	0.0406
805.736	-0.0375
805.966	-0.3317
806.196	-0.1804
