Data from 03 0.4 mM K2Cr2O7 0.25 M BQDS 1 M H2SO4 5 min_Absorbance_0026.txt Node
Date: Tue Dec 14 19:40:12 EST 2021
User: kwabilab-user
Spectrometer: HDX00518
Trigger mode: 0
Integration Time (sec): 5.000000E-2
Scans to average: 50
Nonlinearity correction enabled: false
Boxcar width: 0
Storing dark spectrum: false
XAxis mode: Wavelengths
Number of Pixels in Spectrum: 2068
>>>>>Begin Spectral Data<<<<<
195.27	-0.1993
195.642	-0.0028
196.014	-0.2512
196.386	-0.2106
196.758	-0.1617
197.129	-0.0629
197.501	-0.0638
197.872	-0.0219
198.244	-0.0127
198.615	-0.0001
198.986	0.0035
199.357	-0.0059
199.728	0.0051
200.099	0.005
200.47	-0.0085
200.841	-0.0135
201.212	-0.0052
201.582	-0.0006
201.953	0.0077
202.323	-0.0063
202.694	-0.0072
203.064	-0.0199
203.434	-0.0167
203.804	-0.0225
204.174	0.0034
204.544	0.0077
204.914	-0.0265
205.284	-0.0155
205.653	-0.0275
206.023	-0.005
206.393	-0.0011
206.762	-0.0062
207.131	-0.0079
207.501	-0.016
207.87	-0.0109
208.239	-0.0124
208.608	-0.003
208.977	-0.0159
209.346	-0.018
209.715	-0.0017
210.083	0.0067
210.452	-0.0081
210.82	-0.0167
211.189	-0.0361
211.557	0.0009
211.925	-0.0299
212.294	-0.0101
212.662	0.0002
213.03	-0.0169
213.398	-0.0376
213.766	-0.0148
214.133	0.0017
214.501	-0.0226
214.869	-0.0183
215.236	-0.0137
215.604	0.01
215.971	0.0225
216.338	-0.0082
216.705	0.0056
217.072	-0.0006
217.439	0.0079
217.806	-0.0006
218.173	0.0227
218.54	0.0072
218.907	0.0266
219.273	0.0324
219.64	0.0425
220.006	0.0486
220.373	0.0593
220.739	0.0728
221.105	0.0874
221.471	0.1097
221.837	0.1461
222.203	0.1505
222.569	0.1415
222.935	0.1665
223.3	0.1881
223.666	0.2192
224.031	0.2389
224.397	0.2475
224.762	0.2919
225.127	0.3132
225.493	0.3469
225.858	0.3732
226.223	0.3736
226.588	0.4055
226.952	0.415
227.317	0.4569
227.682	0.4756
228.046	0.472
228.411	0.4902
228.775	0.5069
229.14	0.5204
229.504	0.5404
229.868	0.5495
230.232	0.5719
230.596	0.5855
230.96	0.6093
231.324	0.5856
231.688	0.6031
232.052	0.6132
232.415	0.6127
232.779	0.6225
233.142	0.6403
233.505	0.6464
233.869	0.6375
234.232	0.6378
234.595	0.6422
234.958	0.6451
235.321	0.6373
235.684	0.6461
236.047	0.6498
236.409	0.6517
236.772	0.6419
237.134	0.6482
237.497	0.6355
237.859	0.6544
238.222	0.6508
238.584	0.6479
238.946	0.6372
239.308	0.6387
239.67	0.6431
240.032	0.6383
240.393	0.6316
240.755	0.6328
241.117	0.6369
241.478	0.6352
241.84	0.6261
242.201	0.6242
242.562	0.6151
242.924	0.6227
243.285	0.6152
243.646	0.6149
244.007	0.6148
244.368	0.621
244.728	0.6084
245.089	0.6099
245.45	0.6048
245.81	0.6083
246.171	0.604
246.531	0.6084
246.891	0.6088
247.252	0.5975
247.612	0.6042
247.972	0.601
248.332	0.604
248.692	0.6012
249.051	0.6037
249.411	0.6007
249.771	0.6027
250.13	0.596
250.49	0.5998
250.849	0.5981
251.208	0.6057
251.568	0.5966
251.927	0.5957
252.286	0.5972
252.645	0.5936
253.004	0.5976
253.363	0.5984
253.721	0.5978
254.08	0.6056
254.439	0.5949
254.797	0.5946
255.155	0.5954
255.514	0.5982
255.872	0.5934
256.23	0.5916
256.588	0.5992
256.946	0.6007
257.304	0.5947
257.662	0.5994
258.02	0.5974
258.377	0.5945
258.735	0.5927
259.093	0.5933
259.45	0.5958
259.807	0.596
260.165	0.5973
260.522	0.593
260.879	0.5881
261.236	0.5942
261.593	0.5917
261.95	0.5898
262.306	0.5885
262.663	0.5859
263.02	0.5864
263.376	0.5822
263.733	0.5844
264.089	0.5842
264.445	0.5769
264.802	0.5814
265.158	0.5737
265.514	0.5751
265.87	0.5733
266.226	0.5698
266.581	0.573
266.937	0.5709
267.293	0.5681
267.648	0.567
268.004	0.5592
268.359	0.5574
268.714	0.55
269.07	0.5559
269.425	0.5538
269.78	0.5513
270.135	0.5466
270.49	0.5441
270.844	0.5489
271.199	0.5439
271.554	0.5392
271.908	0.5323
272.263	0.5329
272.617	0.5329
272.972	0.5269
273.326	0.5175
273.68	0.5168
274.034	0.5173
274.388	0.5127
274.742	0.5113
275.096	0.5099
275.45	0.5026
275.803	0.5018
276.157	0.494
276.51	0.4889
276.864	0.4937
277.217	0.4883
277.571	0.4829
277.924	0.4753
278.277	0.474
278.63	0.4711
278.983	0.4665
279.336	0.4655
279.688	0.4587
280.041	0.4534
280.394	0.4468
280.746	0.4453
281.099	0.4413
281.451	0.4385
281.803	0.4333
282.156	0.4294
282.508	0.4246
282.86	0.4195
283.212	0.4191
283.564	0.4122
283.916	0.4055
284.267	0.403
284.619	0.3999
284.971	0.3947
285.322	0.3939
285.673	0.3872
286.025	0.3828
286.376	0.3802
286.727	0.3727
287.078	0.37
287.429	0.3685
287.78	0.3631
288.131	0.3605
288.482	0.3543
288.833	0.3522
289.183	0.3487
289.534	0.3427
289.884	0.3403
290.235	0.3362
290.585	0.332
290.935	0.3272
291.285	0.3259
291.635	0.3207
291.985	0.3185
292.335	0.3134
292.685	0.3098
293.035	0.3048
293.384	0.3014
293.734	0.2981
294.083	0.2943
294.433	0.2911
294.782	0.2874
295.131	0.2837
295.48	0.2796
295.829	0.2765
296.179	0.2739
296.527	0.2672
296.876	0.2641
297.225	0.2605
297.574	0.2576
297.922	0.2552
298.271	0.2511
298.619	0.2477
298.968	0.245
299.316	0.2426
299.664	0.2404
300.012	0.2345
300.36	0.2313
300.708	0.2294
301.056	0.2266
301.404	0.2237
301.752	0.2207
302.099	0.2189
302.447	0.2145
302.794	0.2133
303.142	0.2109
303.489	0.2081
303.836	0.2056
304.183	0.2032
304.531	0.2018
304.878	0.1996
305.224	0.1966
305.571	0.1943
305.918	0.193
306.265	0.1906
306.611	0.1898
306.958	0.1885
307.304	0.1865
307.651	0.1848
307.997	0.1831
308.343	0.1813
308.689	0.1815
309.035	0.1802
309.381	0.1781
309.727	0.1763
310.073	0.1757
310.419	0.1744
310.764	0.1745
311.11	0.1715
311.455	0.1716
311.801	0.1713
312.146	0.1699
312.491	0.1702
312.837	0.1689
313.182	0.1679
313.527	0.1682
313.872	0.1671
314.216	0.168
314.561	0.1673
314.906	0.1663
315.251	0.1673
315.595	0.1662
315.94	0.1664
316.284	0.1673
316.628	0.166
316.972	0.1661
317.317	0.1665
317.661	0.1671
318.005	0.1668
318.348	0.1669
318.692	0.1679
319.036	0.1679
319.38	0.1683
319.723	0.168
320.067	0.1695
320.41	0.1703
320.754	0.1705
321.097	0.1705
321.44	0.171
321.783	0.1716
322.126	0.1732
322.469	0.1732
322.812	0.1744
323.155	0.1754
323.498	0.1762
323.84	0.1762
324.183	0.1766
324.525	0.1788
324.868	0.1803
325.21	0.1807
325.552	0.1811
325.894	0.1826
326.236	0.183
326.578	0.1845
326.92	0.1864
327.262	0.1865
327.604	0.1877
327.946	0.1891
328.287	0.1896
328.629	0.1911
328.97	0.1924
329.312	0.1929
329.653	0.1947
329.994	0.1958
330.335	0.1976
330.676	0.1981
331.017	0.1993
331.358	0.2007
331.699	0.2027
332.04	0.203
332.38	0.2043
332.721	0.2058
333.061	0.2065
333.402	0.2084
333.742	0.2098
334.083	0.2105
334.423	0.2106
334.763	0.2129
335.103	0.2137
335.443	0.2149
335.783	0.2158
336.123	0.2163
336.462	0.2176
336.802	0.2188
337.141	0.2197
337.481	0.2206
337.82	0.2215
338.16	0.223
338.499	0.2238
338.838	0.2255
339.177	0.2255
339.516	0.2263
339.855	0.2272
340.194	0.2285
340.533	0.2281
340.872	0.2296
341.21	0.2307
341.549	0.2307
341.887	0.2323
342.226	0.2323
342.564	0.2328
342.902	0.2332
343.24	0.2336
343.578	0.2339
343.916	0.234
344.254	0.2346
344.592	0.2352
344.93	0.2348
345.268	0.2345
345.605	0.2357
345.943	0.2354
346.28	0.2358
346.618	0.2349
346.955	0.2355
347.292	0.2355
347.629	0.2356
347.966	0.2354
348.303	0.2353
348.64	0.236
348.977	0.2355
349.314	0.2356
349.65	0.2365
349.987	0.2367
350.324	0.2354
350.66	0.2359
350.996	0.235
351.333	0.2344
351.669	0.2333
352.005	0.2343
352.341	0.2324
352.677	0.2316
353.013	0.2304
353.349	0.2301
353.685	0.2285
354.02	0.2277
354.356	0.2272
354.691	0.2256
355.027	0.2255
355.362	0.2237
355.697	0.2234
356.033	0.2221
356.368	0.2213
356.703	0.2206
357.038	0.2201
357.373	0.218
357.707	0.2183
358.042	0.2169
358.377	0.2159
358.711	0.2153
359.046	0.214
359.38	0.213
359.715	0.2121
360.049	0.2112
360.383	0.2106
360.717	0.2078
361.051	0.2071
361.385	0.2065
361.719	0.204
362.053	0.2037
362.387	0.2008
362.72	0.2006
363.054	0.1981
363.387	0.1964
363.721	0.1957
364.054	0.1935
364.387	0.1915
364.721	0.1897
365.054	0.1894
365.387	0.187
365.72	0.1862
366.053	0.1844
366.385	0.1835
366.718	0.1818
367.051	0.1802
367.383	0.1785
367.716	0.178
368.048	0.1766
368.381	0.1759
368.713	0.1746
369.045	0.1731
369.377	0.1718
369.709	0.1704
370.041	0.1698
370.373	0.1683
370.705	0.1666
371.037	0.1655
371.368	0.1637
371.7	0.1617
372.031	0.1607
372.363	0.159
372.694	0.1577
373.025	0.1556
373.356	0.1545
373.688	0.1526
374.019	0.1501
374.35	0.1485
374.68	0.1465
375.011	0.1445
375.342	0.1437
375.673	0.1416
376.003	0.1393
376.334	0.1389
376.664	0.1369
376.995	0.1355
377.325	0.134
377.655	0.1323
377.985	0.1308
378.315	0.1306
378.645	0.1279
378.975	0.1275
379.305	0.1252
379.635	0.1248
379.964	0.1233
380.294	0.1221
380.623	0.1212
380.953	0.1203
381.282	0.1197
381.611	0.118
381.941	0.1166
382.27	0.1152
382.599	0.1148
382.928	0.1122
383.257	0.111
383.585	0.1106
383.914	0.108
384.243	0.1063
384.571	0.1056
384.9	0.1037
385.228	0.102
385.557	0.1014
385.885	0.0996
386.213	0.0981
386.541	0.0968
386.869	0.0956
387.197	0.094
387.525	0.092
387.853	0.0914
388.181	0.0896
388.508	0.0886
388.836	0.0872
389.164	0.0863
389.491	0.0847
389.818	0.0831
390.146	0.0835
390.473	0.082
390.8	0.0807
391.127	0.0794
391.454	0.0785
391.781	0.0779
392.108	0.0774
392.435	0.0752
392.761	0.0753
393.088	0.0743
393.415	0.0736
393.741	0.0733
394.067	0.0733
394.394	0.0711
394.72	0.0704
395.046	0.0694
395.372	0.0682
395.698	0.0676
396.024	0.0661
396.35	0.0665
396.676	0.065
397.001	0.064
397.327	0.0635
397.653	0.0626
397.978	0.0623
398.303	0.0607
398.629	0.0601
398.954	0.0592
399.279	0.0593
399.604	0.0579
399.929	0.0581
400.254	0.0565
400.579	0.0557
400.904	0.0554
401.229	0.0545
401.553	0.0545
401.878	0.0544
402.202	0.0534
402.527	0.0525
402.851	0.0526
403.175	0.0511
403.5	0.0512
403.824	0.0504
404.148	0.0503
404.472	0.05
404.796	0.05
405.119	0.049
405.443	0.0494
405.767	0.0484
406.09	0.0486
406.414	0.0476
406.737	0.0483
407.061	0.048
407.384	0.0474
407.707	0.0473
408.03	0.0469
408.353	0.0467
408.676	0.0469
408.999	0.046
409.322	0.046
409.645	0.0459
409.968	0.046
410.29	0.0457
410.613	0.0458
410.935	0.0459
411.258	0.0452
411.58	0.0443
411.902	0.0451
412.224	0.0453
412.546	0.0451
412.868	0.0457
413.19	0.0446
413.512	0.0442
413.834	0.0443
414.156	0.0451
414.477	0.0438
414.799	0.0443
415.121	0.0437
415.442	0.0437
415.763	0.0437
416.085	0.0437
416.406	0.0434
416.727	0.0439
417.048	0.0443
417.369	0.044
417.69	0.0433
418.011	0.0437
418.331	0.0435
418.652	0.0437
418.973	0.0434
419.293	0.0438
419.614	0.0425
419.934	0.0436
420.254	0.0434
420.574	0.0421
420.895	0.0431
421.215	0.0431
421.535	0.0433
421.855	0.0428
422.174	0.0422
422.494	0.0421
422.814	0.0422
423.134	0.0427
423.453	0.0433
423.773	0.0435
424.092	0.0435
424.411	0.0435
424.731	0.0429
425.05	0.0435
425.369	0.0431
425.688	0.0434
426.007	0.0432
426.326	0.0433
426.644	0.0433
426.963	0.0431
427.282	0.0431
427.6	0.0428
427.919	0.0429
428.237	0.0434
428.556	0.0439
428.874	0.0423
429.192	0.0426
429.51	0.0426
429.828	0.0432
430.146	0.0429
430.464	0.0426
430.782	0.0433
431.1	0.0421
431.418	0.0426
431.735	0.0419
432.053	0.0426
432.37	0.0427
432.688	0.0422
433.005	0.0413
433.322	0.0433
433.639	0.0432
433.957	0.0423
434.274	0.0427
434.591	0.0424
434.907	0.0421
435.224	0.0419
435.541	0.0431
435.858	0.0434
436.174	0.0429
436.491	0.0427
436.807	0.0425
437.124	0.0417
437.44	0.0423
437.756	0.0422
438.072	0.0415
438.388	0.0418
438.704	0.0423
439.02	0.0417
439.336	0.0417
439.652	0.0422
439.968	0.0413
440.283	0.0419
440.599	0.0417
440.914	0.0421
441.23	0.0415
441.545	0.0422
441.86	0.0418
442.175	0.0422
442.491	0.0412
442.806	0.0412
443.121	0.0413
443.435	0.0406
443.75	0.0408
444.065	0.0409
444.38	0.0411
444.694	0.0407
445.009	0.0404
445.323	0.0411
445.638	0.0404
445.952	0.041
446.266	0.0399
446.58	0.0394
446.894	0.0407
447.208	0.0402
447.522	0.0396
447.836	0.04
448.15	0.0399
448.464	0.0389
448.777	0.0397
449.091	0.0396
449.404	0.0389
449.718	0.0396
450.031	0.0384
450.345	0.0392
450.658	0.0382
450.971	0.0394
451.284	0.0385
451.597	0.0394
451.91	0.038
452.223	0.0386
452.535	0.0387
452.848	0.0384
453.161	0.038
453.473	0.0381
453.786	0.038
454.098	0.0373
454.411	0.0376
454.723	0.0377
455.035	0.0373
455.347	0.0366
455.659	0.0373
455.971	0.0372
456.283	0.0375
456.595	0.0372
456.907	0.0369
457.218	0.0376
457.53	0.0359
457.841	0.036
458.153	0.0367
458.464	0.0357
458.776	0.0357
459.087	0.0354
459.398	0.0359
459.709	0.0348
460.02	0.0357
460.331	0.0357
460.642	0.0354
460.953	0.0349
461.263	0.0351
461.574	0.0341
461.885	0.0348
462.195	0.0335
462.506	0.0343
462.816	0.0349
463.126	0.0331
463.437	0.0338
463.747	0.0334
464.057	0.0321
464.367	0.0323
464.677	0.0323
464.987	0.0321
465.296	0.0325
465.606	0.0321
465.916	0.0315
466.225	0.0324
466.535	0.0319
466.844	0.0321
467.154	0.0323
467.463	0.0306
467.772	0.0309
468.081	0.0308
468.39	0.0315
468.699	0.0308
469.008	0.0308
469.317	0.0302
469.626	0.0303
469.935	0.0293
470.243	0.03
470.552	0.0293
470.86	0.03
471.169	0.0287
471.477	0.0284
471.785	0.0282
472.093	0.0281
472.402	0.0281
472.71	0.0277
473.018	0.0275
473.326	0.0277
473.633	0.0279
473.941	0.0272
474.249	0.0272
474.556	0.027
474.864	0.0275
475.171	0.0267
475.479	0.0266
475.786	0.0271
476.094	0.0262
476.401	0.0259
476.708	0.0256
477.015	0.0258
477.322	0.0241
477.629	0.024
477.936	0.0252
478.242	0.0243
478.549	0.0248
478.856	0.0242
479.162	0.024
479.469	0.0243
479.775	0.0233
480.081	0.0229
480.388	0.0228
480.694	0.0228
481	0.0229
481.306	0.023
481.612	0.0232
481.918	0.0234
482.224	0.0226
482.53	0.0221
482.835	0.0216
483.141	0.0222
483.446	0.0224
483.752	0.0206
484.057	0.0204
484.363	0.0212
484.668	0.022
484.973	0.0205
485.278	0.0196
485.583	0.0199
485.888	0.0202
486.193	0.0197
486.498	0.0194
486.803	0.0197
487.107	0.0187
487.412	0.018
487.717	0.0188
488.021	0.0196
488.325	0.0185
488.63	0.0181
488.934	0.0183
489.238	0.0178
489.542	0.0183
489.846	0.0176
490.15	0.0183
490.454	0.0184
490.758	0.0174
491.062	0.0171
491.366	0.0167
491.669	0.0172
491.973	0.0166
492.276	0.016
492.58	0.0159
492.883	0.0166
493.186	0.0155
493.489	0.0166
493.792	0.0153
494.096	0.0138
494.399	0.0153
494.701	0.0146
495.004	0.014
495.307	0.0151
495.61	0.0153
495.912	0.0156
496.215	0.0153
496.517	0.015
496.82	0.0142
497.122	0.0139
497.424	0.0148
497.727	0.0138
498.029	0.0134
498.331	0.0132
498.633	0.0137
498.935	0.0126
499.237	0.0134
499.538	0.0122
499.84	0.0132
500.142	0.0125
500.443	0.0133
500.745	0.0129
501.046	0.0123
501.348	0.0114
501.649	0.012
501.95	0.0121
502.251	0.0131
502.552	0.0108
502.853	0.0115
503.154	0.012
503.455	0.0115
503.756	0.0123
504.057	0.0107
504.357	0.0114
504.658	0.0104
504.958	0.0106
505.259	0.0109
505.559	0.0101
505.859	0.0093
506.16	0.0099
506.46	0.0101
506.76	0.0091
507.06	0.0091
507.36	0.009
507.66	0.0102
507.96	0.0107
508.259	0.0091
508.559	0.0093
508.859	0.0091
509.158	0.0091
509.457	0.0079
509.757	0.0091
510.056	0.0081
510.355	0.0091
510.655	0.0083
510.954	0.0079
511.253	0.0085
511.552	0.0084
511.851	0.0084
512.149	0.0071
512.448	0.0079
512.747	0.0067
513.045	0.0075
513.344	0.0074
513.642	0.0072
513.941	0.0079
514.239	0.0067
514.537	0.0075
514.836	0.0063
515.134	0.0066
515.432	0.0063
515.73	0.0061
516.028	0.0062
516.326	0.0059
516.623	0.006
516.921	0.0062
517.219	0.0073
517.516	0.0052
517.814	0.0067
518.111	0.0064
518.409	0.0068
518.706	0.006
519.003	0.0055
519.3	0.0055
519.597	0.0063
519.894	0.0047
520.191	0.0069
520.488	0.0065
520.785	0.0058
521.082	0.0069
521.378	0.0067
521.675	0.0051
521.971	0.0054
522.268	0.0054
522.564	0.0053
522.861	0.0073
523.157	0.0053
523.453	0.0064
523.749	0.0043
524.045	0.0048
524.341	0.0057
524.637	0.0037
524.933	0.0058
525.229	0.0048
525.524	0.0041
525.82	0.005
526.115	0.0052
526.411	0.0061
526.706	0.005
527.002	0.0051
527.297	0.0044
527.592	0.005
527.887	0.0037
528.182	0.0037
528.477	0.0057
528.772	0.0038
529.067	0.0045
529.362	0.0055
529.657	0.0037
529.951	0.0041
530.246	0.0031
530.54	0.0036
530.835	0.0033
531.129	0.0045
531.423	0.0038
531.718	0.0037
532.012	0.0041
532.306	0.0039
532.6	0.0031
532.894	0.0036
533.188	0.0032
533.482	0.0032
533.775	0.0035
534.069	0.0035
534.363	0.0032
534.656	0.0038
534.95	0.0034
535.243	0.0031
535.536	0.0039
535.83	0.0028
536.123	0.0023
536.416	0.0033
536.709	0.0033
537.002	0.0035
537.295	0.0044
537.588	0.0037
537.881	0.0026
538.173	0.0036
538.466	0.0046
538.759	0.0041
539.051	0.0038
539.344	0.0042
539.636	0.0028
539.928	0.0045
540.22	0.003
540.513	0.0035
540.805	0.004
541.097	0.0045
541.389	0.0032
541.681	0.0041
541.972	0.003
542.264	0.0044
542.556	0.0053
542.847	0.0031
543.139	0.004
543.431	0.004
543.722	0.0032
544.013	0.0038
544.305	0.004
544.596	0.0035
544.887	0.004
545.178	0.005
545.469	0.0046
545.76	0.0044
546.051	0.0051
546.342	0.0031
546.632	0.0037
546.923	0.0031
547.214	0.0035
547.504	0.0044
547.795	0.0032
548.085	0.0037
548.375	0.0039
548.666	0.0035
548.956	0.0033
549.246	0.0041
549.536	0.0033
549.826	0.0047
550.116	0.0042
550.406	0.0037
550.695	0.0037
550.985	0.0037
551.275	0.0036
551.564	0.0052
551.854	0.0042
552.143	0.0046
552.433	0.0035
552.722	0.0041
553.011	0.0042
553.3	0.003
553.589	0.0053
553.879	0.0035
554.167	0.0031
554.456	0.0039
554.745	0.0041
555.034	0.0052
555.323	0.0043
555.611	0.0045
555.9	0.0042
556.188	0.0036
556.477	0.0024
556.765	0.0041
557.053	0.004
557.342	0.0036
557.63	0.0029
557.918	0.0041
558.206	0.0037
558.494	0.0043
558.782	0.0034
559.069	0.0045
559.357	0.0045
559.645	0.0038
559.932	0.0038
560.22	0.0039
560.507	0.0025
560.795	0.0034
561.082	0.0028
561.37	0.004
561.657	0.0026
561.944	0.0035
562.231	0.0027
562.518	0.0025
562.805	0.0038
563.092	0.0036
563.379	0.0039
563.665	0.0038
563.952	0.0054
564.239	0.0044
564.525	0.0039
564.811	0.0034
565.098	0.0035
565.384	0.0023
565.67	0.0032
565.957	0.0034
566.243	0.0033
566.529	0.0029
566.815	0.0038
567.101	0.0034
567.387	0.0037
567.672	0.0032
567.958	0.0024
568.244	0.0025
568.529	0.0026
568.815	0.0029
569.1	0.0025
569.386	0.0032
569.671	0.0032
569.956	0.0032
570.242	0.0034
570.527	0.0031
570.812	0.0026
571.097	0.0029
571.382	0.0021
571.666	0.0024
571.951	0.0041
572.236	0.0032
572.521	0.0028
572.805	0.0035
573.09	0.004
573.374	0.0032
573.659	0.003
573.943	0.0027
574.227	0.0027
574.511	0.0038
574.795	0.0031
575.079	0.0034
575.363	0.0027
575.647	0.0024
575.931	0.0029
576.215	0.0037
576.499	0.0031
576.782	0.0026
577.066	0.0024
577.349	0.003
577.633	0.004
577.916	0.0036
578.2	0.0034
578.483	0.0032
578.766	0.004
579.049	0.0032
579.332	0.0033
579.615	0.0033
579.898	0.0027
580.181	0.0029
580.464	0.0028
580.746	0.0028
581.029	0.0037
581.312	0.0036
581.594	0.0021
581.877	0.0025
582.159	0.0031
582.441	0.0025
582.724	0.0026
583.006	0.0026
583.288	0.0033
583.57	0.003
583.852	0.0026
584.134	0.0041
584.416	0.0027
584.697	0.0032
584.979	0.0027
585.261	0.003
585.542	0.0031
585.824	0.0041
586.105	0.0035
586.387	0.0039
586.668	0.0033
586.949	0.0032
587.231	0.0041
587.512	0.0031
587.793	0.0024
588.074	0.0032
588.355	0.0032
588.636	0.0029
588.916	0.0034
589.197	0.0016
589.478	0.003
589.758	0.0028
590.039	0.002
590.319	0.0021
590.6	0.0018
590.88	0.0018
591.16	0.0021
591.441	0.0028
591.721	0.0022
592.001	0.0019
592.281	0.0028
592.561	0.0037
592.841	0.0039
593.12	0.0027
593.4	0.003
593.68	0.0019
593.959	0.0022
594.239	0.0026
594.518	0.0039
594.798	0.004
595.077	0.0025
595.356	0.0026
595.636	0.0025
595.915	0.0024
596.194	0.0028
596.473	0.0026
596.752	0.0024
597.031	0.003
597.31	0.0027
597.588	0.0027
597.867	0.0026
598.146	0.002
598.424	0.0016
598.703	0.0028
598.981	0.0021
599.259	0.0018
599.538	0.0033
599.816	0.0033
600.094	0.0038
600.372	0.0032
600.65	0.0035
600.928	0.0033
601.206	0.0033
601.484	0.0024
601.762	0.0031
602.04	0.0033
602.317	0.0026
602.595	0.003
602.872	0.0025
603.15	0.0039
603.427	0.0021
603.704	0.0023
603.982	0.0024
604.259	0.0016
604.536	0.0025
604.813	0.0019
605.09	0.0029
605.367	0.0022
605.644	0.0021
605.921	0.0017
606.197	0.0015
606.474	0.0023
606.751	0.0021
607.027	0.0024
607.304	0.0027
607.58	0.0029
607.856	0.0031
608.133	0.0041
608.409	0.004
608.685	0.0038
608.961	0.0037
609.237	0.0033
609.513	0.0038
609.789	0.0026
610.065	0.0029
610.341	0.0023
610.616	0.002
610.892	0.0026
611.167	0.0038
611.443	0.004
611.718	0.0024
611.994	0.0031
612.269	0.0022
612.544	0.0028
612.819	0.0028
613.095	0.0031
613.37	0.0021
613.645	0.0017
613.919	0.0027
614.194	0.0026
614.469	0.0033
614.744	0.0024
615.019	0.0024
615.293	0.0024
615.568	0.0019
615.842	0.0016
616.116	0.0015
616.391	0.0016
616.665	0.0013
616.939	0.0005
617.213	0.0009
617.488	0.0022
617.762	0.0025
618.035	0.004
618.309	0.0019
618.583	0.0018
618.857	0.0024
619.131	0.0033
619.404	0.0026
619.678	0.0028
619.951	0.0035
620.225	0.0014
620.498	0.0018
620.771	0.0024
621.045	0.0007
621.318	0.0021
621.591	0.003
621.864	0.0017
622.137	0.0017
622.41	0.0011
622.683	0.0006
622.956	0.0004
623.228	0.0019
623.501	0.0017
623.774	0.0026
624.046	0.0025
624.319	0.0019
624.591	0.0016
624.863	0.0014
625.136	0.002
625.408	0.0033
625.68	0.0034
625.952	0.0026
626.224	0.0033
626.496	0.0019
626.768	0.0017
627.04	0.003
627.311	0.002
627.583	0.003
627.855	0.0021
628.126	0.001
628.398	0.0011
628.669	0.0012
628.941	0.0001
629.212	-0.0001
629.483	0.0011
629.755	0.0003
630.026	0.0011
630.297	0.0012
630.568	0.0007
630.839	0.0005
631.11	0
631.38	0.0014
631.651	0.0007
631.922	0.0017
632.192	0.0009
632.463	0.0012
632.733	0.0002
633.004	0.0013
633.274	0.0011
633.545	-0
633.815	0.0016
634.085	0.0014
634.355	0.0001
634.625	0.0015
634.895	0.0013
635.165	0.0009
635.435	0.002
635.705	0.0013
635.974	0.0022
636.244	0.0006
636.514	0.0012
636.783	0.0012
637.053	0.0014
637.322	0.0009
637.591	0.0004
637.861	-0.0001
638.13	-0.0008
638.399	0.0013
638.668	0.0006
638.937	0.0022
639.206	0.001
639.475	0.0026
639.744	0.0012
640.013	0.0009
640.281	0.0013
640.55	0.0019
640.819	0.0018
641.087	0.0011
641.356	0.0018
641.624	0.001
641.892	0.0018
642.161	0.0014
642.429	0.0015
642.697	0.0009
642.965	0.0008
643.233	0.0001
643.501	0.0001
643.769	0.0008
644.037	0.0001
644.305	-0.0003
644.572	-0.0001
644.84	-0.0004
645.108	0.0012
645.375	0.0006
645.643	0.0012
645.91	0.0013
646.177	0.0009
646.445	0.0005
646.712	0.0007
646.979	0.0001
647.246	0.002
647.513	0.0017
647.78	0.0013
648.047	-0.0001
648.314	-0
648.58	-0.0006
648.847	-0.0008
649.114	-0.0021
649.38	-0.0006
649.647	-0.0008
649.913	-0.0008
650.18	0.0005
650.446	0.0011
650.712	0.0018
650.978	0.0026
651.245	0.002
651.511	0.0026
651.777	0.0024
652.043	0.0013
652.309	0.0023
652.574	0.0019
652.84	0.0022
653.106	0.0025
653.371	0.003
653.637	0.0028
653.903	0.0027
654.168	0.0018
654.433	0.0021
654.699	0.0013
654.964	-0.0001
655.229	-0.0005
655.494	0.002
655.759	0.0023
656.024	0.0007
656.289	-0
656.554	0.001
656.819	0.0014
657.084	0.0024
657.349	0.0025
657.613	0.0015
657.878	0.0004
658.142	0
658.407	0.0003
658.671	0.0006
658.936	0.0001
659.2	0.0014
659.464	0.0009
659.728	0.0007
659.992	-0.0006
660.256	-0.0015
660.52	-0.0007
660.784	-0.0004
661.048	-0.0006
661.312	-0.0011
661.575	-0.0008
661.839	0.0003
662.103	0.0005
662.366	-0.0008
662.63	-0.0002
662.893	-0.0002
663.156	0.0006
663.42	0.0021
663.683	0
663.946	0.0015
664.209	0.0019
664.472	0.0017
664.735	0.0014
664.998	0.0019
665.261	0.0022
665.524	0.0019
665.786	0.0022
666.049	0.0018
666.312	0.0018
666.574	0.0011
666.837	0.0021
667.099	0.0021
667.361	0.0028
667.624	0.0026
667.886	0.0026
668.148	0.0022
668.41	0.0019
668.672	0.0013
668.934	0.0014
669.196	0.0005
669.458	-0.0003
669.72	-0.0003
669.982	0.0001
670.243	-0.0001
670.505	0.0006
670.766	0.0005
671.028	0.0011
671.289	0.0013
671.551	0.0023
671.812	0.0011
672.073	0.0012
672.334	0.0006
672.596	0.0006
672.857	0.0012
673.118	0.0013
673.379	0.0026
673.639	0.0024
673.9	0.0023
674.161	0.0016
674.422	0.0007
674.682	0.0004
674.943	-0.0008
675.203	-0.0001
675.464	0.0008
675.724	0.0007
675.985	0.0009
676.245	0.0007
676.505	-0.0004
676.765	-0.0002
677.025	0.0003
677.285	-0.0001
677.545	0.0006
677.805	0.0002
678.065	0.0015
678.325	0.001
678.585	0.0025
678.844	0.0024
679.104	0.0023
679.363	0.004
679.623	0.0028
679.882	0.0031
680.142	0.0037
680.401	0.0037
680.66	0.0042
680.919	0.0017
681.178	0.0025
681.437	0.0028
681.696	0.0023
681.955	0.0036
682.214	0.0039
682.473	0.0037
682.732	0.0016
682.99	0.004
683.249	0.0042
683.508	0.0036
683.766	0.004
684.024	0.0028
684.283	0.001
684.541	0.0015
684.799	0.0004
685.058	-0.0012
685.316	-0.0007
685.574	-0.0008
685.832	-0.0003
686.09	-0.0002
686.348	-0.0012
686.606	-0.001
686.863	-0.0021
687.121	-0.002
687.379	-0.002
687.636	-0.003
687.894	-0.0023
688.151	-0.0021
688.409	-0.0016
688.666	-0.0006
688.923	-0.0014
689.181	-0.0012
689.438	-0.0021
689.695	-0.0009
689.952	-0.0013
690.209	-0.001
690.466	-0.0009
690.723	-0.0003
690.979	-0.0012
691.236	-0.0003
691.493	-0.0022
691.75	-0.0016
692.006	-0.0014
692.263	-0.0017
692.519	-0.0008
692.775	-0.002
693.032	-0.0024
693.288	-0.0026
693.544	-0.0023
693.8	-0.0007
694.056	-0.0021
694.313	-0.0021
694.568	-0.0006
694.824	-0.0022
695.08	-0.001
695.336	0.0001
695.592	-0.0015
695.847	0.0001
696.103	0.0009
696.359	0.0021
696.614	0.0022
696.869	0.0007
697.125	-0.0006
697.38	-0.0011
697.635	-0.0001
697.891	0.0009
698.146	-0.0004
698.401	0.0004
698.656	-0.0009
698.911	0.0003
699.166	0.0002
699.42	0.0007
699.675	0.0012
699.93	0.0011
700.185	0.002
700.439	0.0008
700.694	0.0022
700.948	0.0009
701.203	0.0014
701.457	0.0002
701.711	0.001
701.965	-0.0002
702.22	0.0004
702.474	0.0002
702.728	0.0004
702.982	0.0003
703.236	-0.0011
703.49	-0.0007
703.743	-0.0014
703.997	-0.0007
704.251	-0.0006
704.504	0.0007
704.758	0.0008
705.012	0.0012
705.265	0.0011
705.518	0.0008
705.772	0.0003
706.025	0.0016
706.278	0.0008
706.531	0.0007
706.785	-0.0003
707.038	-0.0007
707.291	-0.0007
707.543	-0.0007
707.796	-0.0007
708.049	0.0005
708.302	0.0002
708.555	-0.0009
708.807	0.0005
709.06	0.0005
709.312	0.0015
709.565	0.001
709.817	0.003
710.069	0.0013
710.322	0.0024
710.574	0.0025
710.826	0.0021
711.078	0.0013
711.33	0.0007
711.582	0.0017
711.834	0.0016
712.086	0.0014
712.338	0.0017
712.59	0.0003
712.841	-0.0003
713.093	0.0001
713.344	0.0008
713.596	0
713.847	-0.0019
714.099	-0.0017
714.35	-0.0011
714.601	-0.0023
714.853	-0.0022
715.104	-0.002
715.355	-0.0013
715.606	-0.0008
715.857	-0.0006
716.108	0.0004
716.359	0.0001
716.609	-0.001
716.86	0.0002
717.111	0.0001
717.361	0.0004
717.612	-0.0002
717.863	0.0008
718.113	0.0022
718.363	0.0019
718.614	0.0014
718.864	0.0012
719.114	0.001
719.364	0.0001
719.614	-0.0002
719.865	0.0001
720.114	0.0002
720.364	0.0008
720.614	-0.0012
720.864	-0.0006
721.114	-0.0017
721.364	-0.0017
721.613	-0.0019
721.863	-0.0018
722.112	-0.0012
722.362	-0.0009
722.611	0.0001
722.86	-0.0002
723.11	0.0018
723.359	0.0015
723.608	0.0019
723.857	0.0026
724.106	0.0017
724.355	0.0013
724.604	0.0011
724.853	0.0009
725.102	-0.0009
725.351	-0.0023
725.599	-0.003
725.848	-0.0022
726.097	-0.0012
726.345	-0.0017
726.594	-0.0013
726.842	-0.0004
727.09	-0.0011
727.339	-0.001
727.587	-0.0017
727.835	-0.0026
728.083	-0.0029
728.331	-0.003
728.579	-0.0021
728.827	-0.0024
729.075	-0.0029
729.323	-0.0023
729.571	-0.0028
729.818	-0.0026
730.066	-0.0018
730.314	-0.003
730.561	-0.0024
730.809	-0.0035
731.056	-0.0026
731.303	-0.0029
731.551	-0.003
731.798	-0.0025
732.045	-0.0019
732.292	-0.0028
732.539	-0.0025
732.786	-0.003
733.033	-0.0028
733.28	-0.0023
733.527	-0.0032
733.774	-0.0025
734.021	-0.0018
734.267	-0.0014
734.514	-0.0009
734.76	-0.0018
735.007	-0.0014
735.253	-0.0002
735.5	0.0014
735.746	0.0019
735.992	0.0015
736.238	0.0007
736.485	0.0006
736.731	0.0011
736.977	0.0013
737.223	-0.0008
737.469	-0.0007
737.715	0.0004
737.96	0.0004
738.206	0.0001
738.452	0.0003
738.697	-0.0003
738.943	-0.0011
739.189	0.0003
739.434	-0.0007
739.679	0.0005
739.925	0.0019
740.17	0.0018
740.415	0.0018
740.66	0.0021
740.906	0.0014
741.151	0.0013
741.396	0.0005
741.641	-0.0005
741.886	0.001
742.13	0.0007
742.375	0.0017
742.62	0.0001
742.865	0.0006
743.109	0.0009
743.354	-0.0004
743.598	-0.0007
743.843	-0.0021
744.087	-0.0029
744.331	-0.0024
744.576	-0.0025
744.82	-0.0015
745.064	-0.0018
745.308	-0.002
745.552	-0.0016
745.796	-0.0026
746.04	-0.0014
746.284	-0.0025
746.528	-0.0009
746.771	-0.0012
747.015	-0.0017
747.259	-0.0023
747.502	-0.0027
747.746	-0.0022
747.989	-0.0017
748.233	-0.0001
748.476	-0.0005
748.719	-0.0005
748.963	-0.0008
749.206	-0.0006
749.449	-0.0008
749.692	-0.001
749.935	-0.0003
750.178	-0.001
750.421	-0.0011
750.664	-0.0011
750.906	-0.001
751.149	-0.0012
751.392	-0.0002
751.635	-0.0007
751.877	-0.0003
752.12	-0.0012
752.362	-0.0004
752.604	0
752.847	-0.0005
753.089	-0.0002
753.331	-0.0008
753.573	-0.001
753.816	-0.0001
754.058	-0.0006
754.3	-0.0012
754.542	0.0002
754.783	0.0006
755.025	0.0011
755.267	0.0011
755.509	0.0012
755.75	0.0004
755.992	0.0002
756.234	0.0003
756.475	0.0003
756.716	-0.0006
756.958	-0.0012
757.199	-0.0005
757.44	-0.0007
757.682	-0.0003
757.923	0.0001
758.164	-0.0007
758.405	-0.0009
758.646	-0.0005
758.887	-0.0017
759.128	-0.002
759.369	-0.0023
759.609	-0.001
759.85	-0.0015
760.091	-0.0013
760.331	-0.0006
760.572	-0.0002
760.812	-0.0007
761.053	-0.0008
761.293	0.0005
761.533	0.001
761.774	0.0007
762.014	0.0006
762.254	0.001
762.494	0.001
762.734	0.001
762.974	0.0017
763.214	0.001
763.454	0.0014
763.694	0.0017
763.933	0.0027
764.173	0.0034
764.413	0.0038
764.652	0.0015
764.892	0.0017
765.131	0.0005
765.371	0.0003
765.61	-0.0007
765.849	-0.0022
766.089	-0.0033
766.328	-0.0027
766.567	-0.003
766.806	-0.0038
767.045	-0.0045
767.284	-0.0028
767.523	-0.0034
767.762	-0.0037
768.001	-0.0025
768.239	-0.0022
768.478	-0.0025
768.717	-0.0034
768.955	-0.0037
769.194	-0.0035
769.432	-0.0028
769.671	-0.0017
769.909	-0.0024
770.148	-0.0019
770.386	-0.0019
770.624	-0.0021
770.862	-0.0027
771.1	-0.0026
771.338	-0.003
771.576	-0.0012
771.814	-0
772.052	-0.0007
772.29	0.0005
772.528	-0.0004
772.765	-0.0016
773.003	-0.0007
773.24	-0.0008
773.478	-0.0016
773.716	-0.0001
773.953	0.0001
774.19	0.0005
774.428	0.0012
774.665	0.0017
774.902	0.0021
775.139	0.0017
775.376	0.0006
775.613	-0
775.85	-0.0003
776.087	-0.0006
776.324	-0.0009
776.561	-0.0019
776.798	-0.0019
777.034	-0.0022
777.271	-0.0017
777.508	-0.0025
777.744	-0.0005
777.981	-0.0012
778.217	-0.0022
778.454	-0.0028
778.69	-0.0019
778.926	-0.002
779.162	-0.0023
779.399	-0.001
779.635	-0.0015
779.871	-0.0021
780.107	-0.0023
780.343	-0.0028
780.579	-0.0022
780.814	-0.0019
781.05	-0.0015
781.286	-0.0019
781.522	-0.0025
781.757	-0.0033
781.993	-0.0026
782.228	-0.0031
782.464	-0.0021
782.699	-0.0014
782.934	-0.0021
783.17	-0.0022
783.405	-0.0015
783.64	-0.0021
783.875	-0.0022
784.11	-0.0026
784.345	-0.0025
784.58	-0.002
784.815	-0.0023
785.05	-0.0023
785.285	-0.0024
785.52	-0.0016
785.754	-0.0016
785.989	-0.001
786.223	0.0006
786.458	0.0012
786.692	0.0018
786.927	0.0025
787.161	0.0023
787.396	0.0034
787.63	0.0024
787.864	0.0008
788.098	-0.0008
788.332	-0.0014
788.566	-0.0013
788.8	-0.0012
789.034	-0.0007
789.268	-0.0016
789.502	-0.0014
789.736	-0.002
789.969	-0.0016
790.203	-0.0009
790.437	-0.0007
790.67	-0.0002
790.904	0.0002
791.137	0.0008
791.37	0
791.604	0.0005
791.837	0.0008
792.07	0.0017
792.303	0.0019
792.537	0.0029
792.77	0.0028
793.003	0.0017
793.236	0.0019
793.469	0.0013
793.701	0.0008
793.934	0.0011
794.167	0.0011
794.4	0.0003
794.632	0
794.865	-0.0008
795.097	-0.0017
795.33	-0.001
795.562	-0.0012
795.795	-0.0015
796.027	-0.0002
796.259	0.0009
796.491	0
796.724	0.0012
796.956	0.0007
797.188	0.0014
797.42	0.001
797.652	0.001
797.883	0.0024
798.115	0.0021
798.347	0.002
798.579	0.001
798.81	0.0017
799.042	0.0023
799.274	0.0027
799.505	0.0021
799.737	0.0022
799.968	0.0024
800.199	0.0021
800.431	0.0027
800.662	0.001
800.893	0.0021
801.124	0.0018
801.355	0.0018
801.586	0.0024
801.817	0.0038
802.048	0.0023
802.279	0.0021
802.51	0.0023
802.741	0.003
802.971	0.0013
803.202	0.0017
803.433	0.0023
803.663	0.0018
803.894	0.0026
804.124	0.0017
804.354	0.0032
804.585	0.0037
804.815	0.0051
805.045	0.0049
805.275	0.0043
805.506	0.0067
805.736	-0.089
805.966	-0.266
806.196	0.0177
