Data from 03 0.4 mM K2Cr2O7 0.25 M BQDS 1 M H2SO4 5 min_Absorbance_0057.txt Node
Date: Tue Dec 14 22:15:12 EST 2021
User: kwabilab-user
Spectrometer: HDX00518
Trigger mode: 0
Integration Time (sec): 5.000000E-2
Scans to average: 50
Nonlinearity correction enabled: false
Boxcar width: 0
Storing dark spectrum: false
XAxis mode: Wavelengths
Number of Pixels in Spectrum: 2068
>>>>>Begin Spectral Data<<<<<
195.27	-0.1408
195.642	-0.0055
196.014	-0.2426
196.386	-0.0375
196.758	-0.0867
197.129	-0.0137
197.501	-0.0331
197.872	-0.0025
198.244	0.0069
198.615	0.0401
198.986	0.0182
199.357	0.0119
199.728	0.0097
200.099	0.0153
200.47	0.021
200.841	0.006
201.212	0.0163
201.582	0.0165
201.953	0.0152
202.323	0.0265
202.694	0.0137
203.064	-0.0033
203.434	0.0039
203.804	0.0075
204.174	0.0143
204.544	0.0171
204.914	-0.009
205.284	0.0098
205.653	-0.0043
206.023	0.0164
206.393	0.0237
206.762	0.0107
207.131	0.0215
207.501	0.0354
207.87	0.0169
208.239	0.0054
208.608	0.0087
208.977	0.003
209.346	0.0319
209.715	0.0188
210.083	0.0129
210.452	0.0134
210.82	0.0462
211.189	0.0073
211.557	0.028
211.925	0.0058
212.294	0.0113
212.662	0.0265
213.03	0.0175
213.398	0.0068
213.766	0.0153
214.133	0.0162
214.501	0.0136
214.869	0.0043
215.236	0.0119
215.604	0.0278
215.971	0.0603
216.338	0.0366
216.705	0.0541
217.072	0.0468
217.439	0.0424
217.806	0.0251
218.173	0.0559
218.54	0.038
218.907	0.0596
219.273	0.0512
219.64	0.0789
220.006	0.0768
220.373	0.0915
220.739	0.1131
221.105	0.1297
221.471	0.1316
221.837	0.1664
222.203	0.1827
222.569	0.1841
222.935	0.1832
223.3	0.2266
223.666	0.2467
224.031	0.2735
224.397	0.2896
224.762	0.3134
225.127	0.3553
225.493	0.3666
225.858	0.3828
226.223	0.4295
226.588	0.4243
226.952	0.4215
227.317	0.4863
227.682	0.48
228.046	0.4817
228.411	0.5297
228.775	0.5385
229.14	0.5432
229.504	0.5509
229.868	0.5636
230.232	0.5733
230.596	0.5987
230.96	0.6272
231.324	0.59
231.688	0.6202
232.052	0.6217
232.415	0.632
232.779	0.6221
233.142	0.6335
233.505	0.6349
233.869	0.6668
234.232	0.6397
234.595	0.6476
234.958	0.6409
235.321	0.6492
235.684	0.6424
236.047	0.6364
236.409	0.6364
236.772	0.6363
237.134	0.6451
237.497	0.6301
237.859	0.6415
238.222	0.6396
238.584	0.6174
238.946	0.6287
239.308	0.6181
239.67	0.6263
240.032	0.6251
240.393	0.6215
240.755	0.6236
241.117	0.6156
241.478	0.6142
241.84	0.6075
242.201	0.606
242.562	0.5997
242.924	0.5959
243.285	0.5918
243.646	0.6003
244.007	0.5978
244.368	0.5938
244.728	0.5992
245.089	0.5899
245.45	0.58
245.81	0.584
246.171	0.5834
246.531	0.5831
246.891	0.5755
247.252	0.5741
247.612	0.5824
247.972	0.579
248.332	0.5804
248.692	0.5718
249.051	0.5796
249.411	0.5687
249.771	0.5725
250.13	0.5676
250.49	0.572
250.849	0.5688
251.208	0.5686
251.568	0.5727
251.927	0.5662
252.286	0.5686
252.645	0.5659
253.004	0.5712
253.363	0.5696
253.721	0.5675
254.08	0.5715
254.439	0.5657
254.797	0.5658
255.155	0.5666
255.514	0.5591
255.872	0.5663
256.23	0.5588
256.588	0.5648
256.946	0.5645
257.304	0.5674
257.662	0.5602
258.02	0.5608
258.377	0.5553
258.735	0.5633
259.093	0.5557
259.45	0.5551
259.807	0.5629
260.165	0.5521
260.522	0.5632
260.879	0.5533
261.236	0.5551
261.593	0.55
261.95	0.548
262.306	0.552
262.663	0.5466
263.02	0.5439
263.376	0.544
263.733	0.5473
264.089	0.5401
264.445	0.5371
264.802	0.5359
265.158	0.5329
265.514	0.5354
265.87	0.5297
266.226	0.5321
266.581	0.5328
266.937	0.5233
267.293	0.523
267.648	0.52
268.004	0.5203
268.359	0.5171
268.714	0.5125
269.07	0.511
269.425	0.507
269.78	0.5103
270.135	0.5052
270.49	0.5007
270.844	0.5001
271.199	0.4988
271.554	0.4958
271.908	0.4922
272.263	0.492
272.617	0.4862
272.972	0.4835
273.326	0.4801
273.68	0.474
274.034	0.4725
274.388	0.477
274.742	0.4696
275.096	0.4677
275.45	0.4626
275.803	0.4576
276.157	0.4502
276.51	0.4511
276.864	0.4481
277.217	0.4481
277.571	0.4427
277.924	0.437
278.277	0.4334
278.63	0.428
278.983	0.427
279.336	0.4257
279.688	0.4196
280.041	0.4108
280.394	0.4073
280.746	0.4054
281.099	0.4013
281.451	0.3972
281.803	0.391
282.156	0.3893
282.508	0.3858
282.86	0.3834
283.212	0.3781
283.564	0.3723
283.916	0.3661
284.267	0.3652
284.619	0.3643
284.971	0.3572
285.322	0.3568
285.673	0.3525
286.025	0.3467
286.376	0.3447
286.727	0.3393
287.078	0.3357
287.429	0.3332
287.78	0.328
288.131	0.3261
288.482	0.321
288.833	0.3169
289.183	0.3135
289.534	0.3076
289.884	0.3069
290.235	0.3026
290.585	0.2985
290.935	0.2955
291.285	0.2932
291.635	0.2888
291.985	0.2838
292.335	0.2816
292.685	0.2778
293.035	0.2737
293.384	0.2696
293.734	0.2673
294.083	0.2634
294.433	0.2599
294.782	0.2583
295.131	0.2537
295.48	0.2504
295.829	0.2478
296.179	0.2447
296.527	0.2403
296.876	0.2378
297.225	0.2325
297.574	0.2316
297.922	0.2285
298.271	0.2241
298.619	0.2208
298.968	0.2198
299.316	0.2159
299.664	0.2137
300.012	0.2092
300.36	0.2069
300.708	0.2041
301.056	0.2009
301.404	0.1991
301.752	0.197
302.099	0.1941
302.447	0.1919
302.794	0.1887
303.142	0.186
303.489	0.1838
303.836	0.1821
304.183	0.1802
304.531	0.1793
304.878	0.1755
305.224	0.1739
305.571	0.1727
305.918	0.1706
306.265	0.1676
306.611	0.1669
306.958	0.1657
307.304	0.1642
307.651	0.1635
307.997	0.1614
308.343	0.1609
308.689	0.1597
309.035	0.1579
309.381	0.1559
309.727	0.1553
310.073	0.1545
310.419	0.1537
310.764	0.1539
311.11	0.1526
311.455	0.1512
311.801	0.1507
312.146	0.1495
312.491	0.1494
312.837	0.149
313.182	0.1479
313.527	0.1473
313.872	0.1474
314.216	0.1481
314.561	0.1473
314.906	0.1471
315.251	0.1479
315.595	0.1472
315.94	0.1471
316.284	0.1469
316.628	0.147
316.972	0.147
317.317	0.1475
317.661	0.1482
318.005	0.1475
318.348	0.1475
318.692	0.1487
319.036	0.1487
319.38	0.1493
319.723	0.1484
320.067	0.1506
320.41	0.1499
320.754	0.1513
321.097	0.151
321.44	0.1522
321.783	0.1529
322.126	0.1537
322.469	0.1552
322.812	0.1549
323.155	0.1567
323.498	0.1572
323.84	0.1568
324.183	0.1585
324.525	0.1595
324.868	0.1619
325.21	0.1617
325.552	0.1626
325.894	0.1634
326.236	0.1639
326.578	0.1656
326.92	0.1662
327.262	0.1673
327.604	0.1682
327.946	0.1696
328.287	0.1698
328.629	0.1714
328.97	0.1722
329.312	0.173
329.653	0.1754
329.994	0.1766
330.335	0.1776
330.676	0.1788
331.017	0.1799
331.358	0.1806
331.699	0.1824
332.04	0.1831
332.38	0.1846
332.721	0.1859
333.061	0.1866
333.402	0.1879
333.742	0.189
334.083	0.1903
334.423	0.1913
334.763	0.1922
335.103	0.1939
335.443	0.1943
335.783	0.1955
336.123	0.1966
336.462	0.1973
336.802	0.1977
337.141	0.199
337.481	0.1997
337.82	0.2012
338.16	0.2021
338.499	0.2036
338.838	0.2048
339.177	0.2052
339.516	0.2056
339.855	0.2066
340.194	0.2071
340.533	0.2076
340.872	0.2083
341.21	0.2092
341.549	0.21
341.887	0.2113
342.226	0.2107
342.564	0.2122
342.902	0.2123
343.24	0.212
343.578	0.2134
343.916	0.2129
344.254	0.2138
344.592	0.2143
344.93	0.2146
345.268	0.2133
345.605	0.2143
345.943	0.2144
346.28	0.2145
346.618	0.2144
346.955	0.2143
347.292	0.2157
347.629	0.215
347.966	0.2154
348.303	0.2148
348.64	0.2152
348.977	0.2152
349.314	0.2153
349.65	0.2155
349.987	0.2156
350.324	0.2141
350.66	0.2153
350.996	0.2147
351.333	0.2136
351.669	0.2136
352.005	0.213
352.341	0.2127
352.677	0.2111
353.013	0.2106
353.349	0.2105
353.685	0.2083
354.02	0.2085
354.356	0.2069
354.691	0.2063
355.027	0.2059
355.362	0.2047
355.697	0.2041
356.033	0.2027
356.368	0.2022
356.703	0.2009
357.038	0.2004
357.373	0.1992
357.707	0.1988
358.042	0.198
358.377	0.1969
358.711	0.1971
359.046	0.1953
359.38	0.1943
359.715	0.1939
360.049	0.1926
360.383	0.1915
360.717	0.1899
361.051	0.189
361.385	0.1882
361.719	0.1869
362.053	0.1863
362.387	0.1836
362.72	0.1825
363.054	0.1818
363.387	0.1802
363.721	0.178
364.054	0.1767
364.387	0.1749
364.721	0.1737
365.054	0.1725
365.387	0.1706
365.72	0.17
366.053	0.1682
366.385	0.1661
366.718	0.166
367.051	0.1643
367.383	0.1631
367.716	0.1627
368.048	0.1611
368.381	0.1605
368.713	0.1579
369.045	0.1573
369.377	0.1566
369.709	0.1549
370.041	0.154
370.373	0.153
370.705	0.1515
371.037	0.15
371.368	0.1491
371.7	0.1478
372.031	0.146
372.363	0.1447
372.694	0.1436
373.025	0.1414
373.356	0.14
373.688	0.139
374.019	0.1372
374.35	0.1346
374.68	0.1327
375.011	0.1316
375.342	0.1305
375.673	0.1288
376.003	0.1264
376.334	0.1262
376.664	0.1237
376.995	0.123
377.325	0.1216
377.655	0.1203
377.985	0.1181
378.315	0.1173
378.645	0.116
378.975	0.1151
379.305	0.1134
379.635	0.1132
379.964	0.1117
380.294	0.1111
380.623	0.1094
380.953	0.1087
381.282	0.1076
381.611	0.1069
381.941	0.1061
382.27	0.1046
382.599	0.1036
382.928	0.1021
383.257	0.101
383.585	0.0993
383.914	0.0978
384.243	0.0963
384.571	0.0951
384.9	0.0939
385.228	0.0923
385.557	0.0912
385.885	0.0896
386.213	0.0887
386.541	0.0871
386.869	0.0858
387.197	0.0842
387.525	0.083
387.853	0.082
388.181	0.0807
388.508	0.0797
388.836	0.0782
389.164	0.0776
389.491	0.0761
389.818	0.0742
390.146	0.0744
390.473	0.0731
390.8	0.0726
391.127	0.0709
391.454	0.0702
391.781	0.0703
392.108	0.0693
392.435	0.068
392.761	0.0672
393.088	0.0668
393.415	0.0656
393.741	0.0652
394.067	0.0646
394.394	0.0639
394.72	0.0629
395.046	0.0618
395.372	0.0609
395.698	0.0603
396.024	0.0597
396.35	0.0588
396.676	0.0583
397.001	0.0575
397.327	0.0562
397.653	0.0555
397.978	0.0554
398.303	0.0538
398.629	0.0537
398.954	0.0532
399.279	0.0525
399.604	0.0515
399.929	0.0517
400.254	0.0499
400.579	0.0495
400.904	0.0494
401.229	0.0489
401.553	0.0486
401.878	0.0483
402.202	0.0471
402.527	0.0472
402.851	0.0473
403.175	0.0455
403.5	0.0453
403.824	0.0445
404.148	0.0449
404.472	0.0439
404.796	0.0443
405.119	0.0435
405.443	0.0436
405.767	0.0431
406.09	0.0431
406.414	0.0426
406.737	0.0434
407.061	0.0428
407.384	0.0419
407.707	0.0422
408.03	0.0419
408.353	0.0416
408.676	0.0411
408.999	0.0414
409.322	0.0408
409.645	0.0405
409.968	0.0404
410.29	0.0401
410.613	0.0411
410.935	0.04
411.258	0.0407
411.58	0.0391
411.902	0.0397
412.224	0.0399
412.546	0.0404
412.868	0.0409
413.19	0.0396
413.512	0.0397
413.834	0.0399
414.156	0.0398
414.477	0.0387
414.799	0.0399
415.121	0.0391
415.442	0.039
415.763	0.0395
416.085	0.039
416.406	0.0393
416.727	0.0388
417.048	0.0393
417.369	0.0387
417.69	0.039
418.011	0.0391
418.331	0.039
418.652	0.0388
418.973	0.0384
419.293	0.0389
419.614	0.0383
419.934	0.0399
420.254	0.0387
420.574	0.0376
420.895	0.0381
421.215	0.038
421.535	0.0385
421.855	0.0387
422.174	0.0374
422.494	0.0383
422.814	0.0386
423.134	0.038
423.453	0.0385
423.773	0.0386
424.092	0.0387
424.411	0.0386
424.731	0.0385
425.05	0.0385
425.369	0.0387
425.688	0.0385
426.007	0.0385
426.326	0.0385
426.644	0.0382
426.963	0.0379
427.282	0.0388
427.6	0.0384
427.919	0.0386
428.237	0.0385
428.556	0.0395
428.874	0.0391
429.192	0.0382
429.51	0.0384
429.828	0.0387
430.146	0.0387
430.464	0.0382
430.782	0.0383
431.1	0.0384
431.418	0.0386
431.735	0.0375
432.053	0.0379
432.37	0.0377
432.688	0.0377
433.005	0.0375
433.322	0.0388
433.639	0.0385
433.957	0.0384
434.274	0.0385
434.591	0.0383
434.907	0.0378
435.224	0.0382
435.541	0.0383
435.858	0.0393
436.174	0.0388
436.491	0.0384
436.807	0.038
437.124	0.0382
437.44	0.0384
437.756	0.0382
438.072	0.0372
438.388	0.0377
438.704	0.0374
439.02	0.0377
439.336	0.0374
439.652	0.0379
439.968	0.0374
440.283	0.0377
440.599	0.0383
440.914	0.0368
441.23	0.0374
441.545	0.0378
441.86	0.0379
442.175	0.0382
442.491	0.0369
442.806	0.0373
443.121	0.0362
443.435	0.0373
443.75	0.0367
444.065	0.0369
444.38	0.0367
444.694	0.0366
445.009	0.0366
445.323	0.0368
445.638	0.0369
445.952	0.0367
446.266	0.0364
446.58	0.035
446.894	0.0367
447.208	0.0361
447.522	0.0351
447.836	0.0358
448.15	0.036
448.464	0.0351
448.777	0.0357
449.091	0.0357
449.404	0.0353
449.718	0.0356
450.031	0.0352
450.345	0.0354
450.658	0.0354
450.971	0.0349
451.284	0.0346
451.597	0.0348
451.91	0.0348
452.223	0.0347
452.535	0.0344
452.848	0.0339
453.161	0.0336
453.473	0.0344
453.786	0.0337
454.098	0.0338
454.411	0.0333
454.723	0.0337
455.035	0.0335
455.347	0.0331
455.659	0.0338
455.971	0.0337
456.283	0.0333
456.595	0.0336
456.907	0.0336
457.218	0.0334
457.53	0.0326
457.841	0.0322
458.153	0.0327
458.464	0.0325
458.776	0.0317
459.087	0.032
459.398	0.0319
459.709	0.0314
460.02	0.0322
460.331	0.0319
460.642	0.0312
460.953	0.0312
461.263	0.0312
461.574	0.0299
461.885	0.0315
462.195	0.0301
462.506	0.0306
462.816	0.0309
463.126	0.0303
463.437	0.03
463.747	0.0297
464.057	0.0288
464.367	0.0289
464.677	0.0295
464.987	0.0293
465.296	0.0283
465.606	0.0285
465.916	0.0285
466.225	0.0286
466.535	0.0282
466.844	0.0287
467.154	0.0291
467.463	0.0282
467.772	0.0275
468.081	0.0278
468.39	0.0277
468.699	0.0276
469.008	0.0275
469.317	0.0271
469.626	0.0274
469.935	0.0258
470.243	0.027
470.552	0.0267
470.86	0.0266
471.169	0.0252
471.477	0.0247
471.785	0.0254
472.093	0.025
472.402	0.0259
472.71	0.0248
473.018	0.0248
473.326	0.0255
473.633	0.0248
473.941	0.0244
474.249	0.0248
474.556	0.0239
474.864	0.0241
475.171	0.0244
475.479	0.0232
475.786	0.024
476.094	0.024
476.401	0.0228
476.708	0.0231
477.015	0.0225
477.322	0.0216
477.629	0.0225
477.936	0.0223
478.242	0.0225
478.549	0.0222
478.856	0.022
479.162	0.0216
479.469	0.0219
479.775	0.0216
480.081	0.0203
480.388	0.0203
480.694	0.0207
481	0.0204
481.306	0.0206
481.612	0.02
481.918	0.0212
482.224	0.0203
482.53	0.0201
482.835	0.0202
483.141	0.0206
483.446	0.0198
483.752	0.019
484.057	0.0183
484.363	0.0188
484.668	0.0187
484.973	0.018
485.278	0.0179
485.583	0.0174
485.888	0.0176
486.193	0.0167
486.498	0.0174
486.803	0.0177
487.107	0.0169
487.412	0.0159
487.717	0.0168
488.021	0.0165
488.325	0.0166
488.63	0.0161
488.934	0.0162
489.238	0.0158
489.542	0.0158
489.846	0.0161
490.15	0.0162
490.454	0.0166
490.758	0.0155
491.062	0.015
491.366	0.0153
491.669	0.0153
491.973	0.0145
492.276	0.0143
492.58	0.0145
492.883	0.0152
493.186	0.0139
493.489	0.0148
493.792	0.0133
494.096	0.0131
494.399	0.0133
494.701	0.0131
495.004	0.0128
495.307	0.0132
495.61	0.0126
495.912	0.0133
496.215	0.013
496.517	0.0133
496.82	0.013
497.122	0.0128
497.424	0.0128
497.727	0.0113
498.029	0.012
498.331	0.0111
498.633	0.0111
498.935	0.0117
499.237	0.0118
499.538	0.0107
499.84	0.0112
500.142	0.0106
500.443	0.0111
500.745	0.0108
501.046	0.0107
501.348	0.0102
501.649	0.0101
501.95	0.0104
502.251	0.0108
502.552	0.01
502.853	0.0104
503.154	0.0107
503.455	0.0094
503.756	0.0099
504.057	0.0085
504.357	0.0099
504.658	0.0094
504.958	0.0087
505.259	0.0096
505.559	0.0086
505.859	0.0088
506.16	0.0075
506.46	0.0087
506.76	0.0082
507.06	0.0074
507.36	0.0076
507.66	0.0087
507.96	0.0092
508.259	0.0087
508.559	0.0077
508.859	0.0085
509.158	0.0081
509.457	0.0074
509.757	0.0065
510.056	0.0076
510.355	0.0072
510.655	0.0062
510.954	0.0071
511.253	0.0067
511.552	0.0073
511.851	0.0074
512.149	0.0069
512.448	0.0054
512.747	0.0058
513.045	0.0068
513.344	0.0066
513.642	0.0061
513.941	0.0063
514.239	0.0059
514.537	0.0058
514.836	0.0054
515.134	0.0062
515.432	0.0062
515.73	0.0063
516.028	0.0055
516.326	0.0053
516.623	0.0044
516.921	0.0049
517.219	0.0061
517.516	0.0054
517.814	0.0056
518.111	0.0054
518.409	0.0048
518.706	0.0056
519.003	0.0048
519.3	0.0046
519.597	0.0054
519.894	0.0047
520.191	0.0058
520.488	0.0063
520.785	0.0047
521.082	0.0047
521.378	0.0053
521.675	0.0044
521.971	0.004
522.268	0.0053
522.564	0.0056
522.861	0.0056
523.157	0.0044
523.453	0.0046
523.749	0.0045
524.045	0.0046
524.341	0.0046
524.637	0.0034
524.933	0.0049
525.229	0.0044
525.524	0.0044
525.82	0.0044
526.115	0.0053
526.411	0.004
526.706	0.0044
527.002	0.0048
527.297	0.0031
527.592	0.0047
527.887	0.0037
528.182	0.0032
528.477	0.0044
528.772	0.0036
529.067	0.0047
529.362	0.0042
529.657	0.0034
529.951	0.0035
530.246	0.0037
530.54	0.0028
530.835	0.0031
531.129	0.0042
531.423	0.0029
531.718	0.0032
532.012	0.003
532.306	0.0043
532.6	0.002
532.894	0.0036
533.188	0.0022
533.482	0.004
533.775	0.0023
534.069	0.0037
534.363	0.0027
534.656	0.0033
534.95	0.0032
535.243	0.0027
535.536	0.0029
535.83	0.003
536.123	0.002
536.416	0.0029
536.709	0.0033
537.002	0.004
537.295	0.0044
537.588	0.003
537.881	0.0024
538.173	0.0035
538.466	0.0026
538.759	0.0027
539.051	0.0038
539.344	0.0033
539.636	0.0024
539.928	0.0045
540.22	0.0021
540.513	0.0038
540.805	0.0029
541.097	0.0039
541.389	0.0027
541.681	0.0037
541.972	0.0018
542.264	0.0045
542.556	0.0038
542.847	0.0036
543.139	0.004
543.431	0.0037
543.722	0.0031
544.013	0.0043
544.305	0.0035
544.596	0.0037
544.887	0.0029
545.178	0.0043
545.469	0.0047
545.76	0.0038
546.051	0.0036
546.342	0.0045
546.632	0.0037
546.923	0.0033
547.214	0.0033
547.504	0.0039
547.795	0.0032
548.085	0.0028
548.375	0.0038
548.666	0.0039
548.956	0.0025
549.246	0.004
549.536	0.0031
549.826	0.0036
550.116	0.004
550.406	0.0029
550.695	0.0045
550.985	0.0031
551.275	0.0038
551.564	0.0058
551.854	0.0039
552.143	0.0036
552.433	0.0037
552.722	0.0041
553.011	0.0036
553.3	0.0032
553.589	0.0043
553.879	0.0033
554.167	0.0027
554.456	0.0031
554.745	0.004
555.034	0.0039
555.323	0.0033
555.611	0.0043
555.9	0.0037
556.188	0.0029
556.477	0.0022
556.765	0.0037
557.053	0.0029
557.342	0.003
557.63	0.0032
557.918	0.0034
558.206	0.0037
558.494	0.0036
558.782	0.0036
559.069	0.0048
559.357	0.0043
559.645	0.0035
559.932	0.0042
560.22	0.0041
560.507	0.0018
560.795	0.0026
561.082	0.0029
561.37	0.0029
561.657	0.0023
561.944	0.0026
562.231	0.003
562.518	0.0034
562.805	0.0037
563.092	0.0029
563.379	0.0025
563.665	0.0032
563.952	0.0049
564.239	0.0034
564.525	0.0029
564.811	0.0026
565.098	0.003
565.384	0.0028
565.67	0.0032
565.957	0.0023
566.243	0.0036
566.529	0.0036
566.815	0.0034
567.101	0.0033
567.387	0.0032
567.672	0.0033
567.958	0.0026
568.244	0.0018
568.529	0.002
568.815	0.0025
569.1	0.0023
569.386	0.0036
569.671	0.0031
569.956	0.0022
570.242	0.0029
570.527	0.002
570.812	0.0022
571.097	0.0024
571.382	0.0019
571.666	0.0019
571.951	0.0034
572.236	0.0025
572.521	0.0032
572.805	0.0038
573.09	0.0034
573.374	0.0028
573.659	0.0029
573.943	0.0028
574.227	0.0034
574.511	0.0032
574.795	0.003
575.079	0.0027
575.363	0.0022
575.647	0.0021
575.931	0.0031
576.215	0.0026
576.499	0.0025
576.782	0.0028
577.066	0.002
577.349	0.0029
577.633	0.0033
577.916	0.0026
578.2	0.0028
578.483	0.0035
578.766	0.0036
579.049	0.0032
579.332	0.0026
579.615	0.0027
579.898	0.0026
580.181	0.003
580.464	0.0031
580.746	0.0035
581.029	0.0031
581.312	0.0025
581.594	0.0018
581.877	0.0028
582.159	0.0031
582.441	0.0017
582.724	0.0032
583.006	0.0029
583.288	0.0029
583.57	0.0019
583.852	0.0037
584.134	0.0034
584.416	0.0026
584.697	0.0028
584.979	0.0025
585.261	0.0027
585.542	0.0025
585.824	0.0031
586.105	0.003
586.387	0.0034
586.668	0.0031
586.949	0.0035
587.231	0.0033
587.512	0.0033
587.793	0.0023
588.074	0.0029
588.355	0.0033
588.636	0.0026
588.916	0.0036
589.197	0.0019
589.478	0.0034
589.758	0.0022
590.039	0.0024
590.319	0.0017
590.6	0.0024
590.88	0.002
591.16	0.0019
591.441	0.0033
591.721	0.0024
592.001	0.0022
592.281	0.0025
592.561	0.003
592.841	0.003
593.12	0.0025
593.4	0.003
593.68	0.0029
593.959	0.0029
594.239	0.0031
594.518	0.0039
594.798	0.0036
595.077	0.0035
595.356	0.0026
595.636	0.0023
595.915	0.0026
596.194	0.0026
596.473	0.0029
596.752	0.0027
597.031	0.0028
597.31	0.0025
597.588	0.002
597.867	0.0016
598.146	0.0015
598.424	0.0013
598.703	0.0023
598.981	0.002
599.259	0.0022
599.538	0.003
599.816	0.0029
600.094	0.0026
600.372	0.0023
600.65	0.0031
600.928	0.0025
601.206	0.0026
601.484	0.0028
601.762	0.0037
602.04	0.0038
602.317	0.0026
602.595	0.0028
602.872	0.0026
603.15	0.0031
603.427	0.0014
603.704	0.0014
603.982	0.0015
604.259	0.0022
604.536	0.002
604.813	0.002
605.09	0.0018
605.367	0.0014
605.644	0.0013
605.921	0.0015
606.197	0.002
606.474	0.0026
606.751	0.0022
607.027	0.0022
607.304	0.0026
607.58	0.0023
607.856	0.0033
608.133	0.0041
608.409	0.0036
608.685	0.0034
608.961	0.0031
609.237	0.003
609.513	0.004
609.789	0.0025
610.065	0.003
610.341	0.0024
610.616	0.0025
610.892	0.003
611.167	0.0039
611.443	0.0035
611.718	0.0037
611.994	0.0031
612.269	0.0027
612.544	0.0036
612.819	0.0029
613.095	0.0028
613.37	0.0023
613.645	0.0022
613.919	0.0028
614.194	0.0024
614.469	0.0035
614.744	0.0024
615.019	0.0023
615.293	0.002
615.568	0.0019
615.842	0.0018
616.116	0.0011
616.391	0.0007
616.665	0.001
616.939	0.0008
617.213	0.0018
617.488	0.0011
617.762	0.002
618.035	0.0032
618.309	0.0022
618.583	0.0024
618.857	0.0027
619.131	0.0026
619.404	0.0027
619.678	0.0033
619.951	0.0029
620.225	0.0016
620.498	0.0015
620.771	0.0018
621.045	0.0026
621.318	0.002
621.591	0.0021
621.864	0.0022
622.137	0.0013
622.41	0.0013
622.683	0.0015
622.956	0.0014
623.228	0.0017
623.501	0.0025
623.774	0.0027
624.046	0.002
624.319	0.0016
624.591	0.0014
624.863	0.0015
625.136	0.0035
625.408	0.0032
625.68	0.0029
625.952	0.0028
626.224	0.0032
626.496	0.0024
626.768	0.0025
627.04	0.0022
627.311	0.0024
627.583	0.003
627.855	0.0032
628.126	0.0014
628.398	0.0016
628.669	0.0018
628.941	0.0007
629.212	-0.0004
629.483	0.0014
629.755	0.001
630.026	0.0016
630.297	0.0008
630.568	0.0015
630.839	0.0015
631.11	0.0021
631.38	0.002
631.651	0.0017
631.922	0.0017
632.192	0.0007
632.463	0.0008
632.733	-0
633.004	0.0006
633.274	0.0012
633.545	0.0009
633.815	0.0012
634.085	0.0016
634.355	0.0012
634.625	0.0021
634.895	0.0013
635.165	0.0015
635.435	0.0021
635.705	0.0021
635.974	0.0025
636.244	0.0018
636.514	0.0012
636.783	0.0019
637.053	0.002
637.322	0.001
637.591	0.0007
637.861	-0
638.13	0.0008
638.399	0.0015
638.668	0.0019
638.937	0.002
639.206	0.0012
639.475	0.0028
639.744	0.002
640.013	0.0021
640.281	0.0013
640.55	0.0011
640.819	0.0011
641.087	0.0007
641.356	0.0014
641.624	0.0012
641.892	0.0016
642.161	0.0015
642.429	0.0014
642.697	0.0017
642.965	0.0011
643.233	-0.0003
643.501	0.0006
643.769	0.001
644.037	0.0005
644.305	0.0001
644.572	-0.0006
644.84	-0.0002
645.108	0.0001
645.375	0.0003
645.643	0.0011
645.91	0.0012
646.177	0.0011
646.445	0.0008
646.712	0.001
646.979	0.0007
647.246	0.0023
647.513	0.002
647.78	0.0011
648.047	-0.0003
648.314	-0.0009
648.58	-0.0006
648.847	-0.0019
649.114	-0.0019
649.38	-0.0019
649.647	-0.0014
649.913	-0.0008
650.18	0.0009
650.446	0.0015
650.712	0.0012
650.978	0.0023
651.245	0.0028
651.511	0.0029
651.777	0.0038
652.043	0.0017
652.309	0.003
652.574	0.0011
652.84	0.0016
653.106	0.0016
653.371	0.0025
653.637	0.003
653.903	0.0022
654.168	0.0018
654.433	0.0011
654.699	-0.0002
654.964	-0.0008
655.229	0.0002
655.494	0.0013
655.759	-0.0006
656.024	0.0006
656.289	-0
656.554	0.0017
656.819	0.0018
657.084	0.0026
657.349	0.0021
657.613	0.0019
657.878	0.0005
658.142	0.0003
658.407	0.0003
658.671	0.0011
658.936	0.0011
659.2	0.0013
659.464	0.001
659.728	0.0006
659.992	-0.0008
660.256	-0.002
660.52	-0.0008
660.784	0
661.048	-0.0001
661.312	-0.0006
661.575	0.0001
661.839	0.0005
662.103	-0.0002
662.366	0.0001
662.63	0.0009
662.893	0.0002
663.156	0.0014
663.42	0.0022
663.683	0.001
663.946	0.0024
664.209	0.0021
664.472	0.0019
664.735	0.0014
664.998	0.0022
665.261	0.0032
665.524	0.0032
665.786	0.0018
666.049	0.0023
666.312	0.0021
666.574	0.0014
666.837	0.0038
667.099	0.0025
667.361	0.0032
667.624	0.0027
667.886	0.0033
668.148	0.0024
668.41	0.0015
668.672	0.002
668.934	0.0025
669.196	0.0023
669.458	0.001
669.72	0.0006
669.982	0.0012
670.243	0.0001
670.505	0.0011
670.766	0.0002
671.028	0.0007
671.289	0.0009
671.551	0.0015
671.812	0.0003
672.073	0.001
672.334	0.0014
672.596	0.0003
672.857	0.0007
673.118	0.0018
673.379	0.0016
673.639	0.0021
673.9	0.0021
674.161	0.0007
674.422	0.0018
674.682	-0.0001
674.943	-0
675.203	0.0004
675.464	0.0009
675.724	0.0013
675.985	0.0003
676.245	0.0002
676.505	-0.0004
676.765	-0.0001
677.025	0.0002
677.285	-0.0013
677.545	-0.0003
677.805	-0.0005
678.065	0.0004
678.325	0.0015
678.585	0.0024
678.844	0.0025
679.104	0.0029
679.363	0.0034
679.623	0.0033
679.882	0.0035
680.142	0.0034
680.401	0.0033
680.66	0.0034
680.919	0.0018
681.178	0.0029
681.437	0.0018
681.696	0.002
681.955	0.0039
682.214	0.0036
682.473	0.0034
682.732	0.0025
682.99	0.004
683.249	0.0044
683.508	0.0035
683.766	0.0033
684.024	0.0026
684.283	0.0015
684.541	0.0015
684.799	0.0006
685.058	-0.0005
685.316	-0.0014
685.574	-0.0014
685.832	-0.0003
686.09	-0.001
686.348	-0.0014
686.606	-0.0006
686.863	-0.0013
687.121	-0.001
687.379	-0.0019
687.636	-0.0031
687.894	-0.0017
688.151	-0.0022
688.409	-0.0018
688.666	-0.0006
688.923	-0.001
689.181	-0.0007
689.438	-0.0013
689.695	-0.0011
689.952	-0.0009
690.209	-0.0004
690.466	-0.0007
690.723	-0.0004
690.979	-0.0018
691.236	-0.0012
691.493	-0.0024
691.75	-0.002
692.006	-0.0012
692.263	-0.0013
692.519	-0.0017
692.775	-0.0017
693.032	-0.0025
693.288	-0.0033
693.544	-0.0026
693.8	-0.0012
694.056	-0.0018
694.313	-0.0025
694.568	-0.0012
694.824	-0.001
695.08	-0.0007
695.336	-0.0007
695.592	-0.0011
695.847	0.0009
696.103	0.0016
696.359	0.0024
696.614	0.0011
696.869	0.0002
697.125	-0.0008
697.38	-0.0009
697.635	-0.0003
697.891	0.0009
698.146	0.0004
698.401	0.0002
698.656	-0.0006
698.911	0.0012
699.166	0.001
699.42	0.0013
699.675	0.0013
699.93	0.003
700.185	0.0022
700.439	0.0018
700.694	0.0017
700.948	0.0005
701.203	0.0011
701.457	0.0007
701.711	-0.0004
701.965	-0.0003
702.22	-0.0004
702.474	-0.0006
702.728	-0.0007
702.982	-0.0001
703.236	-0.0011
703.49	-0.0005
703.743	-0.0017
703.997	-0.001
704.251	-0.0007
704.504	0.0004
704.758	0.0001
705.012	0.0006
705.265	0.001
705.518	0.0008
705.772	0.0004
706.025	0.0011
706.278	0.001
706.531	-0.0005
706.785	-0.0017
707.038	-0.0019
707.291	-0.0009
707.543	-0.0014
707.796	-0.0008
708.049	-0.0008
708.302	-0.0016
708.555	-0.0015
708.807	-0.0005
709.06	-0.0005
709.312	0.0011
709.565	0.0007
709.817	0.0024
710.069	0.0008
710.322	0.0017
710.574	0.0021
710.826	0.0012
711.078	0.0018
711.33	0.0013
711.582	0.0014
711.834	0.0008
712.086	0.0017
712.338	0.0009
712.59	-0.0002
712.841	-0.001
713.093	-0.0011
713.344	0.0002
713.596	-0.0009
713.847	-0.0016
714.099	-0.0011
714.35	-0.0007
714.601	-0.0019
714.853	-0.0026
715.104	-0.0014
715.355	-0.0019
715.606	-0.0003
715.857	-0.0002
716.108	0.0009
716.359	0.0013
716.609	-0.0004
716.86	0.0011
717.111	0.0008
717.361	0.0002
717.612	-0.0001
717.863	0.0012
718.113	0.0021
718.363	0.0014
718.614	0.0017
718.864	0.0015
719.114	0.0011
719.364	-0.0002
719.614	0.0002
719.865	0.0001
720.114	-0.0001
720.364	0.0006
720.614	-0.001
720.864	-0.0007
721.114	-0.0024
721.364	-0.002
721.613	-0.002
721.863	-0.0022
722.112	-0.0015
722.362	-0.0009
722.611	0.0003
722.86	0.0006
723.11	0.0011
723.359	0.0013
723.608	0.0009
723.857	0.0027
724.106	0.0017
724.355	0.0008
724.604	0.0007
724.853	-0.0004
725.102	-0.0009
725.351	-0.0017
725.599	-0.0029
725.848	-0.0025
726.097	-0.0008
726.345	-0.0018
726.594	-0.0021
726.842	-0.0009
727.09	-0.0013
727.339	-0.0014
727.587	-0.002
727.835	-0.0028
728.083	-0.0029
728.331	-0.0032
728.579	-0.0021
728.827	-0.0024
729.075	-0.0031
729.323	-0.003
729.571	-0.0027
729.818	-0.0033
730.066	-0.0028
730.314	-0.0025
730.561	-0.0028
730.809	-0.0038
731.056	-0.0027
731.303	-0.0027
731.551	-0.0022
731.798	-0.003
732.045	-0.0011
732.292	-0.0025
732.539	-0.0018
732.786	-0.0027
733.033	-0.0033
733.28	-0.0022
733.527	-0.0019
733.774	-0.0025
734.021	-0.0024
734.267	-0.0021
734.514	-0.0021
734.76	-0.0015
735.007	-0.0014
735.253	-0.0012
735.5	0.0009
735.746	0.0015
735.992	0.0014
736.238	0.0009
736.485	0.0008
736.731	0.0013
736.977	0.0004
737.223	-0.001
737.469	-0.0007
737.715	0.0004
737.96	-0
738.206	-0.0002
738.452	0.0004
738.697	-0.0003
738.943	-0.0015
739.189	-0.0006
739.434	-0.0011
739.679	0.0005
739.925	0.0021
740.17	0.0021
740.415	0.0014
740.66	0.0023
740.906	0.0013
741.151	0.0014
741.396	0.001
741.641	-0.0003
741.886	0.0012
742.13	0.0004
742.375	0.001
742.62	-0.0004
742.865	-0
743.109	0.0008
743.354	-0.0008
743.598	-0.0015
743.843	-0.0029
744.087	-0.0027
744.331	-0.0026
744.576	-0.0016
744.82	-0.0014
745.064	-0.0009
745.308	-0
745.552	-0.0012
745.796	-0.002
746.04	-0.0011
746.284	-0.002
746.528	-0.0007
746.771	-0.0011
747.015	-0.0013
747.259	-0.0024
747.502	-0.0017
747.746	-0.0018
747.989	-0.0016
748.233	-0.0003
748.476	-0.0004
748.719	-0.0001
748.963	0.0004
749.206	-0.0003
749.449	-0.0005
749.692	-0.0002
749.935	-0.0006
750.178	-0.0008
750.421	-0.0009
750.664	-0.0003
750.906	-0.0002
751.149	-0.0004
751.392	0.0004
751.635	0.0005
751.877	0.0001
752.12	-0.0006
752.362	0.0006
752.604	0.0011
752.847	0.0002
753.089	-0.0003
753.331	0.0003
753.573	-0.0002
753.816	0.0006
754.058	0
754.3	0.0008
754.542	0.0017
754.783	0.0009
755.025	0.0019
755.267	0.001
755.509	0.0016
755.75	0.0006
755.992	0.0013
756.234	0.0014
756.475	0.001
756.716	0.0009
756.958	-0.0005
757.199	0.0001
757.44	0.0004
757.682	0.0003
757.923	0.001
758.164	0.0012
758.405	0.0013
758.646	0.0014
758.887	-0.0003
759.128	-0.0005
759.369	-0.0013
759.609	-0.0007
759.85	-0.0006
760.091	0.0004
760.331	0.0002
760.572	0.0009
760.812	-0.0008
761.053	0.0002
761.293	0.0013
761.533	0.001
761.774	0.002
762.014	0.0018
762.254	0.0011
762.494	0.0016
762.734	0.0013
762.974	0.0012
763.214	0.0009
763.454	0.0011
763.694	0.0008
763.933	0.0029
764.173	0.0038
764.413	0.0036
764.652	0.001
764.892	0.0012
765.131	0.0008
765.371	0.0004
765.61	-0.0008
765.849	-0.0017
766.089	-0.0026
766.328	-0.0011
766.567	-0.0023
766.806	-0.0027
767.045	-0.0038
767.284	-0.0022
767.523	-0.0024
767.762	-0.0029
768.001	-0.0026
768.239	-0.0018
768.478	-0.0031
768.717	-0.0026
768.955	-0.0027
769.194	-0.0028
769.432	-0.0017
769.671	-0.0016
769.909	-0.0013
770.148	-0.002
770.386	-0.0018
770.624	-0.0016
770.862	-0.002
771.1	-0.0017
771.338	-0.0023
771.576	-0.0008
771.814	0.0004
772.052	-0.0005
772.29	0.0007
772.528	-0.0003
772.765	-0.0006
773.003	-0.0002
773.24	0.0006
773.478	0.0001
773.716	0.0013
773.953	0.0016
774.19	0.0017
774.428	0.0021
774.665	0.0034
774.902	0.0031
775.139	0.0027
775.376	0.0017
775.613	0.0014
775.85	0.0012
776.087	0.0003
776.324	-0.0002
776.561	-0.0009
776.798	-0.0007
777.034	-0.0006
777.271	0.0001
777.508	0
777.744	0.0012
777.981	0.0013
778.217	0.0003
778.454	-0.0004
778.69	-0.0007
778.926	-0.0007
779.162	-0.0006
779.399	0.0001
779.635	-0.0008
779.871	-0.0007
780.107	-0.0007
780.343	-0.0017
780.579	-0.0009
780.814	-0.0011
781.05	-0.0017
781.286	-0.0011
781.522	-0.0021
781.757	-0.0023
781.993	-0.0011
782.228	-0.0026
782.464	-0.0014
782.699	-0.0012
782.934	-0.0012
783.17	-0.0005
783.405	-0.0005
783.64	-0.0011
783.875	-0.0018
784.11	-0.0021
784.345	-0.0017
784.58	-0.0009
784.815	-0.0019
785.05	-0.0012
785.285	-0.0022
785.52	-0.0006
785.754	-0.0006
785.989	-0.0007
786.223	0.0001
786.458	0.0015
786.692	0.0021
786.927	0.0028
787.161	0.0029
787.396	0.003
787.63	0.0023
787.864	0.0005
788.098	-0.0006
788.332	0.0002
788.566	-0.0007
788.8	-0.0011
789.034	0.0003
789.268	-0.0008
789.502	-0.0007
789.736	-0.0004
789.969	-0.0006
790.203	-0.0006
790.437	0.0006
790.67	0.0001
790.904	0.0015
791.137	0.0015
791.37	0.0017
791.604	0.0024
791.837	0.0027
792.07	0.0035
792.303	0.0038
792.537	0.0042
792.77	0.0033
793.003	0.0028
793.236	0.0026
793.469	0.002
793.701	0.0011
793.934	0.0013
794.167	0.0003
794.4	0
794.632	-0.0004
794.865	-0.0015
795.097	-0.0018
795.33	-0.0016
795.562	-0.0015
795.795	-0.0016
796.027	-0.0006
796.259	-0.0001
796.491	-0.0005
796.724	0.0009
796.956	0.0005
797.188	0.0006
797.42	0.0002
797.652	0.0003
797.883	0.0011
798.115	0.0023
798.347	0.0018
798.579	0.0015
798.81	0.0015
799.042	0.0019
799.274	0.0023
799.505	0.0019
799.737	0.0024
799.968	0.0024
800.199	0.0016
800.431	0.002
800.662	0.0005
800.893	0.0012
801.124	0.0007
801.355	0.0013
801.586	0.0023
801.817	0.0032
802.048	0.0019
802.279	0.0023
802.51	0.0027
802.741	0.0034
802.971	0.0029
803.202	0.0015
803.433	0.0021
803.663	0.0014
803.894	0.0013
804.124	0.0022
804.354	0.0039
804.585	0.0029
804.815	0.0032
805.045	0.0044
805.275	0.0027
805.506	0.0177
805.736	-0.1198
805.966	-0.2819
806.196	-0.1335
