Data from 03 0.4 mM K2Cr2O7 0.25 M BQDS 1 M H2SO4 5 min_Absorbance_0163.txt Node
Date: Wed Dec 15 07:05:13 EST 2021
User: kwabilab-user
Spectrometer: HDX00518
Trigger mode: 0
Integration Time (sec): 5.000000E-2
Scans to average: 50
Nonlinearity correction enabled: false
Boxcar width: 0
Storing dark spectrum: false
XAxis mode: Wavelengths
Number of Pixels in Spectrum: 2068
>>>>>Begin Spectral Data<<<<<
195.27	-0.2607
195.642	-0.0164
196.014	-0.3275
196.386	-0.236
196.758	-0.1162
197.129	-0.0438
197.501	-0.0575
197.872	-0.0204
198.244	-0.0129
198.615	0.0205
198.986	0.0016
199.357	0.0016
199.728	0.0116
200.099	-0.0007
200.47	-0.0026
200.841	0.0033
201.212	0.0046
201.582	0.0094
201.953	0.0041
202.323	-0.0021
202.694	0.0011
203.064	-0.0117
203.434	-0.0309
203.804	-0.0014
204.174	-0.0016
204.544	0.0059
204.914	-0.019
205.284	-0.0048
205.653	-0.0187
206.023	-0.0072
206.393	0.0054
206.762	-0.0129
207.131	-0.0082
207.501	-0.0054
207.87	-0.0125
208.239	-0.0186
208.608	-0.0086
208.977	-0.0233
209.346	-0.031
209.715	-0.0091
210.083	-0.0107
210.452	-0.0175
210.82	0.0105
211.189	-0.0285
211.557	-0.0083
211.925	-0.0195
212.294	-0.0157
212.662	-0.0084
213.03	-0.0176
213.398	-0.0219
213.766	-0.0063
214.133	-0.0021
214.501	-0.0173
214.869	-0.0091
215.236	-0.0247
215.604	-0.0264
215.971	0.0216
216.338	-0.0073
216.705	0.01
217.072	-0.0095
217.439	0.0008
217.806	-0.0043
218.173	0.0125
218.54	0.0017
218.907	0.0326
219.273	0.0206
219.64	0.0393
220.006	0.0222
220.373	0.0499
220.739	0.0767
221.105	0.0838
221.471	0.0971
221.837	0.1148
222.203	0.1556
222.569	0.1394
222.935	0.1493
223.3	0.2048
223.666	0.1879
224.031	0.2331
224.397	0.2449
224.762	0.2768
225.127	0.3025
225.493	0.3144
225.858	0.3627
226.223	0.3578
226.588	0.4048
226.952	0.3909
227.317	0.4432
227.682	0.443
228.046	0.4584
228.411	0.4828
228.775	0.4899
229.14	0.5068
229.504	0.5095
229.868	0.524
230.232	0.5297
230.596	0.5569
230.96	0.5625
231.324	0.5542
231.688	0.5745
232.052	0.589
232.415	0.581
232.779	0.5827
233.142	0.5879
233.505	0.5972
233.869	0.5998
234.232	0.5893
234.595	0.5952
234.958	0.6055
235.321	0.5903
235.684	0.5947
236.047	0.5835
236.409	0.592
236.772	0.5816
237.134	0.5947
237.497	0.5756
237.859	0.5864
238.222	0.581
238.584	0.5724
238.946	0.5663
239.308	0.5743
239.67	0.5591
240.032	0.5699
240.393	0.566
240.755	0.5628
241.117	0.5503
241.478	0.5551
241.84	0.5557
242.201	0.5498
242.562	0.5439
242.924	0.5423
243.285	0.5348
243.646	0.5347
244.007	0.5335
244.368	0.5322
244.728	0.5314
245.089	0.5324
245.45	0.5245
245.81	0.5185
246.171	0.5214
246.531	0.5155
246.891	0.5143
247.252	0.5109
247.612	0.5155
247.972	0.5069
248.332	0.5091
248.692	0.5076
249.051	0.5073
249.411	0.5073
249.771	0.5056
250.13	0.5078
250.49	0.4972
250.849	0.4998
251.208	0.4975
251.568	0.5015
251.927	0.5003
252.286	0.5043
252.645	0.4991
253.004	0.4973
253.363	0.4941
253.721	0.4963
254.08	0.4999
254.439	0.489
254.797	0.4938
255.155	0.4941
255.514	0.4964
255.872	0.4908
256.23	0.4903
256.588	0.4906
256.946	0.4902
257.304	0.4896
257.662	0.4895
258.02	0.4864
258.377	0.4863
258.735	0.4851
259.093	0.4784
259.45	0.4837
259.807	0.4822
260.165	0.4812
260.522	0.4844
260.879	0.4769
261.236	0.4768
261.593	0.4741
261.95	0.4717
262.306	0.472
262.663	0.4729
263.02	0.4697
263.376	0.4684
263.733	0.4648
264.089	0.4641
264.445	0.4646
264.802	0.4639
265.158	0.4602
265.514	0.4603
265.87	0.4596
266.226	0.4576
266.581	0.4569
266.937	0.4528
267.293	0.4499
267.648	0.4496
268.004	0.4488
268.359	0.447
268.714	0.4409
269.07	0.442
269.425	0.4399
269.78	0.4327
270.135	0.4328
270.49	0.4284
270.844	0.4306
271.199	0.4244
271.554	0.4198
271.908	0.4228
272.263	0.4231
272.617	0.4172
272.972	0.4171
273.326	0.4123
273.68	0.4076
274.034	0.4086
274.388	0.4043
274.742	0.4046
275.096	0.4
275.45	0.3986
275.803	0.3916
276.157	0.3907
276.51	0.3876
276.864	0.3859
277.217	0.3838
277.571	0.3815
277.924	0.374
278.277	0.371
278.63	0.3663
278.983	0.3678
279.336	0.3629
279.688	0.3584
280.041	0.3573
280.394	0.3491
280.746	0.349
281.099	0.3476
281.451	0.3426
281.803	0.3387
282.156	0.3318
282.508	0.3312
282.86	0.3285
283.212	0.3255
283.564	0.3221
283.916	0.3176
284.267	0.3153
284.619	0.3141
284.971	0.3095
285.322	0.3073
285.673	0.3008
286.025	0.297
286.376	0.2956
286.727	0.2913
287.078	0.2873
287.429	0.2864
287.78	0.2792
288.131	0.2772
288.482	0.2739
288.833	0.2719
289.183	0.2684
289.534	0.2663
289.884	0.2627
290.235	0.2593
290.585	0.2556
290.935	0.2517
291.285	0.25
291.635	0.2464
291.985	0.2452
292.335	0.2404
292.685	0.238
293.035	0.2329
293.384	0.2314
293.734	0.2261
294.083	0.225
294.433	0.2223
294.782	0.2195
295.131	0.2151
295.48	0.2133
295.829	0.2106
296.179	0.2078
296.527	0.2046
296.876	0.2019
297.225	0.1969
297.574	0.1947
297.922	0.1923
298.271	0.1889
298.619	0.1863
298.968	0.1848
299.316	0.1815
299.664	0.1806
300.012	0.1785
300.36	0.1728
300.708	0.1716
301.056	0.1697
301.404	0.1679
301.752	0.1656
302.099	0.1625
302.447	0.1604
302.794	0.1588
303.142	0.1556
303.489	0.1538
303.836	0.1529
304.183	0.1507
304.531	0.1493
304.878	0.1468
305.224	0.1466
305.571	0.1442
305.918	0.1424
306.265	0.1396
306.611	0.1387
306.958	0.1388
307.304	0.1367
307.651	0.1362
307.997	0.1341
308.343	0.1324
308.689	0.1324
309.035	0.1311
309.381	0.1298
309.727	0.1301
310.073	0.129
310.419	0.1281
310.764	0.1273
311.11	0.1263
311.455	0.1257
311.801	0.1249
312.146	0.1244
312.491	0.1238
312.837	0.1241
313.182	0.1229
313.527	0.1222
313.872	0.1227
314.216	0.1227
314.561	0.1219
314.906	0.1221
315.251	0.1224
315.595	0.1228
315.94	0.1221
316.284	0.122
316.628	0.122
316.972	0.1223
317.317	0.1225
317.661	0.1225
318.005	0.1227
318.348	0.1224
318.692	0.1232
319.036	0.1241
319.38	0.1252
319.723	0.1242
320.067	0.1254
320.41	0.1257
320.754	0.1263
321.097	0.1256
321.44	0.1273
321.783	0.128
322.126	0.1291
322.469	0.1293
322.812	0.1298
323.155	0.1309
323.498	0.1311
323.84	0.1319
324.183	0.1329
324.525	0.134
324.868	0.1357
325.21	0.1359
325.552	0.1372
325.894	0.138
326.236	0.1378
326.578	0.1386
326.92	0.1401
327.262	0.141
327.604	0.1418
327.946	0.1433
328.287	0.1436
328.629	0.1452
328.97	0.1458
329.312	0.1477
329.653	0.1481
329.994	0.1491
330.335	0.1504
330.676	0.151
331.017	0.1525
331.358	0.1535
331.699	0.1547
332.04	0.1557
332.38	0.1571
332.721	0.1583
333.061	0.1585
333.402	0.1604
333.742	0.1611
334.083	0.161
334.423	0.1631
334.763	0.1643
335.103	0.1648
335.443	0.1659
335.783	0.1668
336.123	0.1672
336.462	0.1688
336.802	0.1684
337.141	0.1697
337.481	0.1705
337.82	0.1722
338.16	0.1723
338.499	0.1738
338.838	0.1742
339.177	0.1756
339.516	0.1758
339.855	0.1766
340.194	0.1774
340.533	0.1777
340.872	0.1788
341.21	0.1798
341.549	0.1805
341.887	0.1813
342.226	0.1801
342.564	0.1818
342.902	0.1821
343.24	0.1824
343.578	0.1824
343.916	0.1828
344.254	0.1838
344.592	0.1842
344.93	0.1837
345.268	0.1834
345.605	0.1839
345.943	0.1844
346.28	0.1844
346.618	0.1838
346.955	0.1844
347.292	0.1856
347.629	0.1847
347.966	0.1844
348.303	0.1852
348.64	0.1852
348.977	0.1851
349.314	0.1861
349.65	0.1852
349.987	0.1854
350.324	0.1846
350.66	0.1858
350.996	0.185
351.333	0.1844
351.669	0.1836
352.005	0.1842
352.341	0.1831
352.677	0.1822
353.013	0.1809
353.349	0.1808
353.685	0.1801
354.02	0.1794
354.356	0.1792
354.691	0.178
355.027	0.177
355.362	0.1764
355.697	0.1756
356.033	0.176
356.368	0.1751
356.703	0.1738
357.038	0.1729
357.373	0.1718
357.707	0.1718
358.042	0.1715
358.377	0.1697
358.711	0.1703
359.046	0.1688
359.38	0.1681
359.715	0.1678
360.049	0.1666
360.383	0.1648
360.717	0.1638
361.051	0.1632
361.385	0.1626
361.719	0.1611
362.053	0.1604
362.387	0.1585
362.72	0.158
363.054	0.1565
363.387	0.155
363.721	0.154
364.054	0.153
364.387	0.1511
364.721	0.1496
365.054	0.1494
365.387	0.1472
365.72	0.1469
366.053	0.1453
366.385	0.1434
366.718	0.1431
367.051	0.142
367.383	0.1413
367.716	0.1406
368.048	0.1385
368.381	0.1387
368.713	0.1367
369.045	0.1364
369.377	0.1348
369.709	0.1342
370.041	0.1333
370.373	0.1322
370.705	0.1317
371.037	0.1297
371.368	0.1282
371.7	0.1269
372.031	0.126
372.363	0.1248
372.694	0.1239
373.025	0.1218
373.356	0.1209
373.688	0.1186
374.019	0.118
374.35	0.116
374.68	0.1151
375.011	0.1132
375.342	0.1119
375.673	0.1107
376.003	0.1086
376.334	0.1091
376.664	0.1068
376.995	0.1057
377.325	0.1047
377.655	0.1029
377.985	0.102
378.315	0.1009
378.645	0.1
378.975	0.0989
379.305	0.098
379.635	0.0973
379.964	0.0961
380.294	0.0953
380.623	0.0946
380.953	0.0936
381.282	0.0925
381.611	0.0917
381.941	0.091
382.27	0.0899
382.599	0.0892
382.928	0.0867
383.257	0.0869
383.585	0.0858
383.914	0.0841
384.243	0.083
384.571	0.0819
384.9	0.0809
385.228	0.079
385.557	0.0783
385.885	0.0768
386.213	0.0758
386.541	0.0749
386.869	0.0741
387.197	0.0723
387.525	0.0707
387.853	0.0704
388.181	0.0693
388.508	0.0683
388.836	0.0671
389.164	0.0661
389.491	0.0651
389.818	0.0638
390.146	0.0641
390.473	0.0631
390.8	0.0627
391.127	0.0606
391.454	0.0602
391.781	0.0597
392.108	0.0592
392.435	0.0576
392.761	0.0577
393.088	0.0568
393.415	0.0565
393.741	0.0557
394.067	0.0564
394.394	0.0548
394.72	0.0534
395.046	0.0526
395.372	0.0528
395.698	0.0517
396.024	0.0502
396.35	0.0504
396.676	0.05
397.001	0.0486
397.327	0.048
397.653	0.0479
397.978	0.0468
398.303	0.0458
398.629	0.0455
398.954	0.0455
399.279	0.0452
399.604	0.0443
399.929	0.0442
400.254	0.043
400.579	0.0428
400.904	0.0421
401.229	0.0417
401.553	0.0415
401.878	0.0411
402.202	0.0405
402.527	0.0402
402.851	0.0404
403.175	0.0385
403.5	0.0386
403.824	0.0383
404.148	0.0381
404.472	0.0378
404.796	0.0378
405.119	0.0377
405.443	0.0376
405.767	0.037
406.09	0.0372
406.414	0.0363
406.737	0.0367
407.061	0.0369
407.384	0.0361
407.707	0.036
408.03	0.0357
408.353	0.0352
408.676	0.0357
408.999	0.0351
409.322	0.0351
409.645	0.0352
409.968	0.0352
410.29	0.0347
410.613	0.0348
410.935	0.0337
411.258	0.0343
411.58	0.0339
411.902	0.0344
412.224	0.0344
412.546	0.0344
412.868	0.035
413.19	0.0342
413.512	0.0341
413.834	0.035
414.156	0.0342
414.477	0.0337
414.799	0.0345
415.121	0.0332
415.442	0.0338
415.763	0.0334
416.085	0.034
416.406	0.0333
416.727	0.034
417.048	0.0338
417.369	0.0336
417.69	0.0336
418.011	0.0337
418.331	0.0335
418.652	0.0342
418.973	0.0329
419.293	0.0332
419.614	0.0326
419.934	0.0341
420.254	0.0336
420.574	0.0326
420.895	0.0333
421.215	0.033
421.535	0.0335
421.855	0.0327
422.174	0.032
422.494	0.0333
422.814	0.0331
423.134	0.0333
423.453	0.0334
423.773	0.0339
424.092	0.0331
424.411	0.0338
424.731	0.0334
425.05	0.0337
425.369	0.0334
425.688	0.0332
426.007	0.0333
426.326	0.0332
426.644	0.0328
426.963	0.0334
427.282	0.0332
427.6	0.0332
427.919	0.0331
428.237	0.0332
428.556	0.0342
428.874	0.0334
429.192	0.0333
429.51	0.0331
429.828	0.0334
430.146	0.0331
430.464	0.0327
430.782	0.0328
431.1	0.0324
431.418	0.0334
431.735	0.033
432.053	0.0333
432.37	0.0335
432.688	0.033
433.005	0.0324
433.322	0.0338
433.639	0.0332
433.957	0.0329
434.274	0.034
434.591	0.0333
434.907	0.0331
435.224	0.033
435.541	0.0336
435.858	0.0339
436.174	0.0344
436.491	0.0326
436.807	0.0327
437.124	0.0329
437.44	0.0327
437.756	0.0327
438.072	0.0323
438.388	0.0329
438.704	0.0328
439.02	0.032
439.336	0.033
439.652	0.0328
439.968	0.0327
440.283	0.0333
440.599	0.0332
440.914	0.0326
441.23	0.0326
441.545	0.0323
441.86	0.0329
442.175	0.0331
442.491	0.0323
442.806	0.0325
443.121	0.0318
443.435	0.0317
443.75	0.0315
444.065	0.0319
444.38	0.0323
444.694	0.032
445.009	0.0314
445.323	0.0316
445.638	0.032
445.952	0.0314
446.266	0.0309
446.58	0.0306
446.894	0.0313
447.208	0.0309
447.522	0.0302
447.836	0.0312
448.15	0.0304
448.464	0.0301
448.777	0.031
449.091	0.0309
449.404	0.0305
449.718	0.03
450.031	0.0302
450.345	0.0298
450.658	0.0291
450.971	0.0302
451.284	0.0304
451.597	0.0304
451.91	0.0295
452.223	0.0299
452.535	0.0291
452.848	0.0293
453.161	0.0294
453.473	0.0293
453.786	0.0294
454.098	0.0294
454.411	0.0293
454.723	0.0291
455.035	0.0289
455.347	0.0282
455.659	0.029
455.971	0.0291
456.283	0.0296
456.595	0.0289
456.907	0.0294
457.218	0.029
457.53	0.0269
457.841	0.0276
458.153	0.0274
458.464	0.0271
458.776	0.0282
459.087	0.028
459.398	0.0276
459.709	0.0265
460.02	0.0278
460.331	0.0279
460.642	0.0273
460.953	0.0261
461.263	0.0275
461.574	0.026
461.885	0.0268
462.195	0.0266
462.506	0.0262
462.816	0.0275
463.126	0.0265
463.437	0.0257
463.747	0.0252
464.057	0.0246
464.367	0.0247
464.677	0.0252
464.987	0.0249
465.296	0.0244
465.606	0.0247
465.916	0.024
466.225	0.0242
466.535	0.0235
466.844	0.025
467.154	0.0241
467.463	0.0244
467.772	0.0242
468.081	0.0239
468.39	0.0235
468.699	0.0235
469.008	0.0239
469.317	0.0238
469.626	0.0236
469.935	0.0224
470.243	0.0239
470.552	0.0226
470.86	0.0228
471.169	0.0225
471.477	0.0217
471.785	0.0216
472.093	0.0212
472.402	0.021
472.71	0.0213
473.018	0.0209
473.326	0.0212
473.633	0.0213
473.941	0.0203
474.249	0.021
474.556	0.0201
474.864	0.0208
475.171	0.0205
475.479	0.0199
475.786	0.0204
476.094	0.0197
476.401	0.0199
476.708	0.0195
477.015	0.019
477.322	0.0191
477.629	0.0187
477.936	0.0197
478.242	0.0178
478.549	0.0193
478.856	0.0186
479.162	0.0183
479.469	0.0183
479.775	0.0174
480.081	0.0168
480.388	0.0172
480.694	0.0172
481	0.0168
481.306	0.0166
481.612	0.0171
481.918	0.0184
482.224	0.0174
482.53	0.0178
482.835	0.0172
483.141	0.0171
483.446	0.0166
483.752	0.0162
484.057	0.0162
484.363	0.0156
484.668	0.0159
484.973	0.0149
485.278	0.0148
485.583	0.0146
485.888	0.0146
486.193	0.013
486.498	0.0151
486.803	0.0156
487.107	0.0138
487.412	0.0127
487.717	0.014
488.021	0.0147
488.325	0.013
488.63	0.0139
488.934	0.0137
489.238	0.0131
489.542	0.0139
489.846	0.0135
490.15	0.0122
490.454	0.0139
490.758	0.0126
491.062	0.0135
491.366	0.0127
491.669	0.0125
491.973	0.0127
492.276	0.0127
492.58	0.0117
492.883	0.0129
493.186	0.0123
493.489	0.0126
493.792	0.0114
494.096	0.0116
494.399	0.0118
494.701	0.0109
495.004	0.0104
495.307	0.0109
495.61	0.0117
495.912	0.0121
496.215	0.0112
496.517	0.0121
496.82	0.01
497.122	0.0103
497.424	0.0104
497.727	0.0101
498.029	0.0098
498.331	0.0095
498.633	0.0095
498.935	0.0096
499.237	0.01
499.538	0.0099
499.84	0.0095
500.142	0.0094
500.443	0.0097
500.745	0.0091
501.046	0.0091
501.348	0.008
501.649	0.0081
501.95	0.008
502.251	0.0092
502.552	0.0079
502.853	0.0081
503.154	0.0089
503.455	0.0082
503.756	0.0087
504.057	0.0076
504.357	0.0083
504.658	0.0072
504.958	0.007
505.259	0.0079
505.559	0.0066
505.859	0.0072
506.16	0.0068
506.46	0.0078
506.76	0.0065
507.06	0.0058
507.36	0.0067
507.66	0.007
507.96	0.0089
508.259	0.0071
508.559	0.0068
508.859	0.0066
509.158	0.0075
509.457	0.0058
509.757	0.0064
510.056	0.0065
510.355	0.0061
510.655	0.0063
510.954	0.0059
511.253	0.0057
511.552	0.0066
511.851	0.0055
512.149	0.0052
512.448	0.0053
512.747	0.0057
513.045	0.005
513.344	0.0057
513.642	0.006
513.941	0.006
514.239	0.0057
514.537	0.0047
514.836	0.0049
515.134	0.0047
515.432	0.0044
515.73	0.005
516.028	0.0055
516.326	0.0049
516.623	0.0041
516.921	0.0042
517.219	0.0055
517.516	0.0036
517.814	0.0052
518.111	0.005
518.409	0.0043
518.706	0.0046
519.003	0.0045
519.3	0.0038
519.597	0.0044
519.894	0.0036
520.191	0.0049
520.488	0.0057
520.785	0.0036
521.082	0.0042
521.378	0.0047
521.675	0.0031
521.971	0.0039
522.268	0.0049
522.564	0.0044
522.861	0.0049
523.157	0.005
523.453	0.0043
523.749	0.0039
524.045	0.0034
524.341	0.0043
524.637	0.0037
524.933	0.0045
525.229	0.0044
525.524	0.0029
525.82	0.0045
526.115	0.0052
526.411	0.0033
526.706	0.0043
527.002	0.0036
527.297	0.003
527.592	0.0046
527.887	0.0029
528.182	0.0028
528.477	0.0029
528.772	0.0039
529.067	0.0036
529.362	0.0034
529.657	0.0037
529.951	0.0026
530.246	0.0029
530.54	0.0033
530.835	0.003
531.129	0.0035
531.423	0.002
531.718	0.0029
532.012	0.0035
532.306	0.0038
532.6	0.0035
532.894	0.0026
533.188	0.0026
533.482	0.0019
533.775	0.0022
534.069	0.0031
534.363	0.0027
534.656	0.0032
534.95	0.0033
535.243	0.002
535.536	0.0022
535.83	0.0024
536.123	0.0019
536.416	0.002
536.709	0.003
537.002	0.0035
537.295	0.003
537.588	0.003
537.881	0.0019
538.173	0.0037
538.466	0.0024
538.759	0.0029
539.051	0.0023
539.344	0.0029
539.636	0.0027
539.928	0.0043
540.22	0.0019
540.513	0.0037
540.805	0.0041
541.097	0.0041
541.389	0.0034
541.681	0.0038
541.972	0.0032
542.264	0.0035
542.556	0.0038
542.847	0.0032
543.139	0.0034
543.431	0.0028
543.722	0.0028
544.013	0.0026
544.305	0.0022
544.596	0.0035
544.887	0.0041
545.178	0.0045
545.469	0.0033
545.76	0.0038
546.051	0.0037
546.342	0.004
546.632	0.0031
546.923	0.0028
547.214	0.0019
547.504	0.0035
547.795	0.0031
548.085	0.0024
548.375	0.0039
548.666	0.0039
548.956	0.003
549.246	0.0042
549.536	0.0038
549.826	0.0045
550.116	0.0046
550.406	0.0041
550.695	0.0028
550.985	0.0039
551.275	0.0039
551.564	0.0054
551.854	0.0044
552.143	0.0043
552.433	0.0035
552.722	0.0033
553.011	0.0041
553.3	0.0033
553.589	0.0044
553.879	0.0042
554.167	0.004
554.456	0.0046
554.745	0.0039
555.034	0.0046
555.323	0.0036
555.611	0.0029
555.9	0.0032
556.188	0.003
556.477	0.0031
556.765	0.0039
557.053	0.0035
557.342	0.004
557.63	0.0035
557.918	0.0042
558.206	0.0047
558.494	0.0043
558.782	0.0035
559.069	0.0047
559.357	0.0041
559.645	0.0043
559.932	0.0041
560.22	0.0047
560.507	0.0026
560.795	0.002
561.082	0.0023
561.37	0.0037
561.657	0.0025
561.944	0.0029
562.231	0.0029
562.518	0.0032
562.805	0.0039
563.092	0.0024
563.379	0.0031
563.665	0.0027
563.952	0.0048
564.239	0.0048
564.525	0.0038
564.811	0.0034
565.098	0.0032
565.384	0.0034
565.67	0.0034
565.957	0.0032
566.243	0.0035
566.529	0.0039
566.815	0.0039
567.101	0.0038
567.387	0.0032
567.672	0.0031
567.958	0.0031
568.244	0.0018
568.529	0.0027
568.815	0.0025
569.1	0.0032
569.386	0.004
569.671	0.0027
569.956	0.002
570.242	0.0029
570.527	0.0024
570.812	0.0025
571.097	0.002
571.382	0.0013
571.666	0.0024
571.951	0.0029
572.236	0.0025
572.521	0.0031
572.805	0.004
573.09	0.0035
573.374	0.0018
573.659	0.0022
573.943	0.0029
574.227	0.0028
574.511	0.0033
574.795	0.0037
575.079	0.0033
575.363	0.0027
575.647	0.0028
575.931	0.0029
576.215	0.0032
576.499	0.0024
576.782	0.0026
577.066	0.0021
577.349	0.003
577.633	0.0035
577.916	0.0022
578.2	0.0033
578.483	0.0029
578.766	0.004
579.049	0.0028
579.332	0.0039
579.615	0.003
579.898	0.0016
580.181	0.003
580.464	0.0031
580.746	0.0029
581.029	0.0031
581.312	0.0021
581.594	0.0016
581.877	0.0022
582.159	0.0038
582.441	0.0023
582.724	0.0038
583.006	0.0036
583.288	0.0035
583.57	0.0031
583.852	0.0035
584.134	0.0038
584.416	0.003
584.697	0.0031
584.979	0.0023
585.261	0.0022
585.542	0.0032
585.824	0.0034
586.105	0.0036
586.387	0.0036
586.668	0.0031
586.949	0.0037
587.231	0.0038
587.512	0.0024
587.793	0.0028
588.074	0.003
588.355	0.003
588.636	0.0023
588.916	0.0029
589.197	0.0022
589.478	0.003
589.758	0.0025
590.039	0.0021
590.319	0.0024
590.6	0.0027
590.88	0.0029
591.16	0.0022
591.441	0.0035
591.721	0.0023
592.001	0.0023
592.281	0.0022
592.561	0.003
592.841	0.0029
593.12	0.0022
593.4	0.0029
593.68	0.003
593.959	0.0024
594.239	0.0031
594.518	0.0031
594.798	0.0035
595.077	0.0029
595.356	0.0021
595.636	0.0027
595.915	0.0021
596.194	0.0023
596.473	0.0024
596.752	0.0028
597.031	0.0032
597.31	0.0022
597.588	0.002
597.867	0.002
598.146	0.0016
598.424	0.0014
598.703	0.0021
598.981	0.0012
599.259	0.0014
599.538	0.0031
599.816	0.0037
600.094	0.0022
600.372	0.0024
600.65	0.0036
600.928	0.0034
601.206	0.0025
601.484	0.0031
601.762	0.0041
602.04	0.0038
602.317	0.0031
602.595	0.0042
602.872	0.0041
603.15	0.0045
603.427	0.0014
603.704	0.0023
603.982	0.0022
604.259	0.0024
604.536	0.0019
604.813	0.002
605.09	0.0027
605.367	0.0016
605.644	0.0017
605.921	0.0013
606.197	0.0015
606.474	0.0027
606.751	0.0012
607.027	0.0027
607.304	0.0025
607.58	0.0025
607.856	0.0032
608.133	0.0034
608.409	0.004
608.685	0.0033
608.961	0.0034
609.237	0.0038
609.513	0.0041
609.789	0.0027
610.065	0.0019
610.341	0.0018
610.616	0.0026
610.892	0.0019
611.167	0.003
611.443	0.0038
611.718	0.0033
611.994	0.003
612.269	0.0025
612.544	0.0021
612.819	0.002
613.095	0.0023
613.37	0.0016
613.645	0.0008
613.919	0.0023
614.194	0.0027
614.469	0.0025
614.744	0.0019
615.019	0.001
615.293	0.0016
615.568	0.0016
615.842	0.0011
616.116	0.0009
616.391	0.0016
616.665	0.0006
616.939	0.0009
617.213	0.0021
617.488	0.0026
617.762	0.002
618.035	0.0025
618.309	0.0024
618.583	0.0032
618.857	0.0033
619.131	0.0024
619.404	0.0026
619.678	0.0029
619.951	0.0024
620.225	0.0011
620.498	0.0022
620.771	0.0024
621.045	0.0026
621.318	0.0029
621.591	0.0021
621.864	0.001
622.137	0.0013
622.41	0.0011
622.683	0.0008
622.956	0.0005
623.228	0.001
623.501	0.0019
623.774	0.0024
624.046	0.0023
624.319	0.0012
624.591	0.0013
624.863	0.0015
625.136	0.0024
625.408	0.0037
625.68	0.0032
625.952	0.002
626.224	0.0026
626.496	0.003
626.768	0.0029
627.04	0.0028
627.311	0.0019
627.583	0.0027
627.855	0.0027
628.126	0.0012
628.398	0.0017
628.669	0.0018
628.941	0.0006
629.212	0.0001
629.483	0.0014
629.755	0.001
630.026	0.0018
630.297	0.001
630.568	0.0009
630.839	0.0024
631.11	0.0018
631.38	0.0028
631.651	0.0024
631.922	0.0022
632.192	0.0017
632.463	0.002
632.733	0.0016
633.004	0.0019
633.274	0.0017
633.545	0.0012
633.815	0.0022
634.085	0.0026
634.355	0.0021
634.625	0.0019
634.895	0.0014
635.165	0.0011
635.435	0.0026
635.705	0.0013
635.974	0.0015
636.244	0.0012
636.514	-0.0003
636.783	0.0005
637.053	0.0005
637.322	0.0003
637.591	0.0005
637.861	-0
638.13	0.0004
638.399	0.0019
638.668	0.0009
638.937	0.0022
639.206	0.0019
639.475	0.0026
639.744	0.0024
640.013	0.0016
640.281	0.0016
640.55	0.0011
640.819	0.0011
641.087	0.0016
641.356	0.0017
641.624	0.0021
641.892	0.0025
642.161	0.0022
642.429	0.0011
642.697	0.0017
642.965	0.0014
643.233	-0.0002
643.501	-0.0005
643.769	-0
644.037	0.0004
644.305	0.0002
644.572	-0.0004
644.84	0.0001
645.108	0.002
645.375	0.001
645.643	0.0016
645.91	0.0018
646.177	0.0015
646.445	0.0012
646.712	0.0012
646.979	0.0018
647.246	0.0023
647.513	0.0015
647.78	0.0015
648.047	-0.0005
648.314	0.0002
648.58	-0.0013
648.847	-0.0009
649.114	-0.0025
649.38	-0.0015
649.647	-0.0007
649.913	-0.0004
650.18	0.0007
650.446	0.0013
650.712	0.0022
650.978	0.002
651.245	0.0023
651.511	0.0026
651.777	0.0025
652.043	0.0013
652.309	0.0014
652.574	0.0013
652.84	0.0026
653.106	0.0023
653.371	0.0029
653.637	0.0024
653.903	0.002
654.168	0.0023
654.433	0.0023
654.699	0.0014
654.964	0.0001
655.229	0.0013
655.494	0.0011
655.759	-0.0012
656.024	0.0009
656.289	-0
656.554	0.0028
656.819	0.0031
657.084	0.0028
657.349	0.002
657.613	0.0017
657.878	0.001
658.142	0.0009
658.407	0.0004
658.671	0.0018
658.936	0.002
659.2	0.0026
659.464	0.0021
659.728	0.0016
659.992	0.0003
660.256	-0.0001
660.52	0.0003
660.784	0.0002
661.048	-0.0001
661.312	0.0001
661.575	0.0006
661.839	0.0016
662.103	0.0011
662.366	0.0003
662.63	0.0014
662.893	0.0017
663.156	0.0015
663.42	0.0023
663.683	0.0011
663.946	0.0021
664.209	0.0029
664.472	0.0017
664.735	0.0016
664.998	0.0025
665.261	0.0036
665.524	0.0029
665.786	0.0025
666.049	0.0017
666.312	0.0035
666.574	0.0018
666.837	0.0032
667.099	0.0022
667.361	0.0036
667.624	0.0036
667.886	0.003
668.148	0.0031
668.41	0.0026
668.672	0.0024
668.934	0.0031
669.196	0.0029
669.458	0.0011
669.72	0.001
669.982	0.0005
670.243	0.0015
670.505	0.0017
670.766	0.001
671.028	0.0025
671.289	0.0025
671.551	0.0024
671.812	0.0009
672.073	0.0021
672.334	0.0017
672.596	0.0008
672.857	0.0014
673.118	0.0027
673.379	0.0034
673.639	0.0023
673.9	0.0019
674.161	0.0014
674.422	0.0017
674.682	0.0019
674.943	-0
675.203	0.0009
675.464	0.0011
675.724	0.0013
675.985	0.0015
676.245	0.0013
676.505	0.0001
676.765	-0.0001
677.025	0.001
677.285	0.0007
677.545	0.0006
677.805	0.0008
678.065	0.0014
678.325	0.002
678.585	0.0034
678.844	0.0028
679.104	0.0041
679.363	0.0046
679.623	0.0046
679.882	0.0039
680.142	0.0041
680.401	0.0042
680.66	0.0054
680.919	0.0031
681.178	0.0049
681.437	0.0033
681.696	0.0029
681.955	0.0053
682.214	0.0054
682.473	0.005
682.732	0.0035
682.99	0.0044
683.249	0.0036
683.508	0.0033
683.766	0.0035
684.024	0.0027
684.283	0.001
684.541	0.0014
684.799	0.0012
685.058	-0.0005
685.316	-0.0015
685.574	-0.0016
685.832	-0.0004
686.09	-0.0002
686.348	-0.0012
686.606	-0.0014
686.863	-0.0016
687.121	-0.0012
687.379	-0.002
687.636	-0.0027
687.894	-0.0013
688.151	-0.0016
688.409	-0.0006
688.666	-0.0006
688.923	0.0005
689.181	-0.0002
689.438	-0.0001
689.695	0.0001
689.952	-0.0005
690.209	-0.0002
690.466	0.0001
690.723	0.0002
690.979	-0
691.236	-0.0013
691.493	-0.0017
691.75	-0.0001
692.006	-0.0005
692.263	-0.0011
692.519	-0.0009
692.775	-0.0022
693.032	-0.0026
693.288	-0.0033
693.544	-0.0025
693.8	-0.0005
694.056	-0.0017
694.313	-0.002
694.568	-0.0006
694.824	-0.0007
695.08	-0
695.336	-0.0003
695.592	-0.0009
695.847	0.0013
696.103	0.0019
696.359	0.0022
696.614	0.0017
696.869	0.0008
697.125	-0.0016
697.38	-0.001
697.635	0.0002
697.891	0.0019
698.146	0.0013
698.401	0.0015
698.656	0.0009
698.911	0.0021
699.166	0.0016
699.42	0.0025
699.675	0.0022
699.93	0.003
700.185	0.0021
700.439	0.0017
700.694	0.0013
700.948	0.0021
701.203	0.0028
701.457	0.0021
701.711	0.002
701.965	0.001
702.22	0.0007
702.474	0.0008
702.728	0.0003
702.982	0.001
703.236	0.0011
703.49	0.0018
703.743	0.0012
703.997	0.0005
704.251	0.0007
704.504	0.0017
704.758	0.0018
705.012	0.0036
705.265	0.0033
705.518	0.003
705.772	0.0036
706.025	0.0036
706.278	0.0022
706.531	0.0013
706.785	-0.0001
707.038	-0.0006
707.291	0.0002
707.543	-0.0002
707.796	0.0005
708.049	0.0008
708.302	0.0001
708.555	-0.0001
708.807	0.0007
709.06	0.001
709.312	0.0014
709.565	0.0018
709.817	0.0038
710.069	0.002
710.322	0.0022
710.574	0.0025
710.826	0.0015
711.078	0.0016
711.33	0.0011
711.582	0.0016
711.834	0.0006
712.086	0.0021
712.338	0.001
712.59	0.0006
712.841	-0.0009
713.093	-0.0002
713.344	0.0005
713.596	-0.0003
713.847	-0.0016
714.099	-0.0009
714.35	-0.0002
714.601	-0.0017
714.853	-0.0026
715.104	-0.0018
715.355	-0.002
715.606	-0.0004
715.857	0.0001
716.108	0.0013
716.359	0.002
716.609	-0.0003
716.86	0.0013
717.111	-0.0001
717.361	-0.0002
717.612	-0.0001
717.863	0.0008
718.113	0.0012
718.363	0.0007
718.614	0.0014
718.864	0.0018
719.114	0.001
719.364	0.0002
719.614	-0
719.865	0.0001
720.114	0.001
720.364	0.0007
720.614	-0.0005
720.864	0.0002
721.114	-0.0009
721.364	-0.0005
721.613	-0.0012
721.863	-0.0004
722.112	-0.0006
722.362	-0.0004
722.611	0.0002
722.86	0.0008
723.11	0.0013
723.359	0.002
723.608	0.0019
723.857	0.0032
724.106	0.0023
724.355	0.0023
724.604	0.0018
724.853	0.0011
725.102	-0.0008
725.351	-0.0014
725.599	-0.0029
725.848	-0.0024
726.097	-0.0008
726.345	-0.0006
726.594	-0
726.842	0.0007
727.09	0
727.339	-0.0001
727.587	-0.0013
727.835	-0.0023
728.083	-0.0023
728.331	-0.0024
728.579	-0.0011
728.827	-0.002
729.075	-0.0025
729.323	-0.0022
729.571	-0.0024
729.818	-0.0026
730.066	-0.0022
730.314	-0.0022
730.561	-0.0019
730.809	-0.0038
731.056	-0.003
731.303	-0.0026
731.551	-0.0027
731.798	-0.0024
732.045	-0.0006
732.292	-0.0014
732.539	-0.0018
732.786	-0.0022
733.033	-0.0024
733.28	-0.0015
733.527	-0.002
733.774	-0.0026
734.021	-0.0025
734.267	-0.0017
734.514	-0.0025
734.76	-0.0021
735.007	-0.0016
735.253	-0.0008
735.5	0.0013
735.746	0.0026
735.992	0.0017
736.238	0.0025
736.485	0.002
736.731	0.002
736.977	0.0004
737.223	-0.0002
737.469	-0.0008
737.715	0.0008
737.96	0.0006
738.206	-0.0002
738.452	0.0004
738.697	-0.0003
738.943	-0.0013
739.189	-0
739.434	-0.0006
739.679	0.0006
739.925	0.002
740.17	0.0031
740.415	0.0016
740.66	0.0024
740.906	0.0019
741.151	0.0015
741.396	0.0007
741.641	0.0003
741.886	0.0009
742.13	-0.0005
742.375	0.0016
742.62	0.0007
742.865	0.0008
743.109	0.0023
743.354	0.0009
743.598	0.0004
743.843	-0.0005
744.087	-0.001
744.331	-0.0014
744.576	-0.0008
744.82	-0.0006
745.064	-0.0003
745.308	0.0009
745.552	0.0008
745.796	-0.0004
746.04	-0.0003
746.284	-0.0009
746.528	-0.0005
746.771	-0.0002
747.015	0.0006
747.259	-0.0016
747.502	-0.002
747.746	-0.0002
747.989	0.0008
748.233	0.0015
748.476	0.0011
748.719	0.0006
748.963	0.001
749.206	0.0003
749.449	0.0001
749.692	0.0002
749.935	-0
750.178	-0
750.421	-0.0013
750.664	-0.0003
750.906	-0.0003
751.149	-0.0017
751.392	-0.0009
751.635	-0.0011
751.877	-0.001
752.12	-0.001
752.362	0.0005
752.604	0.0005
752.847	0.0003
753.089	0.0009
753.331	-0.0013
753.573	-0.0009
753.816	-0.0001
754.058	-0.0003
754.3	0.0002
754.542	0.0012
754.783	0.0014
755.025	0.0012
755.267	0.0006
755.509	0.0011
755.75	-0.0003
755.992	0.0009
756.234	0.0012
756.475	0.0014
756.716	0.0004
756.958	-0.0001
757.199	0.0005
757.44	0.0014
757.682	-0.0006
757.923	0.001
758.164	0.0013
758.405	0.0007
758.646	0.0009
758.887	-0.0009
759.128	-0.001
759.369	-0.0014
759.609	-0.0014
759.85	-0.001
760.091	-0.0006
760.331	-0
760.572	0.0003
760.812	-0.0009
761.053	0.0002
761.293	0.0008
761.533	0.001
761.774	0.0009
762.014	0.0014
762.254	0.0002
762.494	0.001
762.734	0.0004
762.974	0.0007
763.214	0.0006
763.454	0.0007
763.694	0.0013
763.933	0.0027
764.173	0.0043
764.413	0.0029
764.652	0.0007
764.892	0.0005
765.131	0.0001
765.371	0.0003
765.61	-0.0009
765.849	-0.0017
766.089	-0.002
766.328	-0.001
766.567	-0.0029
766.806	-0.0023
767.045	-0.0032
767.284	-0.0022
767.523	-0.0027
767.762	-0.0023
768.001	-0.0024
768.239	-0.0015
768.478	-0.0017
768.717	-0.0025
768.955	-0.002
769.194	-0.0016
769.432	-0.0007
769.671	-0.0015
769.909	-0.0005
770.148	-0.001
770.386	-0.0012
770.624	-0.0009
770.862	-0.0014
771.1	-0.0013
771.338	-0.0016
771.576	-0.0021
771.814	-0.0003
772.052	-0.0002
772.29	0.0006
772.528	-0.0004
772.765	-0.001
773.003	-0.0005
773.24	-0.0002
773.478	0.0005
773.716	0.0014
773.953	0.0012
774.19	0.0009
774.428	0.0021
774.665	0.003
774.902	0.0026
775.139	0.002
775.376	0.0006
775.613	0.0008
775.85	0.0018
776.087	0.0011
776.324	0.0007
776.561	-0.0008
776.798	-0.0002
777.034	-0.0006
777.271	0.0002
777.508	0.0003
777.744	0.0013
777.981	0.0004
778.217	0.0002
778.454	-0.0003
778.69	-0.0009
778.926	-0.0001
779.162	-0.0006
779.399	0.0002
779.635	0
779.871	-0.0001
780.107	-0.0013
780.343	-0.0019
780.579	-0.0011
780.814	-0.0008
781.05	-0.0008
781.286	-0.002
781.522	-0.0014
781.757	-0.0017
781.993	-0.0011
782.228	-0.0011
782.464	-0.0002
782.699	-0.0007
782.934	-0.0007
783.17	-0.0006
783.405	0.001
783.64	-0.0005
783.875	-0.0009
784.11	-0.0006
784.345	-0.0001
784.58	-0.0004
784.815	-0.0004
785.05	-0.0011
785.285	-0.001
785.52	-0.0007
785.754	-0.0005
785.989	0.0007
786.223	0.0025
786.458	0.0032
786.692	0.0039
786.927	0.0049
787.161	0.0039
787.396	0.0043
787.63	0.0039
787.864	0.0024
788.098	0.0009
788.332	0.0008
788.566	0.0001
788.8	-0.0005
789.034	-0
789.268	-0.0012
789.502	-0.0014
789.736	-0.0007
789.969	-0.0007
790.203	-0
790.437	0.0004
790.67	0.0005
790.904	0.0021
791.137	0.0019
791.37	0.0029
791.604	0.0027
791.837	0.0028
792.07	0.0037
792.303	0.0045
792.537	0.005
792.77	0.0049
793.003	0.0039
793.236	0.0031
793.469	0.0033
793.701	0.0026
793.934	0.002
794.167	0.001
794.4	0.0006
794.632	0
794.865	0.0001
795.097	-0.0014
795.33	-0.0003
795.562	-0.0006
795.795	-0.0002
796.027	-0.0002
796.259	0.0011
796.491	0.001
796.724	0.0007
796.956	0.0013
797.188	0.0018
797.42	0.0017
797.652	0.0018
797.883	0.0026
798.115	0.0031
798.347	0.0018
798.579	0.0019
798.81	0.0023
799.042	0.0026
799.274	0.0033
799.505	0.0032
799.737	0.0029
799.968	0.0026
800.199	0.003
800.431	0.0034
800.662	0.0021
800.893	0.0031
801.124	0.0027
801.355	0.0033
801.586	0.0036
801.817	0.0054
802.048	0.0048
802.279	0.0041
802.51	0.0052
802.741	0.0054
802.971	0.0052
803.202	0.0044
803.433	0.0044
803.663	0.0031
803.894	0.0035
804.124	0.0035
804.354	0.0046
804.585	0.0052
804.815	0.0057
805.045	0.0067
805.275	0.0049
805.506	0.047
805.736	-0.2268
805.966	-0.2598
806.196	-0.1775
