Data from 03 0.4 mM K2Cr2O7 0.25 M BQDS 1 M H2SO4 5 min_Absorbance_0257.txt Node
Date: Wed Dec 15 14:55:12 EST 2021
User: kwabilab-user
Spectrometer: HDX00518
Trigger mode: 0
Integration Time (sec): 5.000000E-2
Scans to average: 50
Nonlinearity correction enabled: false
Boxcar width: 0
Storing dark spectrum: false
XAxis mode: Wavelengths
Number of Pixels in Spectrum: 2068
>>>>>Begin Spectral Data<<<<<
195.27	-0.2367
195.642	0.0288
196.014	-0.1949
196.386	-0.1617
196.758	-0.056
197.129	-0.0089
197.501	-0.0226
197.872	0.0093
198.244	0.0186
198.615	0.0181
198.986	0.0222
199.357	0.0373
199.728	0.0304
200.099	0.0038
200.47	0.0393
200.841	0.0179
201.212	0.0207
201.582	0.0277
201.953	0.0337
202.323	0.0323
202.694	0.0202
203.064	-0.0015
203.434	0.0004
203.804	0.0186
204.174	0.0166
204.544	0.0132
204.914	0.0018
205.284	0.0123
205.653	0.0053
206.023	0.0091
206.393	0.0247
206.762	0.0062
207.131	0.0266
207.501	0.0291
207.87	0.014
208.239	0.0044
208.608	0.0269
208.977	0.0131
209.346	0.0149
209.715	0.0228
210.083	0.0246
210.452	0.018
210.82	0.0383
211.189	0.0073
211.557	0.0127
211.925	0.0173
212.294	-0.0072
212.662	0.0304
213.03	0.0198
213.398	0.0103
213.766	0.0021
214.133	0.0192
214.501	0.02
214.869	0.0078
215.236	0.0198
215.604	0.0324
215.971	0.0408
216.338	0.0097
216.705	0.0346
217.072	0.0496
217.439	0.0283
217.806	0.0394
218.173	0.0567
218.54	0.0498
218.907	0.0512
219.273	0.0529
219.64	0.0585
220.006	0.0747
220.373	0.0782
220.739	0.0988
221.105	0.1359
221.471	0.1249
221.837	0.1501
222.203	0.1851
222.569	0.1736
222.935	0.1921
223.3	0.2236
223.666	0.2387
224.031	0.2774
224.397	0.2909
224.762	0.3023
225.127	0.3442
225.493	0.3621
225.858	0.3742
226.223	0.406
226.588	0.4222
226.952	0.443
227.317	0.4678
227.682	0.4628
228.046	0.4698
228.411	0.5159
228.775	0.5137
229.14	0.522
229.504	0.531
229.868	0.5416
230.232	0.5554
230.596	0.562
230.96	0.5771
231.324	0.5744
231.688	0.58
232.052	0.5912
232.415	0.5836
232.779	0.5933
233.142	0.5966
233.505	0.6084
233.869	0.5973
234.232	0.6023
234.595	0.5973
234.958	0.5997
235.321	0.5961
235.684	0.597
236.047	0.5937
236.409	0.5936
236.772	0.5876
237.134	0.5856
237.497	0.5775
237.859	0.5816
238.222	0.5786
238.584	0.576
238.946	0.568
239.308	0.5701
239.67	0.5581
240.032	0.5618
240.393	0.5503
240.755	0.5519
241.117	0.5498
241.478	0.5392
241.84	0.5416
242.201	0.5305
242.562	0.5338
242.924	0.5317
243.285	0.5119
243.646	0.5155
244.007	0.5229
244.368	0.5144
244.728	0.5095
245.089	0.5109
245.45	0.5095
245.81	0.5046
246.171	0.5017
246.531	0.5017
246.891	0.4957
247.252	0.4912
247.612	0.4958
247.972	0.497
248.332	0.489
248.692	0.4884
249.051	0.4843
249.411	0.4827
249.771	0.485
250.13	0.4819
250.49	0.4826
250.849	0.4771
251.208	0.4744
251.568	0.4756
251.927	0.4708
252.286	0.4776
252.645	0.4708
253.004	0.4732
253.363	0.4673
253.721	0.4713
254.08	0.4687
254.439	0.4644
254.797	0.4594
255.155	0.4603
255.514	0.461
255.872	0.465
256.23	0.4623
256.588	0.4612
256.946	0.466
257.304	0.4552
257.662	0.4631
258.02	0.455
258.377	0.4531
258.735	0.4532
259.093	0.4483
259.45	0.4537
259.807	0.4502
260.165	0.4513
260.522	0.453
260.879	0.448
261.236	0.4421
261.593	0.4423
261.95	0.4379
262.306	0.443
262.663	0.4387
263.02	0.4417
263.376	0.4346
263.733	0.4321
264.089	0.4366
264.445	0.43
264.802	0.4289
265.158	0.4283
265.514	0.4272
265.87	0.427
266.226	0.424
266.581	0.4206
266.937	0.4269
267.293	0.4214
267.648	0.4159
268.004	0.4143
268.359	0.4166
268.714	0.4091
269.07	0.4051
269.425	0.4086
269.78	0.4036
270.135	0.4052
270.49	0.4026
270.844	0.4044
271.199	0.4001
271.554	0.3949
271.908	0.3945
272.263	0.3937
272.617	0.3883
272.972	0.3863
273.326	0.3869
273.68	0.3815
274.034	0.3805
274.388	0.3793
274.742	0.3778
275.096	0.3735
275.45	0.3714
275.803	0.3708
276.157	0.364
276.51	0.3589
276.864	0.362
277.217	0.3589
277.571	0.3536
277.924	0.3507
278.277	0.3487
278.63	0.3432
278.983	0.3433
279.336	0.339
279.688	0.3364
280.041	0.3328
280.394	0.3267
280.746	0.3257
281.099	0.3214
281.451	0.3204
281.803	0.3161
282.156	0.3136
282.508	0.3112
282.86	0.3095
283.212	0.3034
283.564	0.3026
283.916	0.2962
284.267	0.2951
284.619	0.2933
284.971	0.2891
285.322	0.2862
285.673	0.2836
286.025	0.2801
286.376	0.2783
286.727	0.273
287.078	0.2714
287.429	0.269
287.78	0.2627
288.131	0.2605
288.482	0.2577
288.833	0.2546
289.183	0.2528
289.534	0.249
289.884	0.2474
290.235	0.2443
290.585	0.2415
290.935	0.237
291.285	0.2339
291.635	0.2315
291.985	0.2291
292.335	0.2259
292.685	0.2221
293.035	0.2183
293.384	0.2148
293.734	0.213
294.083	0.21
294.433	0.2086
294.782	0.2049
295.131	0.2013
295.48	0.2
295.829	0.1961
296.179	0.1939
296.527	0.1899
296.876	0.1881
297.225	0.184
297.574	0.1815
297.922	0.1792
298.271	0.1758
298.619	0.1739
298.968	0.1725
299.316	0.1691
299.664	0.1679
300.012	0.1635
300.36	0.1616
300.708	0.1603
301.056	0.1577
301.404	0.1544
301.752	0.1533
302.099	0.1508
302.447	0.149
302.794	0.1468
303.142	0.1446
303.489	0.1429
303.836	0.141
304.183	0.1393
304.531	0.1372
304.878	0.1353
305.224	0.1339
305.571	0.1326
305.918	0.1313
306.265	0.1287
306.611	0.1282
306.958	0.1271
307.304	0.1257
307.651	0.1246
307.997	0.1238
308.343	0.1218
308.689	0.1216
309.035	0.121
309.381	0.1197
309.727	0.1185
310.073	0.1183
310.419	0.1167
310.764	0.1169
311.11	0.1151
311.455	0.1147
311.801	0.1146
312.146	0.1136
312.491	0.1135
312.837	0.1127
313.182	0.1117
313.527	0.112
313.872	0.1114
314.216	0.1115
314.561	0.1114
314.906	0.1107
315.251	0.112
315.595	0.1112
315.94	0.1115
316.284	0.1108
316.628	0.1115
316.972	0.1114
317.317	0.1115
317.661	0.1121
318.005	0.1115
318.348	0.1129
318.692	0.1123
319.036	0.1127
319.38	0.1135
319.723	0.1132
320.067	0.114
320.41	0.1141
320.754	0.1149
321.097	0.1144
321.44	0.1154
321.783	0.116
322.126	0.1169
322.469	0.117
322.812	0.1192
323.155	0.1185
323.498	0.1191
323.84	0.1206
324.183	0.1212
324.525	0.122
324.868	0.1233
325.21	0.1233
325.552	0.1244
325.894	0.1253
326.236	0.1255
326.578	0.1263
326.92	0.1277
327.262	0.1276
327.604	0.1287
327.946	0.1299
328.287	0.1303
328.629	0.132
328.97	0.1328
329.312	0.1337
329.653	0.1344
329.994	0.1359
330.335	0.1365
330.676	0.1385
331.017	0.1377
331.358	0.1403
331.699	0.1407
332.04	0.1416
332.38	0.1432
332.721	0.1435
333.061	0.1442
333.402	0.1456
333.742	0.1465
334.083	0.1473
334.423	0.1479
334.763	0.149
335.103	0.1494
335.443	0.1508
335.783	0.1521
336.123	0.1524
336.462	0.1524
336.802	0.1539
337.141	0.1544
337.481	0.1554
337.82	0.1559
338.16	0.1577
338.499	0.1586
338.838	0.1588
339.177	0.1597
339.516	0.1604
339.855	0.1612
340.194	0.162
340.533	0.1621
340.872	0.1628
341.21	0.1639
341.549	0.1644
341.887	0.1647
342.226	0.1652
342.564	0.1654
342.902	0.1659
343.24	0.166
343.578	0.1669
343.916	0.1667
344.254	0.1678
344.592	0.1676
344.93	0.1679
345.268	0.1672
345.605	0.168
345.943	0.168
346.28	0.1683
346.618	0.1682
346.955	0.1685
347.292	0.1691
347.629	0.1684
347.966	0.169
348.303	0.1689
348.64	0.1694
348.977	0.1691
349.314	0.1691
349.65	0.169
349.987	0.1692
350.324	0.1683
350.66	0.1693
350.996	0.1691
351.333	0.1687
351.669	0.168
352.005	0.1682
352.341	0.1669
352.677	0.1662
353.013	0.1657
353.349	0.165
353.685	0.164
354.02	0.1637
354.356	0.1632
354.691	0.1622
355.027	0.1629
355.362	0.1606
355.697	0.1602
356.033	0.1602
356.368	0.1596
356.703	0.1583
357.038	0.1589
357.373	0.1574
357.707	0.1578
358.042	0.1567
358.377	0.1561
358.711	0.1554
359.046	0.1539
359.38	0.154
359.715	0.1535
360.049	0.152
360.383	0.1508
360.717	0.1501
361.051	0.1494
361.385	0.149
361.719	0.1471
362.053	0.1466
362.387	0.1445
362.72	0.1443
363.054	0.1431
363.387	0.1423
363.721	0.141
364.054	0.1403
364.387	0.1383
364.721	0.1375
365.054	0.1362
365.387	0.1342
365.72	0.1342
366.053	0.133
366.385	0.1311
366.718	0.1309
367.051	0.1297
367.383	0.1283
367.716	0.1289
368.048	0.127
368.381	0.1268
368.713	0.1249
369.045	0.1246
369.377	0.1235
369.709	0.123
370.041	0.1216
370.373	0.1206
370.705	0.1194
371.037	0.1186
371.368	0.1179
371.7	0.1154
372.031	0.1149
372.363	0.1137
372.694	0.1131
373.025	0.1112
373.356	0.1105
373.688	0.1093
374.019	0.1077
374.35	0.106
374.68	0.1042
375.011	0.1036
375.342	0.1027
375.673	0.1015
376.003	0.0995
376.334	0.099
376.664	0.0978
376.995	0.0966
377.325	0.0951
377.655	0.0942
377.985	0.0925
378.315	0.0922
378.645	0.0912
378.975	0.0904
379.305	0.0892
379.635	0.0887
379.964	0.0876
380.294	0.0875
380.623	0.0857
380.953	0.0849
381.282	0.0839
381.611	0.0833
381.941	0.0826
382.27	0.081
382.599	0.0814
382.928	0.0794
383.257	0.0788
383.585	0.078
383.914	0.0763
384.243	0.0754
384.571	0.074
384.9	0.0732
385.228	0.0722
385.557	0.0715
385.885	0.0698
386.213	0.0695
386.541	0.0677
386.869	0.0673
387.197	0.0661
387.525	0.0647
387.853	0.0635
388.181	0.0624
388.508	0.062
388.836	0.0608
389.164	0.06
389.491	0.0586
389.818	0.0576
390.146	0.0574
390.473	0.0563
390.8	0.0564
391.127	0.0549
391.454	0.0544
391.781	0.0536
392.108	0.0534
392.435	0.0519
392.761	0.0517
393.088	0.0512
393.415	0.0511
393.741	0.0506
394.067	0.0508
394.394	0.0496
394.72	0.0489
395.046	0.0474
395.372	0.0469
395.698	0.0468
396.024	0.0466
396.35	0.0459
396.676	0.0454
397.001	0.0438
397.327	0.0436
397.653	0.0431
397.978	0.0423
398.303	0.0413
398.629	0.0411
398.954	0.0407
399.279	0.0403
399.604	0.0392
399.929	0.0397
400.254	0.0384
400.579	0.0385
400.904	0.0383
401.229	0.0377
401.553	0.0371
401.878	0.0371
402.202	0.0373
402.527	0.0364
402.851	0.0365
403.175	0.0351
403.5	0.0354
403.824	0.0344
404.148	0.0351
404.472	0.0344
404.796	0.0345
405.119	0.0337
405.443	0.0339
405.767	0.0332
406.09	0.0333
406.414	0.0327
406.737	0.033
407.061	0.0329
407.384	0.0322
407.707	0.0325
408.03	0.032
408.353	0.0324
408.676	0.0321
408.999	0.0313
409.322	0.0315
409.645	0.0317
409.968	0.0317
410.29	0.032
410.613	0.0326
410.935	0.0308
411.258	0.0313
411.58	0.0307
411.902	0.0312
412.224	0.0309
412.546	0.0311
412.868	0.0319
413.19	0.0307
413.512	0.031
413.834	0.0309
414.156	0.0313
414.477	0.0307
414.799	0.0314
415.121	0.0304
415.442	0.0308
415.763	0.0303
416.085	0.0306
416.406	0.0305
416.727	0.0314
417.048	0.031
417.369	0.0308
417.69	0.0297
418.011	0.0307
418.331	0.0311
418.652	0.0306
418.973	0.0307
419.293	0.0307
419.614	0.0298
419.934	0.0313
420.254	0.0305
420.574	0.0299
420.895	0.0302
421.215	0.0298
421.535	0.0297
421.855	0.0299
422.174	0.0297
422.494	0.0295
422.814	0.0301
423.134	0.03
423.453	0.0303
423.773	0.0306
424.092	0.0306
424.411	0.0301
424.731	0.0298
425.05	0.0305
425.369	0.0304
425.688	0.0304
426.007	0.0306
426.326	0.0304
426.644	0.0302
426.963	0.0302
427.282	0.0303
427.6	0.0305
427.919	0.0302
428.237	0.0307
428.556	0.0306
428.874	0.0302
429.192	0.0302
429.51	0.0296
429.828	0.0299
430.146	0.03
430.464	0.0295
430.782	0.0298
431.1	0.0289
431.418	0.0299
431.735	0.0296
432.053	0.0301
432.37	0.0304
432.688	0.0296
433.005	0.0297
433.322	0.0303
433.639	0.0304
433.957	0.0307
434.274	0.0309
434.591	0.0304
434.907	0.0297
435.224	0.0298
435.541	0.0304
435.858	0.0307
436.174	0.03
436.491	0.0297
436.807	0.0294
437.124	0.0296
437.44	0.0294
437.756	0.0304
438.072	0.0295
438.388	0.0298
438.704	0.0288
439.02	0.0299
439.336	0.0297
439.652	0.0305
439.968	0.0296
440.283	0.0299
440.599	0.0303
440.914	0.0302
441.23	0.0297
441.545	0.0297
441.86	0.0292
442.175	0.0298
442.491	0.0289
442.806	0.0294
443.121	0.0283
443.435	0.0289
443.75	0.0285
444.065	0.0287
444.38	0.0287
444.694	0.0285
445.009	0.0282
445.323	0.0285
445.638	0.0278
445.952	0.0284
446.266	0.0277
446.58	0.0273
446.894	0.0277
447.208	0.0274
447.522	0.027
447.836	0.0276
448.15	0.0274
448.464	0.0273
448.777	0.0271
449.091	0.0274
449.404	0.0273
449.718	0.0271
450.031	0.0262
450.345	0.0273
450.658	0.0265
450.971	0.027
451.284	0.026
451.597	0.0273
451.91	0.0265
452.223	0.0262
452.535	0.0262
452.848	0.0265
453.161	0.0268
453.473	0.0264
453.786	0.0261
454.098	0.0262
454.411	0.0263
454.723	0.0269
455.035	0.0263
455.347	0.0254
455.659	0.0259
455.971	0.0259
456.283	0.0262
456.595	0.0255
456.907	0.0258
457.218	0.0257
457.53	0.0254
457.841	0.0247
458.153	0.0253
458.464	0.0242
458.776	0.0247
459.087	0.0247
459.398	0.0243
459.709	0.0235
460.02	0.0248
460.331	0.0245
460.642	0.0241
460.953	0.0243
461.263	0.024
461.574	0.0231
461.885	0.0238
462.195	0.0233
462.506	0.0232
462.816	0.0237
463.126	0.0241
463.437	0.0235
463.747	0.0229
464.057	0.0217
464.367	0.0216
464.677	0.0225
464.987	0.0223
465.296	0.0217
465.606	0.0216
465.916	0.0214
466.225	0.0216
466.535	0.0218
466.844	0.0211
467.154	0.0223
467.463	0.0213
467.772	0.0209
468.081	0.0211
468.39	0.021
468.699	0.0214
469.008	0.0214
469.317	0.0208
469.626	0.0206
469.935	0.0203
470.243	0.0211
470.552	0.0198
470.86	0.0203
471.169	0.0194
471.477	0.0197
471.785	0.0195
472.093	0.0194
472.402	0.0191
472.71	0.0195
473.018	0.0186
473.326	0.0188
473.633	0.019
473.941	0.0184
474.249	0.0187
474.556	0.0182
474.864	0.0179
475.171	0.0178
475.479	0.017
475.786	0.0185
476.094	0.0176
476.401	0.018
476.708	0.0173
477.015	0.017
477.322	0.0163
477.629	0.016
477.936	0.017
478.242	0.0162
478.549	0.0171
478.856	0.0162
479.162	0.0169
479.469	0.0163
479.775	0.0156
480.081	0.0151
480.388	0.0157
480.694	0.0154
481	0.0156
481.306	0.0153
481.612	0.016
481.918	0.0172
482.224	0.0159
482.53	0.015
482.835	0.0157
483.141	0.016
483.446	0.0153
483.752	0.0143
484.057	0.014
484.363	0.0144
484.668	0.0141
484.973	0.0134
485.278	0.0131
485.583	0.0126
485.888	0.0132
486.193	0.011
486.498	0.0125
486.803	0.0133
487.107	0.0128
487.412	0.011
487.717	0.0122
488.021	0.0122
488.325	0.0119
488.63	0.0129
488.934	0.012
489.238	0.0117
489.542	0.0122
489.846	0.0115
490.15	0.0122
490.454	0.0121
490.758	0.0112
491.062	0.0118
491.366	0.0107
491.669	0.0107
491.973	0.0117
492.276	0.0107
492.58	0.0102
492.883	0.0103
493.186	0.0096
493.489	0.0106
493.792	0.0093
494.096	0.01
494.399	0.0098
494.701	0.0098
495.004	0.0087
495.307	0.009
495.61	0.0093
495.912	0.0096
496.215	0.0098
496.517	0.0094
496.82	0.0089
497.122	0.0089
497.424	0.009
497.727	0.0088
498.029	0.0091
498.331	0.0087
498.633	0.0081
498.935	0.0092
499.237	0.0084
499.538	0.0082
499.84	0.008
500.142	0.0081
500.443	0.0089
500.745	0.0083
501.046	0.0079
501.348	0.0062
501.649	0.0071
501.95	0.008
502.251	0.0075
502.552	0.0073
502.853	0.0074
503.154	0.0081
503.455	0.0072
503.756	0.0068
504.057	0.0064
504.357	0.0068
504.658	0.0067
504.958	0.0066
505.259	0.0063
505.559	0.006
505.859	0.0055
506.16	0.0062
506.46	0.006
506.76	0.0058
507.06	0.0052
507.36	0.0054
507.66	0.0072
507.96	0.0065
508.259	0.0053
508.559	0.0056
508.859	0.0069
509.158	0.0057
509.457	0.0051
509.757	0.0046
510.056	0.0047
510.355	0.0053
510.655	0.005
510.954	0.005
511.253	0.0049
511.552	0.0056
511.851	0.0044
512.149	0.0047
512.448	0.0046
512.747	0.0041
513.045	0.0047
513.344	0.0046
513.642	0.0049
513.941	0.0052
514.239	0.0052
514.537	0.0049
514.836	0.0049
515.134	0.0048
515.432	0.0045
515.73	0.0044
516.028	0.004
516.326	0.0046
516.623	0.0035
516.921	0.003
517.219	0.0054
517.516	0.0039
517.814	0.0045
518.111	0.0044
518.409	0.0051
518.706	0.0052
519.003	0.0029
519.3	0.0036
519.597	0.0038
519.894	0.0034
520.191	0.0055
520.488	0.0055
520.785	0.0029
521.082	0.0048
521.378	0.0046
521.675	0.0041
521.971	0.0041
522.268	0.005
522.564	0.0038
522.861	0.0042
523.157	0.0038
523.453	0.0045
523.749	0.0036
524.045	0.0035
524.341	0.0041
524.637	0.0036
524.933	0.0047
525.229	0.0042
525.524	0.0026
525.82	0.0046
526.115	0.0038
526.411	0.0025
526.706	0.003
527.002	0.004
527.297	0.0026
527.592	0.0048
527.887	0.0024
528.182	0.0023
528.477	0.0041
528.772	0.0035
529.067	0.0034
529.362	0.0038
529.657	0.0038
529.951	0.004
530.246	0.0028
530.54	0.0037
530.835	0.0038
531.129	0.0039
531.423	0.0038
531.718	0.0034
532.012	0.0036
532.306	0.0043
532.6	0.0033
532.894	0.0033
533.188	0.0028
533.482	0.0037
533.775	0.0029
534.069	0.0035
534.363	0.0027
534.656	0.0037
534.95	0.0026
535.243	0.0027
535.536	0.0024
535.83	0.0024
536.123	0.0019
536.416	0.003
536.709	0.0032
537.002	0.0034
537.295	0.0039
537.588	0.0035
537.881	0.0028
538.173	0.0037
538.466	0.003
538.759	0.0026
539.051	0.004
539.344	0.0037
539.636	0.003
539.928	0.0046
540.22	0.0023
540.513	0.0035
540.805	0.0044
541.097	0.0044
541.389	0.003
541.681	0.004
541.972	0.0022
542.264	0.0036
542.556	0.0041
542.847	0.0027
543.139	0.003
543.431	0.0021
543.722	0.0017
544.013	0.0024
544.305	0.003
544.596	0.0033
544.887	0.003
545.178	0.0037
545.469	0.0034
545.76	0.0026
546.051	0.0032
546.342	0.0031
546.632	0.0035
546.923	0.0029
547.214	0.0017
547.504	0.0043
547.795	0.0031
548.085	0.0034
548.375	0.0036
548.666	0.0043
548.956	0.0039
549.246	0.0042
549.536	0.0045
549.826	0.0053
550.116	0.0047
550.406	0.0046
550.695	0.0034
550.985	0.0044
551.275	0.0054
551.564	0.0056
551.854	0.0062
552.143	0.005
552.433	0.0047
552.722	0.0049
553.011	0.0053
553.3	0.0043
553.589	0.0042
553.879	0.0043
554.167	0.0039
554.456	0.004
554.745	0.0042
555.034	0.0044
555.323	0.0037
555.611	0.0044
555.9	0.0037
556.188	0.003
556.477	0.0027
556.765	0.0038
557.053	0.0039
557.342	0.0032
557.63	0.0034
557.918	0.0048
558.206	0.0048
558.494	0.0048
558.782	0.0045
559.069	0.0057
559.357	0.0038
559.645	0.0039
559.932	0.0033
560.22	0.0034
560.507	0.0011
560.795	0.0031
561.082	0.0019
561.37	0.0027
561.657	0.0024
561.944	0.0032
562.231	0.0034
562.518	0.0045
562.805	0.0046
563.092	0.0025
563.379	0.0033
563.665	0.0038
563.952	0.0046
564.239	0.0042
564.525	0.0029
564.811	0.0039
565.098	0.0039
565.384	0.0037
565.67	0.0036
565.957	0.0041
566.243	0.0046
566.529	0.0044
566.815	0.0049
567.101	0.0048
567.387	0.0038
567.672	0.0032
567.958	0.0031
568.244	0.0032
568.529	0.0044
568.815	0.0036
569.1	0.0034
569.386	0.004
569.671	0.0031
569.956	0.0029
570.242	0.0024
570.527	0.0024
570.812	0.0027
571.097	0.0011
571.382	0.0015
571.666	0.0019
571.951	0.0031
572.236	0.0021
572.521	0.0028
572.805	0.0033
573.09	0.0028
573.374	0.002
573.659	0.0019
573.943	0.0031
574.227	0.003
574.511	0.0028
574.795	0.0033
575.079	0.0031
575.363	0.0032
575.647	0.0028
575.931	0.0033
576.215	0.0033
576.499	0.0024
576.782	0.0026
577.066	0.0026
577.349	0.003
577.633	0.0031
577.916	0.003
578.2	0.0029
578.483	0.0031
578.766	0.0037
579.049	0.0029
579.332	0.003
579.615	0.0027
579.898	0.0021
580.181	0.0027
580.464	0.0031
580.746	0.0028
581.029	0.0034
581.312	0.0021
581.594	0.0019
581.877	0.0024
582.159	0.0035
582.441	0.0027
582.724	0.0034
583.006	0.0034
583.288	0.0029
583.57	0.0031
583.852	0.0033
584.134	0.0041
584.416	0.0027
584.697	0.0021
584.979	0.0021
585.261	0.0025
585.542	0.0023
585.824	0.003
586.105	0.0028
586.387	0.0032
586.668	0.0028
586.949	0.0044
587.231	0.0041
587.512	0.0035
587.793	0.0023
588.074	0.0035
588.355	0.0035
588.636	0.0034
588.916	0.0028
589.197	0.0024
589.478	0.0039
589.758	0.0026
590.039	0.0023
590.319	0.0025
590.6	0.0029
590.88	0.0028
591.16	0.0028
591.441	0.0038
591.721	0.0029
592.001	0.0026
592.281	0.0028
592.561	0.0032
592.841	0.0025
593.12	0.002
593.4	0.0025
593.68	0.0028
593.959	0.0035
594.239	0.0033
594.518	0.0046
594.798	0.0044
595.077	0.0027
595.356	0.0037
595.636	0.0031
595.915	0.0035
596.194	0.0036
596.473	0.0035
596.752	0.0034
597.031	0.0032
597.31	0.002
597.588	0.0029
597.867	0.0029
598.146	0.0025
598.424	0.0017
598.703	0.0024
598.981	0.0014
599.259	0.0019
599.538	0.0032
599.816	0.0033
600.094	0.0025
600.372	0.003
600.65	0.0033
600.928	0.0033
601.206	0.003
601.484	0.0028
601.762	0.0032
602.04	0.0043
602.317	0.0038
602.595	0.0045
602.872	0.0035
603.15	0.0039
603.427	0.0019
603.704	0.0016
603.982	0.0011
604.259	0.0019
604.536	0.0023
604.813	0.0026
605.09	0.0033
605.367	0.0022
605.644	0.0018
605.921	0.0016
606.197	0.0016
606.474	0.0019
606.751	0.0017
607.027	0.0017
607.304	0.0021
607.58	0.0017
607.856	0.0032
608.133	0.0035
608.409	0.0038
608.685	0.0035
608.961	0.0039
609.237	0.0037
609.513	0.0048
609.789	0.0035
610.065	0.0032
610.341	0.0025
610.616	0.0029
610.892	0.0026
611.167	0.0029
611.443	0.0034
611.718	0.0028
611.994	0.0023
612.269	0.0023
612.544	0.0026
612.819	0.002
613.095	0.0019
613.37	0.0015
613.645	0.0013
613.919	0.003
614.194	0.0028
614.469	0.003
614.744	0.002
615.019	0.0015
615.293	0.0018
615.568	0.0023
615.842	0.002
616.116	0.0019
616.391	0.0017
616.665	0.0013
616.939	0.0006
617.213	0.0021
617.488	0.0017
617.762	0.0024
618.035	0.0029
618.309	0.0024
618.583	0.0026
618.857	0.0032
619.131	0.0033
619.404	0.0033
619.678	0.0037
619.951	0.0029
620.225	0.0014
620.498	0.0007
620.771	0.0021
621.045	0.0019
621.318	0.0025
621.591	0.0027
621.864	0.0012
622.137	0.0008
622.41	0.0014
622.683	0.002
622.956	0.002
623.228	0.0032
623.501	0.0028
623.774	0.0037
624.046	0.0032
624.319	0.0033
624.591	0.0021
624.863	0.0023
625.136	0.0034
625.408	0.0045
625.68	0.0037
625.952	0.004
626.224	0.004
626.496	0.0042
626.768	0.0035
627.04	0.0044
627.311	0.0037
627.583	0.0042
627.855	0.0042
628.126	0.0039
628.398	0.004
628.669	0.004
628.941	0.0017
629.212	0.0012
629.483	0.0024
629.755	0.0018
630.026	0.0027
630.297	0.003
630.568	0.0043
630.839	0.0047
631.11	0.0045
631.38	0.0048
631.651	0.0047
631.922	0.0032
632.192	0.0032
632.463	0.0051
632.733	0.0037
633.004	0.0028
633.274	0.0037
633.545	0.003
633.815	0.0044
634.085	0.0042
634.355	0.0041
634.625	0.0043
634.895	0.004
635.165	0.0036
635.435	0.0042
635.705	0.0033
635.974	0.0034
636.244	0.0024
636.514	0.0026
636.783	0.0028
637.053	0.0032
637.322	0.0031
637.591	0.0024
637.861	0.0012
638.13	0.0029
638.399	0.0045
638.668	0.0036
638.937	0.0044
639.206	0.0047
639.475	0.0057
639.744	0.0041
640.013	0.0039
640.281	0.0047
640.55	0.0045
640.819	0.0041
641.087	0.0036
641.356	0.0043
641.624	0.0038
641.892	0.0064
642.161	0.0046
642.429	0.0049
642.697	0.0051
642.965	0.0047
643.233	0.0032
643.501	0.0039
643.769	0.0037
644.037	0.0037
644.305	0.0041
644.572	0.0043
644.84	0.0039
645.108	0.0045
645.375	0.0043
645.643	0.0045
645.91	0.0038
646.177	0.0051
646.445	0.0027
646.712	0.0033
646.979	0.0031
647.246	0.005
647.513	0.004
647.78	0.0041
648.047	0.0028
648.314	0.0018
648.58	0.0012
648.847	-0.0001
649.114	-0.0002
649.38	0.0001
649.647	-0.0001
649.913	0.0014
650.18	0.0025
650.446	0.0025
650.712	0.0035
650.978	0.0045
651.245	0.005
651.511	0.0055
651.777	0.0055
652.043	0.0039
652.309	0.0047
652.574	0.0043
652.84	0.0058
653.106	0.0046
653.371	0.0056
653.637	0.0061
653.903	0.0062
654.168	0.0059
654.433	0.0062
654.699	0.0053
654.964	0.0037
655.229	0.0037
655.494	0.0034
655.759	-0.0004
656.024	0.0003
656.289	-0
656.554	0.0012
656.819	0.0041
657.084	0.0059
657.349	0.0053
657.613	0.0067
657.878	0.0038
658.142	0.0035
658.407	0.0031
658.671	0.004
658.936	0.0032
659.2	0.0042
659.464	0.0038
659.728	0.0038
659.992	0.0036
660.256	0.0014
660.52	0.0016
660.784	0.0025
661.048	0.003
661.312	0.0034
661.575	0.0039
661.839	0.0054
662.103	0.004
662.366	0.0038
662.63	0.0036
662.893	0.0037
663.156	0.0042
663.42	0.0053
663.683	0.0041
663.946	0.0051
664.209	0.0055
664.472	0.0051
664.735	0.0052
664.998	0.0057
665.261	0.0065
665.524	0.0061
665.786	0.0052
666.049	0.0052
666.312	0.0047
666.574	0.0036
666.837	0.0058
667.099	0.0052
667.361	0.0051
667.624	0.0051
667.886	0.0043
668.148	0.0052
668.41	0.0049
668.672	0.0051
668.934	0.0055
669.196	0.0043
669.458	0.0029
669.72	0.0032
669.982	0.003
670.243	0.0038
670.505	0.0032
670.766	0.0029
671.028	0.0033
671.289	0.0043
671.551	0.0039
671.812	0.0027
672.073	0.0033
672.334	0.0035
672.596	0.0027
672.857	0.0038
673.118	0.0057
673.379	0.0057
673.639	0.0058
673.9	0.0058
674.161	0.0062
674.422	0.0067
674.682	0.0057
674.943	0.0057
675.203	0.0059
675.464	0.0051
675.724	0.0042
675.985	0.0038
676.245	0.0034
676.505	0.0027
676.765	0.0025
677.025	0.0035
677.285	0.003
677.545	0.0033
677.805	0.0027
678.065	0.0027
678.325	0.0034
678.585	0.0047
678.844	0.0043
679.104	0.0058
679.363	0.0065
679.623	0.0063
679.882	0.0062
680.142	0.0067
680.401	0.006
680.66	0.0068
680.919	0.0055
681.178	0.0064
681.437	0.0053
681.696	0.0037
681.955	0.0068
682.214	0.0057
682.473	0.0068
682.732	0.0058
682.99	0.0064
683.249	0.0068
683.508	0.0068
683.766	0.006
684.024	0.005
684.283	0.0031
684.541	0.0034
684.799	0.0027
685.058	0.0012
685.316	0.001
685.574	0.0004
685.832	0.0012
686.09	0.0014
686.348	0.0013
686.606	0.0024
686.863	0.0014
687.121	0.0018
687.379	0.002
687.636	0.0011
687.894	0.0018
688.151	0.0023
688.409	0.0029
688.666	0.003
688.923	0.0034
689.181	0.0034
689.438	0.0021
689.695	0.0028
689.952	0.0021
690.209	0.0016
690.466	0.0009
690.723	0.0024
690.979	0.002
691.236	0.0011
691.493	-0.0005
691.75	0.0012
692.006	0.0009
692.263	-0.0001
692.519	0.0004
692.775	-0.0006
693.032	-0.0016
693.288	-0.0012
693.544	-0.0008
693.8	0.0013
694.056	0.0012
694.313	0.0013
694.568	0.0015
694.824	0.0018
695.08	0.0022
695.336	0.0026
695.592	0.0013
695.847	0.0029
696.103	0.0043
696.359	0.0052
696.614	0.0048
696.869	0.0034
697.125	0.0014
697.38	0.0006
697.635	0.0022
697.891	0.0033
698.146	0.0026
698.401	0.0029
698.656	0.0014
698.911	0.0029
699.166	0.0026
699.42	0.0039
699.675	0.0047
699.93	0.0051
700.185	0.0051
700.439	0.0042
700.694	0.0034
700.948	0.0023
701.203	0.0031
701.457	0.0026
701.711	0.0032
701.965	0.0023
702.22	0.0015
702.474	0.0017
702.728	0.0007
702.982	0.0016
703.236	0.0023
703.49	0.0027
703.743	0.0021
703.997	0.0026
704.251	0.0015
704.504	0.0017
704.758	0.0007
705.012	0.0015
705.265	0.003
705.518	0.0032
705.772	0.0034
706.025	0.0039
706.278	0.0037
706.531	0.0028
706.785	0.0018
707.038	0.0012
707.291	0.0016
707.543	0.0008
707.796	0.0005
708.049	0.0012
708.302	0.0007
708.555	0.0013
708.807	0.0024
709.06	0.0021
709.312	0.0037
709.565	0.0042
709.817	0.006
710.069	0.0048
710.322	0.0043
710.574	0.0036
710.826	0.0027
711.078	0.0024
711.33	0.0019
711.582	0.0022
711.834	0.0009
712.086	0.0014
712.338	0.0013
712.59	0.0004
712.841	-0.0009
713.093	-0.0012
713.344	0.0006
713.596	0.0003
713.847	-0.0006
714.099	0.0006
714.35	0.0021
714.601	0.0009
714.853	-0.0001
715.104	0.0013
715.355	-0
715.606	0.0021
715.857	0.0024
716.108	0.0029
716.359	0.003
716.609	0.0024
716.86	0.0046
717.111	0.0025
717.361	0.0023
717.612	0.0026
717.863	0.0031
718.113	0.0045
718.363	0.0027
718.614	0.0032
718.864	0.003
719.114	0.0025
719.364	0.0017
719.614	0.0008
719.865	0.0016
720.114	0.0022
720.364	0.0021
720.614	0.0021
720.864	0.002
721.114	0.0012
721.364	0.0012
721.613	0.0014
721.863	0.0019
722.112	0.002
722.362	0.0014
722.611	0.0026
722.86	0.0031
723.11	0.004
723.359	0.0043
723.608	0.0039
723.857	0.0049
724.106	0.0036
724.355	0.0033
724.604	0.0043
724.853	0.0022
725.102	0.0021
725.351	0.0001
725.599	-0.0009
725.848	-0.0009
726.097	0.0002
726.345	0.0004
726.594	0.0009
726.842	0.0014
727.09	0.0009
727.339	0.0011
727.587	0.0002
727.835	0.0011
728.083	0.0012
728.331	0.0014
728.579	0.0015
728.827	0.0003
729.075	-0.0005
729.323	-0.0007
729.571	-0.001
729.818	-0.0009
730.066	-0.001
730.314	-0.0002
730.561	-0.0003
730.809	-0.0008
731.056	-0.002
731.303	-0.0021
731.551	-0.0006
731.798	-0.0006
732.045	0.0011
732.292	0.0002
732.539	0.0009
732.786	-0.0004
733.033	-0.001
733.28	-0.0011
733.527	-0.0008
733.774	-0.0016
734.021	-0.0013
734.267	-0.0007
734.514	-0.0012
734.76	-0.0012
735.007	-0.0008
735.253	0.0008
735.5	0.0011
735.746	0.0024
735.992	0.0013
736.238	0.002
736.485	0.0025
736.731	0.0028
736.977	0.0016
737.223	0.0008
737.469	0.0015
737.715	0.0028
737.96	0.0033
738.206	0.0033
738.452	0.0039
738.697	0.0039
738.943	0.0022
739.189	0.0022
739.434	0.0008
739.679	0.0019
739.925	0.0045
740.17	0.005
740.415	0.004
740.66	0.0042
740.906	0.0033
741.151	0.0029
741.396	0.0024
741.641	0.0015
741.886	0.0012
742.13	0.0002
742.375	0.0015
742.62	0.0004
742.865	-0.0003
743.109	0.0006
743.354	-0.0001
743.598	-0.0009
743.843	-0.0014
744.087	-0.0022
744.331	-0.0013
744.576	-0.001
744.82	0.0002
745.064	0.0012
745.308	0.0017
745.552	0.0018
745.796	0.0006
746.04	0.0001
746.284	-0.0006
746.528	0.0009
746.771	0.0014
747.015	0.0009
747.259	0.0009
747.502	0.0013
747.746	0.0012
747.989	0.0028
748.233	0.0035
748.476	0.0029
748.719	0.0028
748.963	0.0019
749.206	0.0006
749.449	0.0004
749.692	0.0002
749.935	0.0005
750.178	0.0013
750.421	0.0008
750.664	0.0018
750.906	0.0019
751.149	0.0014
751.392	0.0025
751.635	0.0024
751.877	0.0026
752.12	0.0031
752.362	0.0029
752.604	0.0026
752.847	0.0017
753.089	0.0014
753.331	0.0014
753.573	0.0011
753.816	0.0022
754.058	0.0022
754.3	0.0031
754.542	0.0041
754.783	0.0033
755.025	0.0037
755.267	0.0037
755.509	0.0024
755.75	0.0007
755.992	0.0009
756.234	0.0008
756.475	0.0024
756.716	0.0021
756.958	0.0009
757.199	0.0014
757.44	0.0021
757.682	0.0017
757.923	0.0022
758.164	0.0025
758.405	0.0032
758.646	0.0034
758.887	0.0027
759.128	0.0035
759.369	0.0025
759.609	0.0022
759.85	0.0025
760.091	0.0021
760.331	0.0028
760.572	0.0024
760.812	0.0007
761.053	0.002
761.293	0.0032
761.533	0.0034
761.774	0.0034
762.014	0.004
762.254	0.0034
762.494	0.0034
762.734	0.0027
762.974	0.0026
763.214	0.0021
763.454	0.0027
763.694	0.0027
763.933	0.0036
764.173	0.005
764.413	0.0056
764.652	0.0029
764.892	0.0017
765.131	0.0011
765.371	0.0016
765.61	0.0016
765.849	0.0003
766.089	-0.0003
766.328	0.0004
766.567	0
766.806	-0.0008
767.045	-0.0008
767.284	0.0008
767.523	0.0007
767.762	0.0003
768.001	0.0001
768.239	-0
768.478	-0.0006
768.717	0.0001
768.955	-0
769.194	0.001
769.432	0.0016
769.671	0.0019
769.909	0.0017
770.148	0.001
770.386	0.0013
770.624	0.0007
770.862	-0.0002
771.1	-0.0003
771.338	-0.0003
771.576	-0.0001
771.814	0.0004
772.052	0.0002
772.29	0.0017
772.528	0.0008
772.765	0.0003
773.003	0.0013
773.24	0.0019
773.478	0.0014
773.716	0.0029
773.953	0.0025
774.19	0.0025
774.428	0.0032
774.665	0.0033
774.902	0.004
775.139	0.0033
775.376	0.0037
775.613	0.0038
775.85	0.0054
776.087	0.0059
776.324	0.0045
776.561	0.0042
776.798	0.0043
777.034	0.0034
777.271	0.0035
777.508	0.0026
777.744	0.0041
777.981	0.0046
778.217	0.0033
778.454	0.0029
778.69	0.0032
778.926	0.0028
779.162	0.0029
779.399	0.0039
779.635	0.0021
779.871	0.0025
780.107	0.0027
780.343	0.0024
780.579	0.0035
780.814	0.0036
781.05	0.0036
781.286	0.0032
781.522	0.0017
781.757	0.0015
781.993	0.0021
782.228	0.0008
782.464	0.0022
782.699	0.002
782.934	0.0012
783.17	0.0012
783.405	0.0017
783.64	0.002
783.875	0.0007
784.11	0.0009
784.345	0.002
784.58	0.0025
784.815	0.0025
785.05	0.0019
785.285	0.0016
785.52	0.0016
785.754	0.0018
785.989	0.0026
786.223	0.0034
786.458	0.0038
786.692	0.0043
786.927	0.0056
787.161	0.0053
787.396	0.0048
787.63	0.0048
787.864	0.0037
788.098	0.0024
788.332	0.0024
788.566	0.0023
788.8	0.0023
789.034	0.0025
789.268	0.0018
789.502	0.0026
789.736	0.003
789.969	0.0036
790.203	0.0035
790.437	0.0039
790.67	0.0043
790.904	0.006
791.137	0.0072
791.37	0.0071
791.604	0.0068
791.837	0.0073
792.07	0.0073
792.303	0.0077
792.537	0.008
792.77	0.0068
793.003	0.0067
793.236	0.0058
793.469	0.0045
793.701	0.0032
793.934	0.0026
794.167	0.0021
794.4	0.0007
794.632	0.0004
794.865	0.001
795.097	0.0008
795.33	0.001
795.562	0.0005
795.795	0.0012
796.027	0.0014
796.259	0.0023
796.491	0.0022
796.724	0.0017
796.956	0.0026
797.188	0.0024
797.42	0.0019
797.652	0.0021
797.883	0.0021
798.115	0.0027
798.347	0.0031
798.579	0.0029
798.81	0.003
799.042	0.0028
799.274	0.0037
799.505	0.0033
799.737	0.0032
799.968	0.0019
800.199	0.0019
800.431	0.0024
800.662	0.0007
800.893	0.0017
801.124	0.0021
801.355	0.004
801.586	0.0042
801.817	0.0061
802.048	0.0058
802.279	0.0062
802.51	0.007
802.741	0.0078
802.971	0.0074
803.202	0.0056
803.433	0.0055
803.663	0.0044
803.894	0.005
804.124	0.0045
804.354	0.0049
804.585	0.006
804.815	0.0058
805.045	0.0064
805.275	0.0048
805.506	0.0833
805.736	-0.1098
805.966	-0.2515
806.196	-0.1688
