Data from 03 0.4 mM K2Cr2O7 0.25 M BQDS 1 M H2SO4 5 min_Absorbance_0095.txt Node
Date: Wed Dec 15 01:25:12 EST 2021
User: kwabilab-user
Spectrometer: HDX00518
Trigger mode: 0
Integration Time (sec): 5.000000E-2
Scans to average: 50
Nonlinearity correction enabled: false
Boxcar width: 0
Storing dark spectrum: false
XAxis mode: Wavelengths
Number of Pixels in Spectrum: 2068
>>>>>Begin Spectral Data<<<<<
195.27	-0.0505
195.642	0.1478
196.014	-0.1831
196.386	0.1944
196.758	-0.0526
197.129	0.0068
197.501	-0.0186
197.872	0.0336
198.244	0.0043
198.615	0.0336
198.986	0.0423
199.357	0.0534
199.728	0.0466
200.099	0.0497
200.47	0.0289
200.841	0.0295
201.212	0.0404
201.582	0.0431
201.953	0.031
202.323	0.0333
202.694	0.0299
203.064	0.0265
203.434	0.034
203.804	0.0158
204.174	0.0359
204.544	0.0354
204.914	0.0127
205.284	0.0248
205.653	0.0174
206.023	0.0347
206.393	0.0364
206.762	0.0254
207.131	0.0346
207.501	0.0425
207.87	0.0441
208.239	0.0363
208.608	0.0318
208.977	0.028
209.346	0.0312
209.715	0.0194
210.083	0.0308
210.452	0.01
210.82	0.0475
211.189	0.024
211.557	0.0382
211.925	0.0214
212.294	0.028
212.662	0.041
213.03	0.032
213.398	0.0296
213.766	0.0439
214.133	0.04
214.501	0.027
214.869	0.0296
215.236	0.03
215.604	0.0414
215.971	0.0662
216.338	0.0503
216.705	0.0541
217.072	0.0423
217.439	0.0552
217.806	0.0535
218.173	0.0688
218.54	0.0391
218.907	0.0956
219.273	0.0825
219.64	0.0979
220.006	0.0849
220.373	0.0967
220.739	0.1217
221.105	0.1521
221.471	0.1566
221.837	0.177
222.203	0.1977
222.569	0.1972
222.935	0.2138
223.3	0.2661
223.666	0.2619
224.031	0.285
224.397	0.3184
224.762	0.3365
225.127	0.3553
225.493	0.3806
225.858	0.391
226.223	0.4613
226.588	0.4491
226.952	0.4508
227.317	0.4985
227.682	0.5042
228.046	0.5079
228.411	0.5284
228.775	0.5343
229.14	0.5564
229.504	0.5686
229.868	0.5802
230.232	0.5941
230.596	0.6081
230.96	0.6222
231.324	0.6002
231.688	0.6244
232.052	0.6257
232.415	0.6229
232.779	0.6368
233.142	0.6429
233.505	0.6442
233.869	0.6569
234.232	0.6305
234.595	0.6288
234.958	0.6536
235.321	0.6394
235.684	0.6305
236.047	0.6279
236.409	0.6256
236.772	0.6235
237.134	0.6248
237.497	0.6179
237.859	0.6279
238.222	0.6274
238.584	0.6101
238.946	0.6064
239.308	0.6136
239.67	0.61
240.032	0.6154
240.393	0.6022
240.755	0.6013
241.117	0.5985
241.478	0.595
241.84	0.5963
242.201	0.5911
242.562	0.587
242.924	0.5867
243.285	0.5731
243.646	0.5797
244.007	0.5685
244.368	0.5652
244.728	0.5714
245.089	0.575
245.45	0.5657
245.81	0.568
246.171	0.565
246.531	0.5551
246.891	0.5561
247.252	0.552
247.612	0.5585
247.972	0.5532
248.332	0.5546
248.692	0.5579
249.051	0.554
249.411	0.5499
249.771	0.5466
250.13	0.5463
250.49	0.5457
250.849	0.5466
251.208	0.548
251.568	0.5483
251.927	0.5417
252.286	0.5465
252.645	0.5415
253.004	0.546
253.363	0.5396
253.721	0.5415
254.08	0.5435
254.439	0.5381
254.797	0.5321
255.155	0.534
255.514	0.5297
255.872	0.5423
256.23	0.5368
256.588	0.5333
256.946	0.5371
257.304	0.5352
257.662	0.5387
258.02	0.5365
258.377	0.5294
258.735	0.5327
259.093	0.5284
259.45	0.5267
259.807	0.5258
260.165	0.5292
260.522	0.53
260.879	0.5189
261.236	0.5201
261.593	0.5229
261.95	0.5156
262.306	0.5133
262.663	0.5199
263.02	0.519
263.376	0.5131
263.733	0.5111
264.089	0.5097
264.445	0.5095
264.802	0.5057
265.158	0.5043
265.514	0.505
265.87	0.4983
266.226	0.5018
266.581	0.5005
266.937	0.4999
267.293	0.5005
267.648	0.4924
268.004	0.4909
268.359	0.4884
268.714	0.4868
269.07	0.486
269.425	0.479
269.78	0.4747
270.135	0.4791
270.49	0.4717
270.844	0.4754
271.199	0.4714
271.554	0.4597
271.908	0.4635
272.263	0.4589
272.617	0.4584
272.972	0.4545
273.326	0.4519
273.68	0.4451
274.034	0.4483
274.388	0.4423
274.742	0.4412
275.096	0.4356
275.45	0.4326
275.803	0.4311
276.157	0.4288
276.51	0.4222
276.864	0.424
277.217	0.4199
277.571	0.4165
277.924	0.4097
278.277	0.407
278.63	0.4019
278.983	0.3989
279.336	0.3966
279.688	0.3909
280.041	0.3886
280.394	0.3798
280.746	0.3784
281.099	0.3729
281.451	0.372
281.803	0.3695
282.156	0.365
282.508	0.361
282.86	0.3581
283.212	0.3547
283.564	0.3497
283.916	0.3436
284.267	0.3419
284.619	0.3382
284.971	0.335
285.322	0.3325
285.673	0.3278
286.025	0.3231
286.376	0.3198
286.727	0.3166
287.078	0.3139
287.429	0.3112
287.78	0.3057
288.131	0.3038
288.482	0.298
288.833	0.2968
289.183	0.2935
289.534	0.2888
289.884	0.2868
290.235	0.282
290.585	0.2788
290.935	0.2759
291.285	0.2725
291.635	0.2678
291.985	0.2673
292.335	0.2616
292.685	0.2586
293.035	0.2533
293.384	0.2509
293.734	0.2469
294.083	0.2448
294.433	0.2413
294.782	0.2388
295.131	0.2347
295.48	0.2319
295.829	0.2297
296.179	0.2263
296.527	0.2225
296.876	0.221
297.225	0.2156
297.574	0.2134
297.922	0.2107
298.271	0.2082
298.619	0.2034
298.968	0.2018
299.316	0.1989
299.664	0.1973
300.012	0.1939
300.36	0.1897
300.708	0.1879
301.056	0.1851
301.404	0.184
301.752	0.1808
302.099	0.1783
302.447	0.1761
302.794	0.1741
303.142	0.1715
303.489	0.169
303.836	0.1676
304.183	0.1659
304.531	0.1637
304.878	0.1618
305.224	0.1596
305.571	0.1584
305.918	0.1562
306.265	0.1542
306.611	0.1518
306.958	0.1524
307.304	0.1509
307.651	0.1496
307.997	0.1476
308.343	0.1464
308.689	0.1458
309.035	0.1454
309.381	0.1432
309.727	0.1422
310.073	0.1422
310.419	0.1405
310.764	0.1405
311.11	0.1389
311.455	0.1391
311.801	0.1377
312.146	0.1371
312.491	0.1369
312.837	0.1364
313.182	0.1355
313.527	0.1351
313.872	0.1345
314.216	0.1351
314.561	0.1349
314.906	0.1347
315.251	0.1351
315.595	0.1351
315.94	0.1345
316.284	0.1344
316.628	0.1345
316.972	0.1351
317.317	0.1343
317.661	0.1351
318.005	0.1349
318.348	0.1357
318.692	0.1361
319.036	0.1358
319.38	0.1368
319.723	0.1367
320.067	0.1375
320.41	0.138
320.754	0.1389
321.097	0.1384
321.44	0.14
321.783	0.1401
322.126	0.142
322.469	0.1418
322.812	0.143
323.155	0.1438
323.498	0.1445
323.84	0.145
324.183	0.1467
324.525	0.1471
324.868	0.1488
325.21	0.1492
325.552	0.1506
325.894	0.1517
326.236	0.1514
326.578	0.1523
326.92	0.1543
327.262	0.1544
327.604	0.1557
327.946	0.1568
328.287	0.1574
328.629	0.1594
328.97	0.1597
329.312	0.1603
329.653	0.1616
329.994	0.1632
330.335	0.1641
330.676	0.1659
331.017	0.1666
331.358	0.1677
331.699	0.1692
332.04	0.1703
332.38	0.1712
332.721	0.1723
333.061	0.1733
333.402	0.1757
333.742	0.1757
334.083	0.1766
334.423	0.1779
334.763	0.1791
335.103	0.1799
335.443	0.1809
335.783	0.182
336.123	0.1826
336.462	0.1835
336.802	0.1845
337.141	0.1856
337.481	0.186
337.82	0.1876
338.16	0.1887
338.499	0.189
338.838	0.1895
339.177	0.1912
339.516	0.1915
339.855	0.1928
340.194	0.1941
340.533	0.1936
340.872	0.1946
341.21	0.1953
341.549	0.1958
341.887	0.197
342.226	0.1972
342.564	0.198
342.902	0.1981
343.24	0.1983
343.578	0.1997
343.916	0.1988
344.254	0.1999
344.592	0.2004
344.93	0.1998
345.268	0.1998
345.605	0.2007
345.943	0.2008
346.28	0.2005
346.618	0.2
346.955	0.2011
347.292	0.2018
347.629	0.2012
347.966	0.2011
348.303	0.2016
348.64	0.2017
348.977	0.2011
349.314	0.2019
349.65	0.2013
349.987	0.2022
350.324	0.2012
350.66	0.2019
350.996	0.2001
351.333	0.2001
351.669	0.1997
352.005	0.1997
352.341	0.1985
352.677	0.1979
353.013	0.1968
353.349	0.1962
353.685	0.1954
354.02	0.1951
354.356	0.194
354.691	0.1932
355.027	0.1928
355.362	0.1913
355.697	0.1902
356.033	0.1909
356.368	0.1896
356.703	0.1888
357.038	0.188
357.373	0.1867
357.707	0.1867
358.042	0.1853
358.377	0.185
358.711	0.1845
359.046	0.1825
359.38	0.1827
359.715	0.1816
360.049	0.1811
360.383	0.1793
360.717	0.1776
361.051	0.1777
361.385	0.176
361.719	0.1752
362.053	0.1744
362.387	0.1724
362.72	0.1711
363.054	0.17
363.387	0.1688
363.721	0.1668
364.054	0.1657
364.387	0.1636
364.721	0.1623
365.054	0.162
365.387	0.1599
365.72	0.159
366.053	0.1575
366.385	0.1562
366.718	0.1549
367.051	0.1539
367.383	0.1525
367.716	0.1518
368.048	0.1514
368.381	0.1497
368.713	0.148
369.045	0.1481
369.377	0.1464
369.709	0.146
370.041	0.1447
370.373	0.1436
370.705	0.1416
371.037	0.141
371.368	0.1395
371.7	0.138
372.031	0.1374
372.363	0.1359
372.694	0.134
373.025	0.1324
373.356	0.1314
373.688	0.1299
374.019	0.129
374.35	0.1262
374.68	0.1245
375.011	0.1235
375.342	0.1228
375.673	0.1198
376.003	0.1184
376.334	0.118
376.664	0.1162
376.995	0.1148
377.325	0.1138
377.655	0.1118
377.985	0.1107
378.315	0.1097
378.645	0.1086
378.975	0.1077
379.305	0.1062
379.635	0.1059
379.964	0.1039
380.294	0.1035
380.623	0.1025
380.953	0.1012
381.282	0.1008
381.611	0.1
381.941	0.0988
382.27	0.0974
382.599	0.0968
382.928	0.095
383.257	0.0937
383.585	0.0926
383.914	0.091
384.243	0.0898
384.571	0.0891
384.9	0.0876
385.228	0.0862
385.557	0.0852
385.885	0.0842
386.213	0.0826
386.541	0.0816
386.869	0.0802
387.197	0.0787
387.525	0.0778
387.853	0.0766
388.181	0.075
388.508	0.0748
388.836	0.0729
389.164	0.0726
389.491	0.071
389.818	0.0695
390.146	0.0693
390.473	0.0683
390.8	0.0684
391.127	0.066
391.454	0.0656
391.781	0.0652
392.108	0.0642
392.435	0.0628
392.761	0.0624
393.088	0.062
393.415	0.0609
393.741	0.0613
394.067	0.0602
394.394	0.0597
394.72	0.0583
395.046	0.0572
395.372	0.0574
395.698	0.0562
396.024	0.0554
396.35	0.0546
396.676	0.0544
397.001	0.0528
397.327	0.0516
397.653	0.0519
397.978	0.0512
398.303	0.0503
398.629	0.0498
398.954	0.0495
399.279	0.0489
399.604	0.0478
399.929	0.0472
400.254	0.0465
400.579	0.0462
400.904	0.0456
401.229	0.0448
401.553	0.0449
401.878	0.0451
402.202	0.0442
402.527	0.0435
402.851	0.0436
403.175	0.0428
403.5	0.0424
403.824	0.0414
404.148	0.0419
404.472	0.0414
404.796	0.0412
405.119	0.0405
405.443	0.0404
405.767	0.0401
406.09	0.0395
406.414	0.0392
406.737	0.0402
407.061	0.0394
407.384	0.0399
407.707	0.0386
408.03	0.0384
408.353	0.0387
408.676	0.0387
408.999	0.0381
409.322	0.0378
409.645	0.0376
409.968	0.0384
410.29	0.0374
410.613	0.0382
410.935	0.0371
411.258	0.0377
411.58	0.0365
411.902	0.037
412.224	0.0372
412.546	0.0375
412.868	0.0377
413.19	0.0368
413.512	0.0368
413.834	0.0369
414.156	0.0373
414.477	0.0366
414.799	0.0368
415.121	0.0363
415.442	0.0366
415.763	0.0365
416.085	0.0368
416.406	0.036
416.727	0.0368
417.048	0.0363
417.369	0.0362
417.69	0.0362
418.011	0.0366
418.331	0.0364
418.652	0.0368
418.973	0.0355
419.293	0.0356
419.614	0.0355
419.934	0.0372
420.254	0.0361
420.574	0.0352
420.895	0.0362
421.215	0.0359
421.535	0.0361
421.855	0.0348
422.174	0.0349
422.494	0.0354
422.814	0.0356
423.134	0.0356
423.453	0.036
423.773	0.0362
424.092	0.0359
424.411	0.0364
424.731	0.036
425.05	0.0364
425.369	0.0358
425.688	0.0361
426.007	0.0356
426.326	0.0365
426.644	0.0357
426.963	0.0354
427.282	0.036
427.6	0.0358
427.919	0.0359
428.237	0.0357
428.556	0.0362
428.874	0.0358
429.192	0.0354
429.51	0.0358
429.828	0.0363
430.146	0.0359
430.464	0.0357
430.782	0.036
431.1	0.035
431.418	0.0352
431.735	0.0352
432.053	0.0357
432.37	0.0362
432.688	0.0356
433.005	0.0349
433.322	0.036
433.639	0.0364
433.957	0.0353
434.274	0.0361
434.591	0.0361
434.907	0.0353
435.224	0.0363
435.541	0.036
435.858	0.0368
436.174	0.0363
436.491	0.036
436.807	0.0353
437.124	0.0349
437.44	0.0359
437.756	0.0358
438.072	0.0349
438.388	0.0355
438.704	0.0344
439.02	0.0356
439.336	0.0351
439.652	0.0353
439.968	0.0344
440.283	0.0355
440.599	0.0354
440.914	0.0354
441.23	0.0355
441.545	0.0349
441.86	0.0348
442.175	0.0355
442.491	0.0344
442.806	0.0346
443.121	0.0344
443.435	0.0345
443.75	0.0347
444.065	0.0346
444.38	0.0341
444.694	0.0342
445.009	0.034
445.323	0.0351
445.638	0.0339
445.952	0.0339
446.266	0.0332
446.58	0.0332
446.894	0.0338
447.208	0.0333
447.522	0.0331
447.836	0.0336
448.15	0.0334
448.464	0.033
448.777	0.034
449.091	0.0332
449.404	0.0322
449.718	0.0329
450.031	0.0322
450.345	0.0328
450.658	0.0328
450.971	0.0328
451.284	0.0323
451.597	0.0326
451.91	0.0322
452.223	0.0319
452.535	0.032
452.848	0.0317
453.161	0.0312
453.473	0.0322
453.786	0.0318
454.098	0.0315
454.411	0.0315
454.723	0.0313
455.035	0.031
455.347	0.0305
455.659	0.0314
455.971	0.0313
456.283	0.0316
456.595	0.0313
456.907	0.0312
457.218	0.0318
457.53	0.03
457.841	0.0303
458.153	0.0306
458.464	0.0299
458.776	0.0305
459.087	0.0294
459.398	0.0298
459.709	0.0287
460.02	0.0297
460.331	0.0299
460.642	0.0296
460.953	0.0286
461.263	0.0292
461.574	0.0286
461.885	0.0289
462.195	0.0282
462.506	0.0291
462.816	0.0293
463.126	0.028
463.437	0.0282
463.747	0.027
464.057	0.0269
464.367	0.0261
464.677	0.0276
464.987	0.0265
465.296	0.026
465.606	0.0265
465.916	0.0258
466.225	0.0261
466.535	0.0257
466.844	0.0267
467.154	0.0269
467.463	0.0256
467.772	0.0259
468.081	0.026
468.39	0.0256
468.699	0.0253
469.008	0.0255
469.317	0.0251
469.626	0.0257
469.935	0.0245
470.243	0.0245
470.552	0.0243
470.86	0.025
471.169	0.0243
471.477	0.0235
471.785	0.0235
472.093	0.0237
472.402	0.0233
472.71	0.0231
473.018	0.0229
473.326	0.0238
473.633	0.0236
473.941	0.0225
474.249	0.0237
474.556	0.0223
474.864	0.0225
475.171	0.0219
475.479	0.0219
475.786	0.0224
476.094	0.0215
476.401	0.0214
476.708	0.0213
477.015	0.0211
477.322	0.0197
477.629	0.0205
477.936	0.0207
478.242	0.0206
478.549	0.0209
478.856	0.0202
479.162	0.0202
479.469	0.0199
479.775	0.0196
480.081	0.0185
480.388	0.0189
480.694	0.0192
481	0.0179
481.306	0.0194
481.612	0.0191
481.918	0.0198
482.224	0.0189
482.53	0.0187
482.835	0.0185
483.141	0.0186
483.446	0.0181
483.752	0.0179
484.057	0.0176
484.363	0.0171
484.668	0.0177
484.973	0.0168
485.278	0.0163
485.583	0.0153
485.888	0.0161
486.193	0.016
486.498	0.0159
486.803	0.0165
487.107	0.0159
487.412	0.0138
487.717	0.0149
488.021	0.0156
488.325	0.0147
488.63	0.015
488.934	0.0152
489.238	0.0145
489.542	0.0154
489.846	0.0145
490.15	0.0152
490.454	0.0148
490.758	0.0146
491.062	0.0138
491.366	0.013
491.669	0.014
491.973	0.0134
492.276	0.013
492.58	0.0132
492.883	0.0136
493.186	0.0127
493.489	0.013
493.792	0.0126
494.096	0.0121
494.399	0.0121
494.701	0.0122
495.004	0.0122
495.307	0.0122
495.61	0.0123
495.912	0.0129
496.215	0.0122
496.517	0.0121
496.82	0.0117
497.122	0.0115
497.424	0.0114
497.727	0.0107
498.029	0.0104
498.331	0.0107
498.633	0.0099
498.935	0.0098
499.237	0.0108
499.538	0.01
499.84	0.0104
500.142	0.009
500.443	0.0106
500.745	0.0096
501.046	0.0099
501.348	0.009
501.649	0.0088
501.95	0.0102
502.251	0.0094
502.552	0.009
502.853	0.0097
503.154	0.0102
503.455	0.0085
503.756	0.009
504.057	0.0082
504.357	0.009
504.658	0.0087
504.958	0.0083
505.259	0.0093
505.559	0.0081
505.859	0.0075
506.16	0.0074
506.46	0.0074
506.76	0.0078
507.06	0.0066
507.36	0.0073
507.66	0.0072
507.96	0.0082
508.259	0.0073
508.559	0.0076
508.859	0.0083
509.158	0.0077
509.457	0.0056
509.757	0.0066
510.056	0.0063
510.355	0.0066
510.655	0.0062
510.954	0.0058
511.253	0.0072
511.552	0.0072
511.851	0.0059
512.149	0.0068
512.448	0.0063
512.747	0.0056
513.045	0.0048
513.344	0.0056
513.642	0.006
513.941	0.0063
514.239	0.0057
514.537	0.0056
514.836	0.0054
515.134	0.006
515.432	0.0051
515.73	0.0059
516.028	0.0044
516.326	0.0041
516.623	0.0047
516.921	0.0045
517.219	0.0065
517.516	0.0046
517.814	0.0057
518.111	0.0053
518.409	0.0052
518.706	0.0054
519.003	0.0041
519.3	0.0049
519.597	0.0046
519.894	0.0044
520.191	0.0056
520.488	0.0063
520.785	0.0047
521.082	0.0045
521.378	0.0059
521.675	0.005
521.971	0.0042
522.268	0.0048
522.564	0.0046
522.861	0.0051
523.157	0.0044
523.453	0.0054
523.749	0.0037
524.045	0.0047
524.341	0.0039
524.637	0.0037
524.933	0.0058
525.229	0.0047
525.524	0.0036
525.82	0.0051
526.115	0.0041
526.411	0.0041
526.706	0.0043
527.002	0.0041
527.297	0.0033
527.592	0.0045
527.887	0.0027
528.182	0.0028
528.477	0.0047
528.772	0.0027
529.067	0.0047
529.362	0.0047
529.657	0.0037
529.951	0.0024
530.246	0.0032
530.54	0.0039
530.835	0.0031
531.129	0.0038
531.423	0.0032
531.718	0.0033
532.012	0.0026
532.306	0.0038
532.6	0.0024
532.894	0.004
533.188	0.0028
533.482	0.0034
533.775	0.003
534.069	0.0031
534.363	0.003
534.656	0.0025
534.95	0.0034
535.243	0.0023
535.536	0.0028
535.83	0.0031
536.123	0.0015
536.416	0.0025
536.709	0.0034
537.002	0.0037
537.295	0.0027
537.588	0.004
537.881	0.0024
538.173	0.003
538.466	0.0029
538.759	0.0036
539.051	0.0036
539.344	0.0037
539.636	0.0028
539.928	0.004
540.22	0.0028
540.513	0.0027
540.805	0.0033
541.097	0.0038
541.389	0.0028
541.681	0.0044
541.972	0.0032
542.264	0.0033
542.556	0.0032
542.847	0.0036
543.139	0.0031
543.431	0.0025
543.722	0.0021
544.013	0.0041
544.305	0.0033
544.596	0.0031
544.887	0.0035
545.178	0.0052
545.469	0.0043
545.76	0.0039
546.051	0.0041
546.342	0.0029
546.632	0.0031
546.923	0.0033
547.214	0.0023
547.504	0.0038
547.795	0.0024
548.085	0.0032
548.375	0.0035
548.666	0.0038
548.956	0.0037
549.246	0.0041
549.536	0.0036
549.826	0.0044
550.116	0.0038
550.406	0.0033
550.695	0.0034
550.985	0.003
551.275	0.0042
551.564	0.0043
551.854	0.0036
552.143	0.0035
552.433	0.0035
552.722	0.0041
553.011	0.0035
553.3	0.0034
553.589	0.0047
553.879	0.0036
554.167	0.0045
554.456	0.0031
554.745	0.0035
555.034	0.004
555.323	0.0029
555.611	0.0039
555.9	0.0036
556.188	0.0035
556.477	0.0029
556.765	0.0033
557.053	0.0036
557.342	0.0031
557.63	0.0033
557.918	0.0037
558.206	0.0035
558.494	0.004
558.782	0.0037
559.069	0.0049
559.357	0.0047
559.645	0.0042
559.932	0.0036
560.22	0.0033
560.507	0.002
560.795	0.0028
561.082	0.0023
561.37	0.0036
561.657	0.0026
561.944	0.0023
562.231	0.003
562.518	0.003
562.805	0.0041
563.092	0.0029
563.379	0.003
563.665	0.0032
563.952	0.0047
564.239	0.0049
564.525	0.0039
564.811	0.0037
565.098	0.0035
565.384	0.0029
565.67	0.0032
565.957	0.0039
566.243	0.0047
566.529	0.003
566.815	0.0042
567.101	0.0043
567.387	0.0038
567.672	0.0023
567.958	0.0023
568.244	0.0025
568.529	0.0035
568.815	0.0023
569.1	0.0033
569.386	0.0031
569.671	0.0034
569.956	0.0033
570.242	0.0033
570.527	0.003
570.812	0.0023
571.097	0.0021
571.382	0.0015
571.666	0.0021
571.951	0.0032
572.236	0.003
572.521	0.003
572.805	0.0031
573.09	0.0034
573.374	0.0019
573.659	0.0027
573.943	0.003
574.227	0.0027
574.511	0.0032
574.795	0.0026
575.079	0.0031
575.363	0.0026
575.647	0.0024
575.931	0.0021
576.215	0.0029
576.499	0.0026
576.782	0.0023
577.066	0.0029
577.349	0.0035
577.633	0.0032
577.916	0.0027
578.2	0.0033
578.483	0.0034
578.766	0.0035
579.049	0.0026
579.332	0.0034
579.615	0.002
579.898	0.0019
580.181	0.003
580.464	0.0032
580.746	0.003
581.029	0.0029
581.312	0.0021
581.594	0.0019
581.877	0.0023
582.159	0.0034
582.441	0.0021
582.724	0.0031
583.006	0.0036
583.288	0.0031
583.57	0.0031
583.852	0.0032
584.134	0.0031
584.416	0.0027
584.697	0.0026
584.979	0.0025
585.261	0.0027
585.542	0.0032
585.824	0.0031
586.105	0.003
586.387	0.0033
586.668	0.0028
586.949	0.0041
587.231	0.003
587.512	0.0025
587.793	0.0028
588.074	0.0031
588.355	0.0032
588.636	0.0026
588.916	0.0034
589.197	0.002
589.478	0.0029
589.758	0.0024
590.039	0.0021
590.319	0.0022
590.6	0.0025
590.88	0.0018
591.16	0.0021
591.441	0.0035
591.721	0.0024
592.001	0.0021
592.281	0.0033
592.561	0.0031
592.841	0.0025
593.12	0.0027
593.4	0.0025
593.68	0.0031
593.959	0.0026
594.239	0.0032
594.518	0.0038
594.798	0.0031
595.077	0.0024
595.356	0.0035
595.636	0.0031
595.915	0.003
596.194	0.0026
596.473	0.0036
596.752	0.003
597.031	0.0026
597.31	0.002
597.588	0.0017
597.867	0.0017
598.146	0.0016
598.424	0.0009
598.703	0.0019
598.981	0.001
599.259	0.0016
599.538	0.003
599.816	0.0028
600.094	0.0032
600.372	0.0027
600.65	0.0033
600.928	0.0034
601.206	0.0031
601.484	0.0025
601.762	0.0031
602.04	0.0037
602.317	0.0035
602.595	0.0039
602.872	0.003
603.15	0.0034
603.427	0.0016
603.704	0.0021
603.982	0.0021
604.259	0.002
604.536	0.0022
604.813	0.0022
605.09	0.0024
605.367	0.0014
605.644	0.0016
605.921	0.0018
606.197	0.0016
606.474	0.0024
606.751	0.0013
607.027	0.0021
607.304	0.0024
607.58	0.0025
607.856	0.003
608.133	0.0036
608.409	0.0043
608.685	0.0038
608.961	0.0032
609.237	0.0039
609.513	0.0045
609.789	0.0029
610.065	0.0029
610.341	0.0024
610.616	0.0031
610.892	0.0027
611.167	0.0035
611.443	0.0043
611.718	0.0033
611.994	0.0036
612.269	0.0032
612.544	0.0034
612.819	0.0035
613.095	0.003
613.37	0.002
613.645	0.0026
613.919	0.0021
614.194	0.0025
614.469	0.0021
614.744	0.0024
615.019	0.0013
615.293	0.0023
615.568	0.0027
615.842	0.0015
616.116	0.0015
616.391	0.0015
616.665	0.0007
616.939	0
617.213	0.0012
617.488	0.0018
617.762	0.0018
618.035	0.0031
618.309	0.0027
618.583	0.0031
618.857	0.0032
619.131	0.0032
619.404	0.0026
619.678	0.0036
619.951	0.0027
620.225	0.0015
620.498	0.0018
620.771	0.0016
621.045	0.0026
621.318	0.0028
621.591	0.0029
621.864	0.0014
622.137	0.0021
622.41	0.0017
622.683	0.0017
622.956	0.0008
623.228	0.0018
623.501	0.0025
623.774	0.0033
624.046	0.0029
624.319	0.002
624.591	0.0017
624.863	0.0013
625.136	0.0037
625.408	0.0043
625.68	0.0029
625.952	0.0032
626.224	0.0032
626.496	0.0028
626.768	0.0029
627.04	0.0034
627.311	0.002
627.583	0.003
627.855	0.003
628.126	0.0025
628.398	0.0019
628.669	0.0012
628.941	0.0008
629.212	0.0004
629.483	0.002
629.755	0.0012
630.026	0.0015
630.297	0.002
630.568	0.0021
630.839	0.0014
631.11	0.0024
631.38	0.0026
631.651	0.0025
631.922	0.0018
632.192	0.0019
632.463	0.0019
632.733	0.0013
633.004	0.0022
633.274	0.0014
633.545	0.0003
633.815	0.0023
634.085	0.0017
634.355	0.002
634.625	0.0027
634.895	0.0022
635.165	0.0025
635.435	0.0024
635.705	0.0024
635.974	0.0023
636.244	0.0025
636.514	0.0017
636.783	0.0019
637.053	0.0028
637.322	0.002
637.591	0.001
637.861	0.001
638.13	0.0011
638.399	0.0024
638.668	0.0024
638.937	0.0029
639.206	0.0021
639.475	0.0023
639.744	0.0017
640.013	0.0023
640.281	0.002
640.55	0.002
640.819	0.0024
641.087	0.0011
641.356	0.0023
641.624	0.0015
641.892	0.0027
642.161	0.0015
642.429	0.0013
642.697	0.0021
642.965	0.0015
643.233	-0.0001
643.501	0.0007
643.769	0.0006
644.037	0.0007
644.305	0.0006
644.572	0.0011
644.84	0.0008
645.108	0.002
645.375	0.0013
645.643	0.0019
645.91	0.0025
646.177	0.0015
646.445	0.0017
646.712	0.0028
646.979	0.0022
647.246	0.0035
647.513	0.0027
647.78	0.0025
648.047	0.0009
648.314	0.0006
648.58	-0.0004
648.847	-0.001
649.114	-0.0017
649.38	-0.0011
649.647	-0.0008
649.913	0.0001
650.18	0.0007
650.446	0.0011
650.712	0.0021
650.978	0.0023
651.245	0.0025
651.511	0.0031
651.777	0.0031
652.043	0.0019
652.309	0.002
652.574	0.0019
652.84	0.0022
653.106	0.0024
653.371	0.003
653.637	0.0031
653.903	0.0022
654.168	0.0015
654.433	0.002
654.699	0.001
654.964	0.0003
655.229	0.0006
655.494	0.0011
655.759	-0.0012
656.024	0.0007
656.289	-0
656.554	0.0014
656.819	0.0021
657.084	0.0024
657.349	0.0025
657.613	0.0021
657.878	0.0007
658.142	0.0009
658.407	0.0008
658.671	0.0021
658.936	0.0012
659.2	0.0022
659.464	0.0014
659.728	0.001
659.992	0.001
660.256	-0.0009
660.52	-0.0001
660.784	0.0005
661.048	0.0009
661.312	0.0006
661.575	0.001
661.839	0.0019
662.103	0.0007
662.366	0.0004
662.63	0.0014
662.893	0.0002
663.156	0.0013
663.42	0.0019
663.683	0.0017
663.946	0.0019
664.209	0.0024
664.472	0.0019
664.735	0.0027
664.998	0.0029
665.261	0.0034
665.524	0.0026
665.786	0.0025
666.049	0.0024
666.312	0.0019
666.574	0.0026
666.837	0.0042
667.099	0.0028
667.361	0.0041
667.624	0.0028
667.886	0.0024
668.148	0.0038
668.41	0.0038
668.672	0.003
668.934	0.0035
669.196	0.0028
669.458	0.0017
669.72	0.0012
669.982	0.0017
670.243	0.0006
670.505	0.0014
670.766	0.0009
671.028	0.0018
671.289	0.002
671.551	0.0018
671.812	0.0009
672.073	0.0015
672.334	0.0018
672.596	0.0012
672.857	0.0017
673.118	0.0022
673.379	0.0027
673.639	0.0032
673.9	0.0028
674.161	0.0021
674.422	0.0019
674.682	0.0008
674.943	0.0006
675.203	0.0013
675.464	0.0016
675.724	0.0018
675.985	0.0012
676.245	0.0009
676.505	0.0006
676.765	-0.0004
677.025	0.0011
677.285	-0.0006
677.545	0.0004
677.805	-0.0004
678.065	0.0014
678.325	0.002
678.585	0.0022
678.844	0.002
679.104	0.0034
679.363	0.0048
679.623	0.0043
679.882	0.0042
680.142	0.0042
680.401	0.0039
680.66	0.0042
680.919	0.0022
681.178	0.0029
681.437	0.003
681.696	0.0019
681.955	0.0046
682.214	0.0039
682.473	0.0036
682.732	0.0028
682.99	0.0043
683.249	0.0038
683.508	0.0032
683.766	0.003
684.024	0.0029
684.283	0.0012
684.541	0.0008
684.799	0.0009
685.058	-0.0005
685.316	-0.0012
685.574	-0.0015
685.832	-0.0005
686.09	-0.0002
686.348	-0.001
686.606	0.0002
686.863	-0.0011
687.121	-0.0008
687.379	-0.0018
687.636	-0.0015
687.894	-0.0013
688.151	-0.0016
688.409	-0.0011
688.666	0.0001
688.923	-0.0005
689.181	-0.0001
689.438	-0.0005
689.695	-0.0002
689.952	-0
690.209	0.0001
690.466	-0.0004
690.723	-0.0007
690.979	-0.0007
691.236	-0.0013
691.493	-0.0019
691.75	-0.0013
692.006	-0.0004
692.263	-0.0018
692.519	-0.0021
692.775	-0.0027
693.032	-0.0026
693.288	-0.0033
693.544	-0.002
693.8	-0.001
694.056	-0.0016
694.313	-0.0012
694.568	-0.0002
694.824	-0.0005
695.08	-0.0007
695.336	0.0002
695.592	-0.0004
695.847	0.0011
696.103	0.0021
696.359	0.0026
696.614	0.0017
696.869	0.0002
697.125	-0.0011
697.38	-0.0009
697.635	-0
697.891	0.0013
698.146	0.0012
698.401	0.0006
698.656	0.0001
698.911	0.0009
699.166	0.0012
699.42	0.0011
699.675	0.0023
699.93	0.0026
700.185	0.0023
700.439	0.0026
700.694	0.0023
700.948	0.0013
701.203	0.0019
701.457	0.001
701.711	0.0011
701.965	0.0002
702.22	-0.0003
702.474	0.0004
702.728	0.0001
702.982	0.0005
703.236	-0.0002
703.49	-0.0001
703.743	-0.0006
703.997	0.0003
704.251	-0.001
704.504	0.0009
704.758	0.0005
705.012	0.0016
705.265	0.0013
705.518	0.0017
705.772	0.001
706.025	0.0019
706.278	0.001
706.531	0.0004
706.785	-0.0014
707.038	-0.0019
707.291	-0.0015
707.543	-0.0012
707.796	-0.0017
708.049	-0.0018
708.302	-0.0014
708.555	-0.0013
708.807	-0.0008
709.06	-0.0006
709.312	0.0008
709.565	0.0012
709.817	0.0023
710.069	0.0003
710.322	0.0021
710.574	0.0019
710.826	0.0016
711.078	0.0012
711.33	0.0011
711.582	0.0015
711.834	0.0005
712.086	0.0015
712.338	0.0016
712.59	0.0003
712.841	-0.0015
713.093	-0.0008
713.344	-0.0001
713.596	-0.0008
713.847	-0.0017
714.099	-0.0016
714.35	-0.0001
714.601	-0.0013
714.853	-0.0018
715.104	-0.0008
715.355	-0.0017
715.606	0.0001
715.857	0.0005
716.108	0.0008
716.359	0.001
716.609	-0.0001
716.86	0.0013
717.111	0.0003
717.361	0.0004
717.612	0.0006
717.863	0.0009
718.113	0.0021
718.363	0.0013
718.614	0.002
718.864	0.0016
719.114	0.0009
719.364	-0.0004
719.614	-0.0002
719.865	0.0002
720.114	0.0005
720.364	-0.0001
720.614	-0.0006
720.864	-0.0005
721.114	-0.0018
721.364	-0.0019
721.613	-0.0017
721.863	-0.0013
722.112	-0.0012
722.362	-0.001
722.611	0.0004
722.86	0.0005
723.11	0.0014
723.359	0.0013
723.608	0.0016
723.857	0.0031
724.106	0.0019
724.355	0.0017
724.604	0.001
724.853	-0.0007
725.102	-0.0009
725.351	-0.0024
725.599	-0.0027
725.848	-0.0023
726.097	-0.0011
726.345	-0.0016
726.594	-0.0017
726.842	-0.0008
727.09	-0.001
727.339	-0.0008
727.587	-0.0019
727.835	-0.0024
728.083	-0.0025
728.331	-0.0028
728.579	-0.001
728.827	-0.0022
729.075	-0.0021
729.323	-0.0035
729.571	-0.0041
729.818	-0.0041
730.066	-0.0027
730.314	-0.0022
730.561	-0.0023
730.809	-0.0037
731.056	-0.0026
731.303	-0.0031
731.551	-0.0029
731.798	-0.0022
732.045	-0.0009
732.292	-0.0017
732.539	-0.0013
732.786	-0.0025
733.033	-0.0026
733.28	-0.0019
733.527	-0.0022
733.774	-0.0026
734.021	-0.003
734.267	-0.0018
734.514	-0.0023
734.76	-0.0021
735.007	-0.0022
735.253	-0.0012
735.5	0.0006
735.746	0.0021
735.992	0.0017
736.238	0.0017
736.485	0.0021
736.731	0.0014
736.977	0.0002
737.223	0.0003
737.469	-0.0005
737.715	0.0008
737.96	0.0009
738.206	0.0007
738.452	0.0006
738.697	0.0002
738.943	-0.0008
739.189	-0
739.434	-0.0003
739.679	0.001
739.925	0.0023
740.17	0.0024
740.415	0.0015
740.66	0.0018
740.906	0.0019
741.151	0.0016
741.396	0.0005
741.641	0.0001
741.886	0.0011
742.13	-0.0003
742.375	0.0016
742.62	-0.0004
742.865	-0.0006
743.109	0
743.354	-0.0005
743.598	-0.0008
743.843	-0.0021
744.087	-0.0022
744.331	-0.0027
744.576	-0.0012
744.82	-0.0007
745.064	-0
745.308	0.0007
745.552	-0.0003
745.796	-0.0013
746.04	-0.0008
746.284	-0.0014
746.528	-0.0001
746.771	-0.0005
747.015	-0.0007
747.259	-0.0022
747.502	-0.0017
747.746	-0.001
747.989	0.0003
748.233	0.0009
748.476	0.0008
748.719	0.0009
748.963	0.0005
749.206	0.001
749.449	-0
749.692	0.0009
749.935	0.0003
750.178	0.0008
750.421	-0.0004
750.664	0.0005
750.906	0.001
751.149	0.0001
751.392	0.0015
751.635	0.0007
751.877	0.0008
752.12	0.0002
752.362	0.0013
752.604	0.0016
752.847	0.0012
753.089	0.0009
753.331	0.0008
753.573	0.0012
753.816	0.0011
754.058	0.0018
754.3	0.0021
754.542	0.0025
754.783	0.0019
755.025	0.003
755.267	0.0025
755.509	0.003
755.75	0.0008
755.992	0.0017
756.234	0.0017
756.475	0.0018
756.716	0.0015
756.958	0
757.199	0.001
757.44	0.0019
757.682	0.0008
757.923	0.0021
758.164	0.0026
758.405	0.0024
758.646	0.0021
758.887	0.0014
759.128	0.0009
759.369	-0.0004
759.609	-0.0003
759.85	0.0004
760.091	0.0004
760.331	0.0008
760.572	0.001
760.812	0.0004
761.053	0.0007
761.293	0.0017
761.533	0.002
761.774	0.0019
762.014	0.0025
762.254	0.0017
762.494	0.0021
762.734	0.001
762.974	0.0018
763.214	0.0014
763.454	0.0014
763.694	0.0014
763.933	0.0035
764.173	0.004
764.413	0.004
764.652	0.0014
764.892	0.0019
765.131	0.0013
765.371	0.0007
765.61	0.0001
765.849	-0.0014
766.089	-0.0017
766.328	-0.0008
766.567	-0.0018
766.806	-0.0025
767.045	-0.0033
767.284	-0.0016
767.523	-0.0019
767.762	-0.0022
768.001	-0.0022
768.239	-0.0013
768.478	-0.0022
768.717	-0.0021
768.955	-0.0024
769.194	-0.0019
769.432	-0.0013
769.671	-0.0016
769.909	-0.0018
770.148	-0.0011
770.386	-0.0016
770.624	-0.0007
770.862	-0.0013
771.1	-0.0014
771.338	-0.0021
771.576	-0.001
771.814	0.0004
772.052	0.0002
772.29	0.0012
772.528	0.0003
772.765	-0.0001
773.003	-0
773.24	0.0009
773.478	0
773.716	0.0024
773.953	0.002
774.19	0.0021
774.428	0.0032
774.665	0.0039
774.902	0.0046
775.139	0.0034
775.376	0.0016
775.613	0.0017
775.85	0.0023
776.087	0.002
776.324	0.0014
776.561	0.0002
776.798	0.0003
777.034	0.0001
777.271	0.0009
777.508	0.001
777.744	0.0027
777.981	0.0021
778.217	0.0016
778.454	0.0009
778.69	0.0003
778.926	0.0001
779.162	0.0003
779.399	0.002
779.635	0.0014
779.871	0.0005
780.107	0.0002
780.343	-0.001
780.579	-0.0004
780.814	-0.0001
781.05	-0.0002
781.286	-0.0002
781.522	-0.001
781.757	-0.0015
781.993	-0.0008
782.228	-0.0017
782.464	-0.0006
782.699	0
782.934	-0.0004
783.17	0.0001
783.405	0.0006
783.64	-0.0002
783.875	-0.0004
784.11	-0.0015
784.345	-0.0006
784.58	-0.0004
784.815	-0.0009
785.05	-0.0007
785.285	-0.0016
785.52	-0.001
785.754	-0.0003
785.989	0.0002
786.223	0.0012
786.458	0.0018
786.692	0.0034
786.927	0.0044
787.161	0.0036
787.396	0.0046
787.63	0.0035
787.864	0.0012
788.098	0.0004
788.332	0.0001
788.566	-0.0008
788.8	-0.0009
789.034	-0.0005
789.268	0
789.502	-0
789.736	-0.0001
789.969	0.0003
790.203	0.0005
790.437	0.0011
790.67	0.0013
790.904	0.0026
791.137	0.003
791.37	0.0033
791.604	0.0037
791.837	0.0042
792.07	0.004
792.303	0.0052
792.537	0.0053
792.77	0.0041
793.003	0.0044
793.236	0.0031
793.469	0.0033
793.701	0.0019
793.934	0.0013
794.167	0.0006
794.4	0.0004
794.632	0.0003
794.865	-0.0002
795.097	-0.0012
795.33	-0.0021
795.562	-0.0019
795.795	-0.0009
796.027	0.0001
796.259	0.0003
796.491	0
796.724	0.001
796.956	0.0011
797.188	0.0009
797.42	0.001
797.652	0.0005
797.883	0.0012
798.115	0.0024
798.347	0.0023
798.579	0.002
798.81	0.002
799.042	0.0024
799.274	0.0038
799.505	0.0024
799.737	0.0016
799.968	0.0017
800.199	0.0011
800.431	0.0013
800.662	0.0007
800.893	0.0017
801.124	0.0012
801.355	0.0013
801.586	0.0022
801.817	0.0036
802.048	0.0031
802.279	0.003
802.51	0.0036
802.741	0.0038
802.971	0.0035
803.202	0.0034
803.433	0.0028
803.663	0.0028
803.894	0.0024
804.124	0.0022
804.354	0.0037
804.585	0.004
804.815	0.0038
805.045	0.0039
805.275	0.0035
805.506	-0.0264
805.736	-0.0806
805.966	-0.0626
806.196	-0.0512
