Data from 03 0.4 mM K2Cr2O7 0.25 M BQDS 1 M H2SO4 5 min_Absorbance_0097.txt Node
Date: Wed Dec 15 01:35:12 EST 2021
User: kwabilab-user
Spectrometer: HDX00518
Trigger mode: 0
Integration Time (sec): 5.000000E-2
Scans to average: 50
Nonlinearity correction enabled: false
Boxcar width: 0
Storing dark spectrum: false
XAxis mode: Wavelengths
Number of Pixels in Spectrum: 2068
>>>>>Begin Spectral Data<<<<<
195.27	-0.1733
195.642	0.047
196.014	-0.2949
196.386	-0.1921
196.758	-0.0948
197.129	-0.0385
197.501	-0.0639
197.872	-0.0005
198.244	-0.0039
198.615	0.0246
198.986	0.0125
199.357	0.0031
199.728	0.0095
200.099	0.0114
200.47	0.0066
200.841	0.0266
201.212	0.0067
201.582	0.0167
201.953	0.0177
202.323	0.0072
202.694	0.0116
203.064	-0.0102
203.434	-0.0123
203.804	-0.017
204.174	0.0183
204.544	0.0156
204.914	-0.0285
205.284	-0.011
205.653	-0.0161
206.023	0.0043
206.393	0.0037
206.762	-0.0086
207.131	-0
207.501	0.0168
207.87	-0.0052
208.239	0.0067
208.608	0.0093
208.977	-0.0102
209.346	0.0087
209.715	-0.0024
210.083	-0.004
210.452	0.0013
210.82	0.0046
211.189	-0.0074
211.557	0.0088
211.925	-0.0183
212.294	-0.008
212.662	0.0191
213.03	0.0157
213.398	-0.0006
213.766	-0.0128
214.133	-0.0072
214.501	-0.0006
214.869	-0.0141
215.236	-0.0094
215.604	0.0211
215.971	0.0351
216.338	0.0054
216.705	0.011
217.072	0.0368
217.439	0.0182
217.806	0.0282
218.173	0.0363
218.54	0.0339
218.907	0.0488
219.273	0.0425
219.64	0.0476
220.006	0.073
220.373	0.0816
220.739	0.0828
221.105	0.1207
221.471	0.111
221.837	0.1328
222.203	0.1635
222.569	0.1663
222.935	0.1914
223.3	0.2181
223.666	0.2351
224.031	0.2509
224.397	0.2675
224.762	0.2894
225.127	0.316
225.493	0.3405
225.858	0.3798
226.223	0.3949
226.588	0.4172
226.952	0.4298
227.317	0.4611
227.682	0.4573
228.046	0.4795
228.411	0.5058
228.775	0.5094
229.14	0.5257
229.504	0.5492
229.868	0.5561
230.232	0.5512
230.596	0.5711
230.96	0.5984
231.324	0.5807
231.688	0.5751
232.052	0.6089
232.415	0.6059
232.779	0.6084
233.142	0.6134
233.505	0.6201
233.869	0.6124
234.232	0.6208
234.595	0.6197
234.958	0.6184
235.321	0.6282
235.684	0.6274
236.047	0.6147
236.409	0.6174
236.772	0.612
237.134	0.6041
237.497	0.604
237.859	0.6201
238.222	0.6147
238.584	0.599
238.946	0.5935
239.308	0.5888
239.67	0.588
240.032	0.6001
240.393	0.5929
240.755	0.5788
241.117	0.5908
241.478	0.5835
241.84	0.5832
242.201	0.5775
242.562	0.576
242.924	0.5674
243.285	0.5731
243.646	0.5664
244.007	0.5665
244.368	0.5627
244.728	0.5636
245.089	0.5598
245.45	0.5598
245.81	0.5569
246.171	0.54
246.531	0.5515
246.891	0.5484
247.252	0.5415
247.612	0.5501
247.972	0.5404
248.332	0.5439
248.692	0.547
249.051	0.5439
249.411	0.5406
249.771	0.5354
250.13	0.5344
250.49	0.539
250.849	0.5314
251.208	0.5326
251.568	0.5351
251.927	0.5339
252.286	0.5368
252.645	0.5315
253.004	0.534
253.363	0.5341
253.721	0.5322
254.08	0.5366
254.439	0.5283
254.797	0.5278
255.155	0.5275
255.514	0.523
255.872	0.5259
256.23	0.5227
256.588	0.5316
256.946	0.5264
257.304	0.5247
257.662	0.5356
258.02	0.5209
258.377	0.5252
258.735	0.5216
259.093	0.5193
259.45	0.5177
259.807	0.5229
260.165	0.5181
260.522	0.5174
260.879	0.5133
261.236	0.5182
261.593	0.5154
261.95	0.5137
262.306	0.5123
262.663	0.5074
263.02	0.5108
263.376	0.5043
263.733	0.5035
264.089	0.5025
264.445	0.5018
264.802	0.4996
265.158	0.5005
265.514	0.5006
265.87	0.4973
266.226	0.4912
266.581	0.4914
266.937	0.4907
267.293	0.489
267.648	0.4862
268.004	0.4859
268.359	0.4824
268.714	0.478
269.07	0.477
269.425	0.4767
269.78	0.4689
270.135	0.4677
270.49	0.4696
270.844	0.4678
271.199	0.4628
271.554	0.4626
271.908	0.457
272.263	0.4566
272.617	0.4538
272.972	0.4478
273.326	0.4454
273.68	0.4437
274.034	0.4418
274.388	0.438
274.742	0.4412
275.096	0.4304
275.45	0.4321
275.803	0.4283
276.157	0.4243
276.51	0.4195
276.864	0.4156
277.217	0.4208
277.571	0.4135
277.924	0.4044
278.277	0.4025
278.63	0.3997
278.983	0.3943
279.336	0.3937
279.688	0.3881
280.041	0.3838
280.394	0.377
280.746	0.3775
281.099	0.3744
281.451	0.3706
281.803	0.3652
282.156	0.3609
282.508	0.3558
282.86	0.3539
283.212	0.3519
283.564	0.3478
283.916	0.3413
284.267	0.3377
284.619	0.3364
284.971	0.3329
285.322	0.3305
285.673	0.3248
286.025	0.3212
286.376	0.3203
286.727	0.3147
287.078	0.3106
287.429	0.3091
287.78	0.3034
288.131	0.3024
288.482	0.2968
288.833	0.2926
289.183	0.2903
289.534	0.2881
289.884	0.2841
290.235	0.2802
290.585	0.2774
290.935	0.2756
291.285	0.2717
291.635	0.2679
291.985	0.264
292.335	0.2614
292.685	0.2579
293.035	0.2545
293.384	0.2511
293.734	0.2469
294.083	0.2463
294.433	0.2426
294.782	0.2391
295.131	0.2346
295.48	0.2326
295.829	0.2293
296.179	0.2253
296.527	0.2225
296.876	0.2202
297.225	0.2147
297.574	0.213
297.922	0.2091
298.271	0.2063
298.619	0.203
298.968	0.2028
299.316	0.1993
299.664	0.1975
300.012	0.1936
300.36	0.1908
300.708	0.1891
301.056	0.1858
301.404	0.1844
301.752	0.1815
302.099	0.1778
302.447	0.1764
302.794	0.1736
303.142	0.171
303.489	0.1688
303.836	0.1671
304.183	0.1651
304.531	0.1641
304.878	0.1617
305.224	0.1595
305.571	0.1581
305.918	0.156
306.265	0.1542
306.611	0.1529
306.958	0.1515
307.304	0.1512
307.651	0.1491
307.997	0.1476
308.343	0.1471
308.689	0.1461
309.035	0.1448
309.381	0.1435
309.727	0.1421
310.073	0.1412
310.419	0.1409
310.764	0.1407
311.11	0.1387
311.455	0.1393
311.801	0.1384
312.146	0.1371
312.491	0.1363
312.837	0.1361
313.182	0.1361
313.527	0.135
313.872	0.1357
314.216	0.1351
314.561	0.1345
314.906	0.1344
315.251	0.1354
315.595	0.1357
315.94	0.1351
316.284	0.1349
316.628	0.1344
316.972	0.1354
317.317	0.1346
317.661	0.1355
318.005	0.1351
318.348	0.1356
318.692	0.1358
319.036	0.1366
319.38	0.1374
319.723	0.1375
320.067	0.138
320.41	0.1391
320.754	0.1384
321.097	0.1387
321.44	0.1403
321.783	0.1416
322.126	0.1419
322.469	0.1423
322.812	0.1436
323.155	0.1438
323.498	0.145
323.84	0.1457
324.183	0.1467
324.525	0.1476
324.868	0.1488
325.21	0.1492
325.552	0.1509
325.894	0.1518
326.236	0.1511
326.578	0.1526
326.92	0.1542
327.262	0.1543
327.604	0.1556
327.946	0.1564
328.287	0.1576
328.629	0.159
328.97	0.1599
329.312	0.1607
329.653	0.1622
329.994	0.1631
330.335	0.1647
330.676	0.1665
331.017	0.1673
331.358	0.1679
331.699	0.1692
332.04	0.1701
332.38	0.1719
332.721	0.1728
333.061	0.1736
333.402	0.1748
333.742	0.176
334.083	0.1766
334.423	0.1781
334.763	0.1794
335.103	0.1801
335.443	0.1812
335.783	0.1821
336.123	0.1825
336.462	0.1838
336.802	0.1846
337.141	0.1859
337.481	0.1864
337.82	0.1871
338.16	0.1883
338.499	0.1899
338.838	0.19
339.177	0.1912
339.516	0.1919
339.855	0.1923
340.194	0.1939
340.533	0.1939
340.872	0.1947
341.21	0.1968
341.549	0.196
341.887	0.1963
342.226	0.1973
342.564	0.198
342.902	0.1988
343.24	0.1986
343.578	0.1996
343.916	0.199
344.254	0.1991
344.592	0.2005
344.93	0.2004
345.268	0.1998
345.605	0.2004
345.943	0.2
346.28	0.2007
346.618	0.2009
346.955	0.2009
347.292	0.2015
347.629	0.2017
347.966	0.2011
348.303	0.2008
348.64	0.2014
348.977	0.2011
349.314	0.2009
349.65	0.2009
349.987	0.2014
350.324	0.2006
350.66	0.2015
350.996	0.2008
351.333	0.2006
351.669	0.1992
352.005	0.1999
352.341	0.1986
352.677	0.1982
353.013	0.1969
353.349	0.1968
353.685	0.1957
354.02	0.1949
354.356	0.195
354.691	0.1932
355.027	0.1929
355.362	0.1912
355.697	0.1909
356.033	0.1909
356.368	0.1899
356.703	0.1887
357.038	0.1881
357.373	0.1864
357.707	0.1862
358.042	0.1859
358.377	0.185
358.711	0.1843
359.046	0.183
359.38	0.1822
359.715	0.1822
360.049	0.1807
360.383	0.1791
360.717	0.1782
361.051	0.1779
361.385	0.1767
361.719	0.1751
362.053	0.175
362.387	0.1724
362.72	0.1719
363.054	0.1704
363.387	0.1692
363.721	0.1673
364.054	0.1659
364.387	0.1645
364.721	0.163
365.054	0.1621
365.387	0.1604
365.72	0.1593
366.053	0.1584
366.385	0.1561
366.718	0.1554
367.051	0.1537
367.383	0.1534
367.716	0.1527
368.048	0.1515
368.381	0.1507
368.713	0.1483
369.045	0.1476
369.377	0.1466
369.709	0.1456
370.041	0.1444
370.373	0.1433
370.705	0.1422
371.037	0.1407
371.368	0.1402
371.7	0.1382
372.031	0.1365
372.363	0.1356
372.694	0.135
373.025	0.1324
373.356	0.1313
373.688	0.1297
374.019	0.1287
374.35	0.1269
374.68	0.1249
375.011	0.1233
375.342	0.1222
375.673	0.1206
376.003	0.1186
376.334	0.1182
376.664	0.1162
376.995	0.1156
377.325	0.1139
377.655	0.1116
377.985	0.1113
378.315	0.1099
378.645	0.1088
378.975	0.1081
379.305	0.1064
379.635	0.1066
379.964	0.1053
380.294	0.1046
380.623	0.1031
380.953	0.1013
381.282	0.1011
381.611	0.1003
381.941	0.0996
382.27	0.0981
382.599	0.0974
382.928	0.0954
383.257	0.0941
383.585	0.0936
383.914	0.0919
384.243	0.0905
384.571	0.0902
384.9	0.088
385.228	0.0868
385.557	0.0858
385.885	0.0836
386.213	0.0833
386.541	0.0819
386.869	0.0804
387.197	0.079
387.525	0.078
387.853	0.0772
388.181	0.0757
388.508	0.0742
388.836	0.0735
389.164	0.0727
389.491	0.0715
389.818	0.0703
390.146	0.0699
390.473	0.0684
390.8	0.0681
391.127	0.0668
391.454	0.0664
391.781	0.0657
392.108	0.0647
392.435	0.0632
392.761	0.0629
393.088	0.0629
393.415	0.062
393.741	0.0613
394.067	0.0613
394.394	0.0603
394.72	0.0592
395.046	0.0582
395.372	0.0569
395.698	0.0565
396.024	0.0558
396.35	0.0551
396.676	0.0548
397.001	0.0539
397.327	0.0529
397.653	0.0524
397.978	0.0524
398.303	0.0505
398.629	0.0507
398.954	0.0496
399.279	0.0496
399.604	0.0489
399.929	0.0487
400.254	0.048
400.579	0.0471
400.904	0.0465
401.229	0.0462
401.553	0.0452
401.878	0.0448
402.202	0.0449
402.527	0.0444
402.851	0.0439
403.175	0.0431
403.5	0.0434
403.824	0.042
404.148	0.0421
404.472	0.0419
404.796	0.0419
405.119	0.0412
405.443	0.0409
405.767	0.0411
406.09	0.0408
406.414	0.0401
406.737	0.0406
407.061	0.0403
407.384	0.0396
407.707	0.0397
408.03	0.0391
408.353	0.0388
408.676	0.039
408.999	0.0387
409.322	0.0383
409.645	0.038
409.968	0.0388
410.29	0.0379
410.613	0.0392
410.935	0.0378
411.258	0.038
411.58	0.0371
411.902	0.0378
412.224	0.0372
412.546	0.038
412.868	0.0382
413.19	0.0377
413.512	0.0372
413.834	0.0377
414.156	0.0381
414.477	0.0366
414.799	0.0373
415.121	0.0363
415.442	0.037
415.763	0.0364
416.085	0.0372
416.406	0.037
416.727	0.0369
417.048	0.0369
417.369	0.0372
417.69	0.0369
418.011	0.0366
418.331	0.0369
418.652	0.0364
418.973	0.0362
419.293	0.0366
419.614	0.0366
419.934	0.0374
420.254	0.0369
420.574	0.0357
420.895	0.0361
421.215	0.0361
421.535	0.0369
421.855	0.0361
422.174	0.0354
422.494	0.0358
422.814	0.0366
423.134	0.036
423.453	0.0369
423.773	0.0372
424.092	0.0362
424.411	0.0366
424.731	0.0367
425.05	0.0366
425.369	0.0367
425.688	0.0364
426.007	0.0364
426.326	0.037
426.644	0.0364
426.963	0.0371
427.282	0.0369
427.6	0.0359
427.919	0.0365
428.237	0.0365
428.556	0.0369
428.874	0.0364
429.192	0.036
429.51	0.0362
429.828	0.0362
430.146	0.0367
430.464	0.0356
430.782	0.0359
431.1	0.0354
431.418	0.0363
431.735	0.0354
432.053	0.036
432.37	0.0365
432.688	0.0363
433.005	0.0356
433.322	0.0367
433.639	0.0362
433.957	0.0358
434.274	0.0365
434.591	0.0368
434.907	0.0363
435.224	0.0364
435.541	0.0368
435.858	0.0371
436.174	0.0367
436.491	0.0361
436.807	0.0354
437.124	0.0361
437.44	0.0355
437.756	0.0363
438.072	0.0353
438.388	0.0353
438.704	0.0361
439.02	0.0356
439.336	0.0351
439.652	0.0356
439.968	0.0355
440.283	0.0357
440.599	0.0359
440.914	0.0357
441.23	0.0357
441.545	0.0356
441.86	0.0355
442.175	0.036
442.491	0.035
442.806	0.036
443.121	0.0346
443.435	0.0348
443.75	0.0347
444.065	0.0348
444.38	0.0355
444.694	0.0347
445.009	0.0346
445.323	0.0351
445.638	0.0347
445.952	0.0346
446.266	0.034
446.58	0.0337
446.894	0.0353
447.208	0.0339
447.522	0.0334
447.836	0.0342
448.15	0.0341
448.464	0.0328
448.777	0.0341
449.091	0.0338
449.404	0.033
449.718	0.0324
450.031	0.0329
450.345	0.0331
450.658	0.033
450.971	0.033
451.284	0.033
451.597	0.0335
451.91	0.0326
452.223	0.0326
452.535	0.0323
452.848	0.0328
453.161	0.0324
453.473	0.0325
453.786	0.0326
454.098	0.0321
454.411	0.0319
454.723	0.0326
455.035	0.0313
455.347	0.0314
455.659	0.0318
455.971	0.032
456.283	0.0323
456.595	0.0318
456.907	0.0313
457.218	0.0323
457.53	0.0309
457.841	0.0307
458.153	0.031
458.464	0.0306
458.776	0.0303
459.087	0.0309
459.398	0.0307
459.709	0.0304
460.02	0.031
460.331	0.0303
460.642	0.0302
460.953	0.0296
461.263	0.0299
461.574	0.0287
461.885	0.0302
462.195	0.0289
462.506	0.0283
462.816	0.0294
463.126	0.0295
463.437	0.0281
463.747	0.0279
464.057	0.0262
464.367	0.0266
464.677	0.0279
464.987	0.0275
465.296	0.0273
465.606	0.0266
465.916	0.0265
466.225	0.0271
466.535	0.0268
466.844	0.0265
467.154	0.0281
467.463	0.0269
467.772	0.0263
468.081	0.0263
468.39	0.0269
468.699	0.0266
469.008	0.0263
469.317	0.0254
469.626	0.0259
469.935	0.0254
470.243	0.026
470.552	0.0252
470.86	0.0253
471.169	0.0244
471.477	0.024
471.785	0.0245
472.093	0.0235
472.402	0.0237
472.71	0.0231
473.018	0.0228
473.326	0.0234
473.633	0.0233
473.941	0.0235
474.249	0.0236
474.556	0.0232
474.864	0.0229
475.171	0.0226
475.479	0.0225
475.786	0.0227
476.094	0.0219
476.401	0.022
476.708	0.0222
477.015	0.0221
477.322	0.0201
477.629	0.0209
477.936	0.0216
478.242	0.0211
478.549	0.0211
478.856	0.0208
479.162	0.0209
479.469	0.0203
479.775	0.02
480.081	0.0194
480.388	0.019
480.694	0.0197
481	0.0191
481.306	0.0187
481.612	0.0196
481.918	0.02
482.224	0.0189
482.53	0.0193
482.835	0.0192
483.141	0.019
483.446	0.0188
483.752	0.0182
484.057	0.0181
484.363	0.0175
484.668	0.0178
484.973	0.0168
485.278	0.0167
485.583	0.0166
485.888	0.0171
486.193	0.0164
486.498	0.0168
486.803	0.0162
487.107	0.016
487.412	0.0153
487.717	0.016
488.021	0.0163
488.325	0.0152
488.63	0.0161
488.934	0.0159
489.238	0.0153
489.542	0.0153
489.846	0.0149
490.15	0.0155
490.454	0.0152
490.758	0.0145
491.062	0.0147
491.366	0.0143
491.669	0.0142
491.973	0.0138
492.276	0.0144
492.58	0.0135
492.883	0.0143
493.186	0.0134
493.489	0.0143
493.792	0.0126
494.096	0.0131
494.399	0.0129
494.701	0.0133
495.004	0.0121
495.307	0.012
495.61	0.0129
495.912	0.0138
496.215	0.012
496.517	0.013
496.82	0.0116
497.122	0.0118
497.424	0.0113
497.727	0.0117
498.029	0.0114
498.331	0.0108
498.633	0.0116
498.935	0.0103
499.237	0.0121
499.538	0.0104
499.84	0.0106
500.142	0.0106
500.443	0.0103
500.745	0.0098
501.046	0.0096
501.348	0.0091
501.649	0.0094
501.95	0.0096
502.251	0.0105
502.552	0.0093
502.853	0.0097
503.154	0.0098
503.455	0.0091
503.756	0.0092
504.057	0.0085
504.357	0.0099
504.658	0.0086
504.958	0.0083
505.259	0.0093
505.559	0.008
505.859	0.0074
506.16	0.0075
506.46	0.0085
506.76	0.0078
507.06	0.007
507.36	0.0074
507.66	0.0082
507.96	0.0097
508.259	0.0081
508.559	0.0076
508.859	0.0076
509.158	0.0074
509.457	0.0067
509.757	0.0068
510.056	0.0073
510.355	0.0071
510.655	0.007
510.954	0.0064
511.253	0.0071
511.552	0.0075
511.851	0.007
512.149	0.0067
512.448	0.0065
512.747	0.0061
513.045	0.0056
513.344	0.0055
513.642	0.0057
513.941	0.0066
514.239	0.0055
514.537	0.0057
514.836	0.0056
515.134	0.005
515.432	0.0052
515.73	0.0065
516.028	0.0052
516.326	0.0048
516.623	0.0048
516.921	0.0046
517.219	0.0062
517.516	0.0053
517.814	0.006
518.111	0.0052
518.409	0.0054
518.706	0.0057
519.003	0.0041
519.3	0.005
519.597	0.0055
519.894	0.0041
520.191	0.0056
520.488	0.0058
520.785	0.0044
521.082	0.0054
521.378	0.0053
521.675	0.0043
521.971	0.004
522.268	0.0049
522.564	0.0044
522.861	0.0061
523.157	0.0045
523.453	0.0045
523.749	0.0044
524.045	0.0036
524.341	0.0041
524.637	0.0034
524.933	0.0052
525.229	0.0034
525.524	0.0037
525.82	0.0041
526.115	0.004
526.411	0.0045
526.706	0.0042
527.002	0.0046
527.297	0.0035
527.592	0.0038
527.887	0.0033
528.182	0.0034
528.477	0.0043
528.772	0.0038
529.067	0.0035
529.362	0.004
529.657	0.0036
529.951	0.0035
530.246	0.0025
530.54	0.0035
530.835	0.0031
531.129	0.004
531.423	0.0034
531.718	0.0037
532.012	0.0022
532.306	0.0034
532.6	0.0019
532.894	0.003
533.188	0.002
533.482	0.0031
533.775	0.0022
534.069	0.0031
534.363	0.0027
534.656	0.0028
534.95	0.0033
535.243	0.0037
535.536	0.0021
535.83	0.002
536.123	0.0023
536.416	0.0023
536.709	0.0032
537.002	0.0034
537.295	0.0044
537.588	0.004
537.881	0.0026
538.173	0.003
538.466	0.0033
538.759	0.0035
539.051	0.0038
539.344	0.0034
539.636	0.0027
539.928	0.0037
540.22	0.0024
540.513	0.0032
540.805	0.004
541.097	0.0038
541.389	0.0027
541.681	0.0037
541.972	0.0034
542.264	0.0044
542.556	0.0039
542.847	0.003
543.139	0.003
543.431	0.0032
543.722	0.0031
544.013	0.0036
544.305	0.0035
544.596	0.0031
544.887	0.0045
545.178	0.0041
545.469	0.004
545.76	0.0036
546.051	0.0046
546.342	0.0032
546.632	0.0031
546.923	0.0029
547.214	0.002
547.504	0.0031
547.795	0.0028
548.085	0.0039
548.375	0.0031
548.666	0.0047
548.956	0.0029
549.246	0.0043
549.536	0.0047
549.826	0.0042
550.116	0.0042
550.406	0.003
550.695	0.0037
550.985	0.0042
551.275	0.004
551.564	0.0051
551.854	0.0045
552.143	0.004
552.433	0.0043
552.722	0.0038
553.011	0.0047
553.3	0.0036
553.589	0.0041
553.879	0.0041
554.167	0.0033
554.456	0.0029
554.745	0.0047
555.034	0.0047
555.323	0.0031
555.611	0.0044
555.9	0.004
556.188	0.0035
556.477	0.0029
556.765	0.0051
557.053	0.0038
557.342	0.0033
557.63	0.004
557.918	0.0028
558.206	0.004
558.494	0.0037
558.782	0.0044
559.069	0.0055
559.357	0.004
559.645	0.0042
559.932	0.0041
560.22	0.0045
560.507	0.0021
560.795	0.0027
561.082	0.002
561.37	0.0037
561.657	0.0022
561.944	0.0033
562.231	0.0032
562.518	0.0027
562.805	0.0043
563.092	0.0026
563.379	0.0025
563.665	0.003
563.952	0.0045
564.239	0.0045
564.525	0.0034
564.811	0.0039
565.098	0.0031
565.384	0.0026
565.67	0.0037
565.957	0.0034
566.243	0.0043
566.529	0.003
566.815	0.004
567.101	0.0028
567.387	0.003
567.672	0.0027
567.958	0.0024
568.244	0.0023
568.529	0.0027
568.815	0.0026
569.1	0.0031
569.386	0.0039
569.671	0.0034
569.956	0.003
570.242	0.0029
570.527	0.0021
570.812	0.0023
571.097	0.0022
571.382	0.0014
571.666	0.0026
571.951	0.0035
572.236	0.003
572.521	0.003
572.805	0.0034
573.09	0.003
573.374	0.0026
573.659	0.0028
573.943	0.0026
574.227	0.0029
574.511	0.0034
574.795	0.0028
575.079	0.0037
575.363	0.0033
575.647	0.0027
575.931	0.0034
576.215	0.0026
576.499	0.0028
576.782	0.0024
577.066	0.0027
577.349	0.0036
577.633	0.004
577.916	0.0029
578.2	0.004
578.483	0.0039
578.766	0.0039
579.049	0.0033
579.332	0.0025
579.615	0.0028
579.898	0.0025
580.181	0.0036
580.464	0.0035
580.746	0.0031
581.029	0.0029
581.312	0.0024
581.594	0.0017
581.877	0.003
582.159	0.0037
582.441	0.0024
582.724	0.0035
583.006	0.0029
583.288	0.003
583.57	0.003
583.852	0.0038
584.134	0.004
584.416	0.0026
584.697	0.0031
584.979	0.0026
585.261	0.0027
585.542	0.0032
585.824	0.0035
586.105	0.0041
586.387	0.0035
586.668	0.0031
586.949	0.0033
587.231	0.0035
587.512	0.0034
587.793	0.0026
588.074	0.003
588.355	0.0032
588.636	0.0028
588.916	0.0034
589.197	0.0024
589.478	0.0023
589.758	0.0027
590.039	0.0016
590.319	0.0024
590.6	0.0025
590.88	0.0028
591.16	0.0027
591.441	0.0033
591.721	0.0029
592.001	0.0022
592.281	0.0031
592.561	0.0034
592.841	0.0026
593.12	0.0032
593.4	0.0032
593.68	0.0026
593.959	0.0022
594.239	0.0027
594.518	0.004
594.798	0.0033
595.077	0.0026
595.356	0.0029
595.636	0.0026
595.915	0.0023
596.194	0.0026
596.473	0.0021
596.752	0.0018
597.031	0.0025
597.31	0.0018
597.588	0.0013
597.867	0.0019
598.146	0.0013
598.424	0.0014
598.703	0.0016
598.981	0.0018
599.259	0.0023
599.538	0.0037
599.816	0.0038
600.094	0.003
600.372	0.0029
600.65	0.0038
600.928	0.0035
601.206	0.0036
601.484	0.0037
601.762	0.004
602.04	0.0038
602.317	0.0036
602.595	0.0044
602.872	0.0039
603.15	0.0041
603.427	0.0018
603.704	0.0031
603.982	0.0029
604.259	0.002
604.536	0.0025
604.813	0.0022
605.09	0.0028
605.367	0.0024
605.644	0.002
605.921	0.0025
606.197	0.0016
606.474	0.0026
606.751	0.0022
607.027	0.0024
607.304	0.0025
607.58	0.0029
607.856	0.0031
608.133	0.0037
608.409	0.0042
608.685	0.0034
608.961	0.003
609.237	0.0029
609.513	0.0038
609.789	0.0029
610.065	0.0025
610.341	0.0019
610.616	0.003
610.892	0.0031
611.167	0.0029
611.443	0.0042
611.718	0.0035
611.994	0.0027
612.269	0.0023
612.544	0.0028
612.819	0.0026
613.095	0.0025
613.37	0.0021
613.645	0.0015
613.919	0.0028
614.194	0.0023
614.469	0.0021
614.744	0.0016
615.019	0.0012
615.293	0.0013
615.568	0.0019
615.842	0.0019
616.116	0.0019
616.391	0.0006
616.665	0.0004
616.939	0.0008
617.213	0.0012
617.488	0.0022
617.762	0.0026
618.035	0.0026
618.309	0.0028
618.583	0.0026
618.857	0.0028
619.131	0.0021
619.404	0.0019
619.678	0.0035
619.951	0.0031
620.225	0.0014
620.498	0.0014
620.771	0.0015
621.045	0.0016
621.318	0.0029
621.591	0.0025
621.864	0.0011
622.137	0.0011
622.41	0.001
622.683	0.0008
622.956	0.0005
623.228	0.0016
623.501	0.0019
623.774	0.0026
624.046	0.0013
624.319	0.0023
624.591	0.0014
624.863	0.0022
625.136	0.0023
625.408	0.0036
625.68	0.0022
625.952	0.0021
626.224	0.0022
626.496	0.0027
626.768	0.0019
627.04	0.0021
627.311	0.002
627.583	0.0028
627.855	0.0022
628.126	0.0005
628.398	0.0013
628.669	0.0013
628.941	0.0003
629.212	0
629.483	0.001
629.755	0.0004
630.026	0.0014
630.297	0.0007
630.568	0.0012
630.839	0.0021
631.11	0.0019
631.38	0.002
631.651	0.0022
631.922	0.0026
632.192	0.0014
632.463	0.0018
632.733	0.0011
633.004	0.0013
633.274	0.0008
633.545	0.0003
633.815	0.0032
634.085	0.0021
634.355	0.0022
634.625	0.0014
634.895	0.0014
635.165	0.0013
635.435	0.0027
635.705	0.0017
635.974	0.0018
636.244	0.0006
636.514	0.0005
636.783	-0.0002
637.053	0.001
637.322	0.0011
637.591	0.0002
637.861	-0.0006
638.13	-0.0006
638.399	0.0014
638.668	0.0018
638.937	0.0015
639.206	0.0006
639.475	0.0015
639.744	0.0011
640.013	0.0008
640.281	-0.0001
640.55	0.0008
640.819	0.0007
641.087	0.0002
641.356	0.0005
641.624	0.0003
641.892	0.0021
642.161	0.0014
642.429	0.0014
642.697	0.0008
642.965	-0.0004
643.233	-0.0008
643.501	-0.0003
643.769	0
644.037	-0.0007
644.305	-0.0007
644.572	-0.0006
644.84	-0.0014
645.108	-0.0001
645.375	0.0005
645.643	0.0011
645.91	0.001
646.177	0.0007
646.445	-0.0007
646.712	0.0004
646.979	-0.0003
647.246	0.0022
647.513	0.0003
647.78	0.0006
648.047	-0.0019
648.314	-0.0009
648.58	-0.0013
648.847	-0.0019
649.114	-0.0027
649.38	-0.0016
649.647	-0.0012
649.913	-0.001
650.18	0.0008
650.446	0.0009
650.712	0.0007
650.978	0.0015
651.245	0.0017
651.511	0.0025
651.777	0.0013
652.043	0.0005
652.309	0.0014
652.574	0.0005
652.84	0.0016
653.106	0.0013
653.371	0.0023
653.637	0.0018
653.903	0.0018
654.168	0.0007
654.433	0.0007
654.699	-0.0001
654.964	-0.0004
655.229	-0.0002
655.494	0.0013
655.759	-0.0004
656.024	0.0005
656.289	-0
656.554	0.0025
656.819	0.0022
657.084	0.0019
657.349	0.0006
657.613	0.001
657.878	0
658.142	0.0004
658.407	0.0008
658.671	0
658.936	0.0007
659.2	0.0007
659.464	0.0004
659.728	0.0008
659.992	-0.0002
660.256	-0.0016
660.52	-0.0012
660.784	-0.0013
661.048	-0.0007
661.312	-0.0008
661.575	-0.0007
661.839	0.0013
662.103	-0.0002
662.366	0.0006
662.63	0.0008
662.893	0.0004
663.156	0.0008
663.42	0.0017
663.683	0.0006
663.946	0.001
664.209	0.0014
664.472	0.002
664.735	0.0019
664.998	0.0024
665.261	0.0033
665.524	0.0028
665.786	0.0023
666.049	0.0024
666.312	0.0023
666.574	0.002
666.837	0.0021
667.099	0.002
667.361	0.0031
667.624	0.0019
667.886	0.0028
668.148	0.0021
668.41	0.002
668.672	0.0024
668.934	0.0027
669.196	0.0019
669.458	0.001
669.72	0.0012
669.982	0.0005
670.243	0.0002
670.505	0.0012
670.766	0.0002
671.028	0.0011
671.289	0.0016
671.551	0.0019
671.812	0.001
672.073	0.0011
672.334	0.0006
672.596	0.0002
672.857	0.0009
673.118	0.0011
673.379	0.0022
673.639	0.0012
673.9	0.0007
674.161	0.0004
674.422	0.0011
674.682	-0.0008
674.943	-0.0013
675.203	-0.0002
675.464	-0.0001
675.724	0.0003
675.985	0.0003
676.245	-0.0002
676.505	-0.0005
676.765	-0.0014
677.025	0.0004
677.285	-0.0002
677.545	-0.0006
677.805	-0
678.065	0.0001
678.325	0.0009
678.585	0.0016
678.844	0.0032
679.104	0.0026
679.363	0.0032
679.623	0.0025
679.882	0.002
680.142	0.0028
680.401	0.0034
680.66	0.004
680.919	0.0012
681.178	0.0026
681.437	0.0023
681.696	0.0016
681.955	0.0042
682.214	0.004
682.473	0.0029
682.732	0.0003
682.99	0.0029
683.249	0.0023
683.508	0.0024
683.766	0.0021
684.024	0.0007
684.283	-0.0004
684.541	0.0008
684.799	-0.0008
685.058	-0.0021
685.316	-0.0014
685.574	-0.0019
685.832	-0.0012
686.09	-0.001
686.348	-0.0018
686.606	-0.0009
686.863	-0.0022
687.121	-0.0013
687.379	-0.002
687.636	-0.0028
687.894	-0.0022
688.151	-0.0022
688.409	-0.0017
688.666	-0.0012
688.923	-0.0006
689.181	-0.0014
689.438	-0.0016
689.695	-0.0012
689.952	-0.0012
690.209	-0.0014
690.466	-0.0012
690.723	-0.001
690.979	-0.0022
691.236	-0.0024
691.493	-0.0028
691.75	-0.0018
692.006	-0.0026
692.263	-0.0021
692.519	-0.0029
692.775	-0.004
693.032	-0.0035
693.288	-0.0043
693.544	-0.0032
693.8	-0.0009
694.056	-0.002
694.313	-0.0031
694.568	-0.0015
694.824	-0.0009
695.08	-0.0015
695.336	-0.0011
695.592	-0.0014
695.847	0.0006
696.103	0.0003
696.359	0.0003
696.614	-0
696.869	-0.0009
697.125	-0.0014
697.38	-0.0011
697.635	0
697.891	0.0011
698.146	0.0003
698.401	0.0005
698.656	0.0003
698.911	0.0008
699.166	0.0008
699.42	0.0012
699.675	0.0017
699.93	0.0021
700.185	0.0018
700.439	0.0008
700.694	0.0013
700.948	0.0004
701.203	0.0014
701.457	0.0009
701.711	0.0001
701.965	-0.001
702.22	-0.0008
702.474	-0.0003
702.728	-0.0001
702.982	0.0004
703.236	0
703.49	0.0002
703.743	-0.0005
703.997	-0.0006
704.251	-0.0005
704.504	0.001
704.758	-0
705.012	0.0012
705.265	0.002
705.518	0.0009
705.772	0.0015
706.025	0.0014
706.278	0.0007
706.531	-0.0007
706.785	-0.0018
707.038	-0.0014
707.291	-0.0006
707.543	-0.0012
707.796	-0.0012
708.049	-0.0006
708.302	-0.0012
708.555	-0.0004
708.807	0
709.06	-0.0001
709.312	0.001
709.565	0.0008
709.817	0.0024
710.069	0.0006
710.322	0.0013
710.574	0.0016
710.826	0.0007
711.078	0.0008
711.33	0.0006
711.582	0.0004
711.834	0.0001
712.086	0.0008
712.338	0.0002
712.59	-0.0008
712.841	-0.0011
713.093	-0.0011
713.344	-0.001
713.596	-0.0015
713.847	-0.002
714.099	-0.0025
714.35	-0.0016
714.601	-0.003
714.853	-0.0029
715.104	-0.0024
715.355	-0.0021
715.606	-0.0001
715.857	-0.0005
716.108	0.0004
716.359	0.0002
716.609	-0.0005
716.86	0.0001
717.111	-0.0004
717.361	-0.0009
717.612	-0.0006
717.863	-0.0003
718.113	0.0003
718.363	0.0002
718.614	0.0007
718.864	0.0009
719.114	-0.0005
719.364	-0.0011
719.614	-0.0011
719.865	-0.001
720.114	0
720.364	-0.0001
720.614	-0.0021
720.864	-0.001
721.114	-0.0026
721.364	-0.0023
721.613	-0.0022
721.863	-0.0025
722.112	-0.0022
722.362	-0.0019
722.611	-0.001
722.86	-0.0005
723.11	0.0003
723.359	0.0001
723.608	0.0001
723.857	0.0013
724.106	0.0004
724.355	0.0009
724.604	0.0005
724.853	-0.001
725.102	-0.0016
725.351	-0.0031
725.599	-0.0033
725.848	-0.0023
726.097	-0.0014
726.345	-0.0017
726.594	-0.0014
726.842	-0.0003
727.09	-0.0016
727.339	-0.0015
727.587	-0.0025
727.835	-0.0034
728.083	-0.0034
728.331	-0.003
728.579	-0.0016
728.827	-0.0028
729.075	-0.0035
729.323	-0.0037
729.571	-0.0041
729.818	-0.0038
730.066	-0.0035
730.314	-0.0023
730.561	-0.0021
730.809	-0.0037
731.056	-0.0034
731.303	-0.0026
731.551	-0.0028
731.798	-0.003
732.045	-0.0014
732.292	-0.0027
732.539	-0.002
732.786	-0.0029
733.033	-0.0023
733.28	-0.002
733.527	-0.0031
733.774	-0.0031
734.021	-0.0023
734.267	-0.0026
734.514	-0.003
734.76	-0.0026
735.007	-0.0019
735.253	-0.0012
735.5	0.0013
735.746	0.0023
735.992	0.0013
736.238	0.0015
736.485	0.0006
736.731	0.0012
736.977	-0.0006
737.223	-0.0012
737.469	-0.001
737.715	-0.0004
737.96	-0.0003
738.206	-0.001
738.452	-0.001
738.697	-0.0017
738.943	-0.0019
739.189	-0.0012
739.434	-0.001
739.679	0.0001
739.925	0.0011
740.17	0.0013
740.415	0.0006
740.66	0.0017
740.906	0.0013
741.151	0.0001
741.396	-0.0001
741.641	-0.0004
741.886	0
742.13	0.0001
742.375	0.0013
742.62	-0
742.865	0.0003
743.109	0.0013
743.354	0.0011
743.598	0.0005
743.843	-0.0012
744.087	-0.001
744.331	-0.0014
744.576	-0.0012
744.82	-0.0002
745.064	-0.0007
745.308	-0.0001
745.552	-0.0009
745.796	-0.001
746.04	-0.0002
746.284	-0.0009
746.528	-0.0002
746.771	-0.0007
747.015	-0.0005
747.259	-0.0016
747.502	-0.0023
747.746	-0.0015
747.989	-0.0006
748.233	0.0013
748.476	0.0011
748.719	0.0005
748.963	0.0007
749.206	0.0012
749.449	0.0001
749.692	0.0002
749.935	-0.0004
750.178	-0.001
750.421	-0.0014
750.664	-0.0006
750.906	-0.0022
751.149	-0.0018
751.392	-0.0013
751.635	-0.0012
751.877	-0.0007
752.12	-0.0007
752.362	0.0003
752.604	-0
752.847	-0.0003
753.089	-0.0002
753.331	0.0004
753.573	-0.0002
753.816	0.0001
754.058	0.0002
754.3	0.0001
754.542	0.0002
754.783	0.0003
755.025	0.0011
755.267	0.0004
755.509	0.0011
755.75	-0.0003
755.992	0.0008
756.234	0.0014
756.475	0.0016
756.716	0.0008
756.958	0.0013
757.199	0.0015
757.44	0.0017
757.682	0.001
757.923	0.0014
758.164	0.0013
758.405	0.001
758.646	0.0003
758.887	-0.0005
759.128	-0.0011
759.369	-0.002
759.609	-0.0009
759.85	-0.0013
760.091	-0.0008
760.331	-0.0004
760.572	0.0001
760.812	-0.0008
761.053	0
761.293	0.0004
761.533	0.0005
761.774	0.0005
762.014	-0.0003
762.254	-0.0002
762.494	0.0003
762.734	-0.0002
762.974	0.0002
763.214	0.0002
763.454	0.0005
763.694	-0
763.933	0.0025
764.173	0.0025
764.413	0.0021
764.652	-0
764.892	-0.0005
765.131	-0.0005
765.371	-0.0014
765.61	-0.0008
765.849	-0.0027
766.089	-0.0026
766.328	-0.0014
766.567	-0.0032
766.806	-0.0038
767.045	-0.0041
767.284	-0.0028
767.523	-0.0032
767.762	-0.0032
768.001	-0.0027
768.239	-0.002
768.478	-0.0025
768.717	-0.0022
768.955	-0.0024
769.194	-0.0026
769.432	-0.0016
769.671	-0.0017
769.909	-0.0016
770.148	-0.0019
770.386	-0.0023
770.624	-0.0019
770.862	-0.0027
771.1	-0.0021
771.338	-0.0026
771.576	-0.0015
771.814	-0.001
772.052	-0.0012
772.29	0.0004
772.528	-0.0009
772.765	-0.0012
773.003	-0.0006
773.24	-0
773.478	0.0001
773.716	0.0013
773.953	0.0005
774.19	0.0015
774.428	0.0021
774.665	0.0021
774.902	0.0014
775.139	0.0017
775.376	-0.0003
775.613	0.0007
775.85	0.0006
776.087	-0.0002
776.324	-0.0001
776.561	-0.0014
776.798	-0.0008
777.034	-0.0004
777.271	-0.0003
777.508	0.0003
777.744	0.0014
777.981	0.0006
778.217	-0.0007
778.454	-0.0008
778.69	-0.001
778.926	-0.0002
779.162	0
779.399	0.0002
779.635	-0.0001
779.871	-0.0013
780.107	-0.0005
780.343	-0.0026
780.579	-0.0017
780.814	-0.0019
781.05	-0.0016
781.286	-0.0019
781.522	-0.0019
781.757	-0.0027
781.993	-0.0014
782.228	-0.0021
782.464	-0.0011
782.699	-0.0006
782.934	-0.0007
783.17	-0.0003
783.405	-0.0008
783.64	-0.0008
783.875	-0.0013
784.11	-0.001
784.345	-0
784.58	-0.0001
784.815	-0.0003
785.05	-0.002
785.285	-0.0017
785.52	-0.0006
785.754	-0.001
785.989	-0.0007
786.223	0.0009
786.458	0.0023
786.692	0.0032
786.927	0.0036
787.161	0.0027
787.396	0.0029
787.63	0.0025
787.864	0.0014
788.098	0.0002
788.332	0.0002
788.566	-0.0005
788.8	-0.0003
789.034	-0.0004
789.268	-0.0013
789.502	-0.0007
789.736	-0.0012
789.969	-0.0019
790.203	-0.001
790.437	-0
790.67	0.0005
790.904	0.0014
791.137	0.0014
791.37	0.0013
791.604	0.0016
791.837	0.0026
792.07	0.0034
792.303	0.0046
792.537	0.0048
792.77	0.0047
793.003	0.0035
793.236	0.0027
793.469	0.0026
793.701	0.0022
793.934	0.0011
794.167	0.0002
794.4	0
794.632	-0.0006
794.865	-0.0013
795.097	-0.0022
795.33	-0.0019
795.562	-0.0017
795.795	-0.0011
796.027	-0.0003
796.259	0.0006
796.491	-0.0002
796.724	0
796.956	0.0008
797.188	0.0005
797.42	0.0003
797.652	0.0005
797.883	0.0017
798.115	0.0025
798.347	0.0016
798.579	0.0003
798.81	0.0006
799.042	0.0014
799.274	0.0018
799.505	0.0017
799.737	0.001
799.968	0.0013
800.199	0.001
800.431	0.0027
800.662	0.0016
800.893	0.0017
801.124	0.0014
801.355	0.0015
801.586	0.0019
801.817	0.0037
802.048	0.0026
802.279	0.0023
802.51	0.0029
802.741	0.004
802.971	0.0038
803.202	0.0033
803.433	0.0025
803.663	0.0024
803.894	0.0027
804.124	0.0023
804.354	0.003
804.585	0.0039
804.815	0.0034
805.045	0.0043
805.275	0.0022
805.506	0.0451
805.736	-0.1833
805.966	-0.3438
806.196	-0.238
