Data from 03 0.4 mM K2Cr2O7 0.25 M BQDS 1 M H2SO4 5 min_Absorbance_0269.txt Node
Date: Wed Dec 15 15:55:13 EST 2021
User: kwabilab-user
Spectrometer: HDX00518
Trigger mode: 0
Integration Time (sec): 5.000000E-2
Scans to average: 50
Nonlinearity correction enabled: false
Boxcar width: 0
Storing dark spectrum: false
XAxis mode: Wavelengths
Number of Pixels in Spectrum: 2068
>>>>>Begin Spectral Data<<<<<
195.27	-0.1923
195.642	0.2019
196.014	-0.2083
196.386	-0.0097
196.758	-0.069
197.129	0.0104
197.501	-0.0091
197.872	0.0311
198.244	0.0213
198.615	0.032
198.986	0.0265
199.357	0.0179
199.728	0.0402
200.099	0.0351
200.47	0.0366
200.841	0.0271
201.212	0.0323
201.582	0.0417
201.953	0.0292
202.323	0.0165
202.694	0.028
203.064	0.0384
203.434	0.0143
203.804	0.0242
204.174	0.0331
204.544	0.0455
204.914	0.0182
205.284	0.0239
205.653	0.012
206.023	0.0301
206.393	0.0278
206.762	0.0213
207.131	0.0244
207.501	0.027
207.87	0.0375
208.239	0.0313
208.608	0.038
208.977	0.0317
209.346	0.0065
209.715	0.0363
210.083	0.0257
210.452	0.0279
210.82	0.0323
211.189	0.0119
211.557	0.0365
211.925	0.0145
212.294	0.03
212.662	0.0294
213.03	0.032
213.398	0.0166
213.766	0.0177
214.133	0.0408
214.501	0.0416
214.869	0.0156
215.236	0.0246
215.604	0.0445
215.971	0.0565
216.338	0.0308
216.705	0.0305
217.072	0.0603
217.439	0.0432
217.806	0.0445
218.173	0.0592
218.54	0.0552
218.907	0.0617
219.273	0.0717
219.64	0.0819
220.006	0.0981
220.373	0.0913
220.739	0.1218
221.105	0.1328
221.471	0.1373
221.837	0.1668
222.203	0.1792
222.569	0.1963
222.935	0.2088
223.3	0.2356
223.666	0.2536
224.031	0.2711
224.397	0.31
224.762	0.3169
225.127	0.3479
225.493	0.3597
225.858	0.3776
226.223	0.4205
226.588	0.4271
226.952	0.4417
227.317	0.4837
227.682	0.4709
228.046	0.4794
228.411	0.524
228.775	0.5288
229.14	0.5295
229.504	0.546
229.868	0.5477
230.232	0.5583
230.596	0.5696
230.96	0.5919
231.324	0.586
231.688	0.5854
232.052	0.5916
232.415	0.5915
232.779	0.5944
233.142	0.6071
233.505	0.6142
233.869	0.604
234.232	0.6085
234.595	0.5969
234.958	0.6032
235.321	0.6035
235.684	0.6028
236.047	0.5998
236.409	0.5922
236.772	0.588
237.134	0.5893
237.497	0.5785
237.859	0.5845
238.222	0.5755
238.584	0.5761
238.946	0.5707
239.308	0.567
239.67	0.5688
240.032	0.5615
240.393	0.5549
240.755	0.5596
241.117	0.5537
241.478	0.5445
241.84	0.5386
242.201	0.5333
242.562	0.5382
242.924	0.532
243.285	0.5264
243.646	0.5172
244.007	0.5232
244.368	0.52
244.728	0.5129
245.089	0.5118
245.45	0.5093
245.81	0.5074
246.171	0.5026
246.531	0.5027
246.891	0.4997
247.252	0.5012
247.612	0.4939
247.972	0.4965
248.332	0.4939
248.692	0.495
249.051	0.4886
249.411	0.4868
249.771	0.4811
250.13	0.4816
250.49	0.4809
250.849	0.4782
251.208	0.4739
251.568	0.4811
251.927	0.4719
252.286	0.4778
252.645	0.4678
253.004	0.4716
253.363	0.4654
253.721	0.4713
254.08	0.469
254.439	0.4634
254.797	0.4581
255.155	0.4627
255.514	0.4622
255.872	0.459
256.23	0.4639
256.588	0.4626
256.946	0.4603
257.304	0.4592
257.662	0.4593
258.02	0.4593
258.377	0.452
258.735	0.451
259.093	0.4526
259.45	0.4496
259.807	0.4528
260.165	0.4478
260.522	0.4497
260.879	0.4401
261.236	0.4456
261.593	0.4391
261.95	0.4376
262.306	0.4415
262.663	0.4384
263.02	0.4356
263.376	0.4325
263.733	0.4376
264.089	0.4297
264.445	0.4296
264.802	0.429
265.158	0.4256
265.514	0.4275
265.87	0.4219
266.226	0.4237
266.581	0.4205
266.937	0.4214
267.293	0.4152
267.648	0.4164
268.004	0.4132
268.359	0.4133
268.714	0.408
269.07	0.4092
269.425	0.4058
269.78	0.4016
270.135	0.4018
270.49	0.4001
270.844	0.4014
271.199	0.3957
271.554	0.3921
271.908	0.3918
272.263	0.3895
272.617	0.3859
272.972	0.3838
273.326	0.3809
273.68	0.3792
274.034	0.3798
274.388	0.376
274.742	0.374
275.096	0.3725
275.45	0.3688
275.803	0.3666
276.157	0.3638
276.51	0.3591
276.864	0.3582
277.217	0.3555
277.571	0.3545
277.924	0.3509
278.277	0.3472
278.63	0.3407
278.983	0.3419
279.336	0.3365
279.688	0.3358
280.041	0.3354
280.394	0.3263
280.746	0.3253
281.099	0.3253
281.451	0.3217
281.803	0.3165
282.156	0.3156
282.508	0.311
282.86	0.3064
283.212	0.305
283.564	0.2978
283.916	0.2955
284.267	0.2947
284.619	0.2927
284.971	0.288
285.322	0.2868
285.673	0.283
286.025	0.2781
286.376	0.277
286.727	0.2712
287.078	0.2704
287.429	0.2689
287.78	0.2631
288.131	0.2606
288.482	0.2578
288.833	0.2535
289.183	0.2523
289.534	0.249
289.884	0.2475
290.235	0.2426
290.585	0.2387
290.935	0.2367
291.285	0.234
291.635	0.2293
291.985	0.2274
292.335	0.2234
292.685	0.2204
293.035	0.2178
293.384	0.2143
293.734	0.2116
294.083	0.2094
294.433	0.2074
294.782	0.2055
295.131	0.2009
295.48	0.1982
295.829	0.195
296.179	0.1936
296.527	0.1892
296.876	0.1861
297.225	0.1833
297.574	0.1802
297.922	0.1787
298.271	0.1762
298.619	0.1712
298.968	0.1713
299.316	0.1686
299.664	0.1659
300.012	0.1635
300.36	0.1617
300.708	0.159
301.056	0.1567
301.404	0.1547
301.752	0.1521
302.099	0.1506
302.447	0.1481
302.794	0.1451
303.142	0.1437
303.489	0.1413
303.836	0.1399
304.183	0.138
304.531	0.1367
304.878	0.1342
305.224	0.133
305.571	0.1326
305.918	0.1308
306.265	0.1277
306.611	0.1271
306.958	0.1266
307.304	0.1255
307.651	0.1245
307.997	0.1218
308.343	0.1221
308.689	0.121
309.035	0.1197
309.381	0.1185
309.727	0.1174
310.073	0.1174
310.419	0.1155
310.764	0.1161
311.11	0.115
311.455	0.1141
311.801	0.1136
312.146	0.1133
312.491	0.1131
312.837	0.1117
313.182	0.1113
313.527	0.1108
313.872	0.1112
314.216	0.1111
314.561	0.1102
314.906	0.1102
315.251	0.1106
315.595	0.1104
315.94	0.1103
316.284	0.1105
316.628	0.1104
316.972	0.1107
317.317	0.1108
317.661	0.1109
318.005	0.1113
318.348	0.1115
318.692	0.1115
319.036	0.1116
319.38	0.1125
319.723	0.1117
320.067	0.1134
320.41	0.1139
320.754	0.1144
321.097	0.114
321.44	0.1149
321.783	0.1153
322.126	0.1164
322.469	0.1166
322.812	0.1173
323.155	0.1178
323.498	0.1185
323.84	0.1188
324.183	0.1197
324.525	0.1205
324.868	0.122
325.21	0.1217
325.552	0.1227
325.894	0.1245
326.236	0.124
326.578	0.1259
326.92	0.1262
327.262	0.1268
327.604	0.1278
327.946	0.1291
328.287	0.1295
328.629	0.1304
328.97	0.1317
329.312	0.1324
329.653	0.1334
329.994	0.134
330.335	0.1355
330.676	0.1363
331.017	0.1375
331.358	0.1383
331.699	0.1393
332.04	0.1403
332.38	0.1414
332.721	0.1426
333.061	0.1435
333.402	0.1447
333.742	0.1455
334.083	0.1455
334.423	0.1466
334.763	0.1477
335.103	0.1488
335.443	0.15
335.783	0.1499
336.123	0.1502
336.462	0.1517
336.802	0.1522
337.141	0.1535
337.481	0.154
337.82	0.1548
338.16	0.1563
338.499	0.1572
338.838	0.1577
339.177	0.1588
339.516	0.1592
339.855	0.1602
340.194	0.161
340.533	0.161
340.872	0.161
341.21	0.162
341.549	0.1628
341.887	0.1633
342.226	0.1633
342.564	0.1641
342.902	0.1644
343.24	0.165
343.578	0.1654
343.916	0.1652
344.254	0.1656
344.592	0.1664
344.93	0.1667
345.268	0.1652
345.605	0.1663
345.943	0.1661
346.28	0.1666
346.618	0.167
346.955	0.1671
347.292	0.1677
347.629	0.168
347.966	0.1672
348.303	0.1677
348.64	0.1677
348.977	0.1675
349.314	0.1678
349.65	0.1681
349.987	0.1682
350.324	0.1666
350.66	0.1676
350.996	0.1672
351.333	0.1669
351.669	0.1658
352.005	0.1667
352.341	0.1652
352.677	0.165
353.013	0.1641
353.349	0.1639
353.685	0.1627
354.02	0.1625
354.356	0.1619
354.691	0.1612
355.027	0.1607
355.362	0.1594
355.697	0.1592
356.033	0.1586
356.368	0.158
356.703	0.1578
357.038	0.1574
357.373	0.1556
357.707	0.1553
358.042	0.155
358.377	0.1547
358.711	0.1545
359.046	0.1531
359.38	0.1524
359.715	0.1513
360.049	0.1505
360.383	0.1497
360.717	0.1492
361.051	0.1477
361.385	0.1471
361.719	0.1465
362.053	0.1459
362.387	0.1437
362.72	0.1434
363.054	0.1421
363.387	0.1411
363.721	0.1397
364.054	0.1387
364.387	0.1369
364.721	0.1356
365.054	0.1347
365.387	0.1338
365.72	0.1336
366.053	0.132
366.385	0.1302
366.718	0.13
367.051	0.1287
367.383	0.1276
367.716	0.1275
368.048	0.1264
368.381	0.1263
368.713	0.1233
369.045	0.1232
369.377	0.1226
369.709	0.1219
370.041	0.1206
370.373	0.1196
370.705	0.1186
371.037	0.1177
371.368	0.1171
371.7	0.115
372.031	0.1146
372.363	0.113
372.694	0.1123
373.025	0.1105
373.356	0.1095
373.688	0.1083
374.019	0.107
374.35	0.1049
374.68	0.1036
375.011	0.1032
375.342	0.1018
375.673	0.1002
376.003	0.099
376.334	0.0981
376.664	0.097
376.995	0.0964
377.325	0.0945
377.655	0.093
377.985	0.0919
378.315	0.0911
378.645	0.0904
378.975	0.0894
379.305	0.0878
379.635	0.0881
379.964	0.0868
380.294	0.0858
380.623	0.0856
380.953	0.0839
381.282	0.0835
381.611	0.0833
381.941	0.0818
382.27	0.0802
382.599	0.0806
382.928	0.0781
383.257	0.0786
383.585	0.0776
383.914	0.0756
384.243	0.0746
384.571	0.0738
384.9	0.0723
385.228	0.0714
385.557	0.0705
385.885	0.0695
386.213	0.0691
386.541	0.0668
386.869	0.0667
387.197	0.0648
387.525	0.0645
387.853	0.0637
388.181	0.0623
388.508	0.0612
388.836	0.0599
389.164	0.06
389.491	0.059
389.818	0.0573
390.146	0.0571
390.473	0.0563
390.8	0.0562
391.127	0.0542
391.454	0.054
391.781	0.0535
392.108	0.0526
392.435	0.0523
392.761	0.0513
393.088	0.0506
393.415	0.0511
393.741	0.0505
394.067	0.0503
394.394	0.0492
394.72	0.0478
395.046	0.0474
395.372	0.0469
395.698	0.0468
396.024	0.0456
396.35	0.0451
396.676	0.0452
397.001	0.0438
397.327	0.043
397.653	0.0425
397.978	0.0415
398.303	0.0409
398.629	0.04
398.954	0.0401
399.279	0.0405
399.604	0.0393
399.929	0.0393
400.254	0.0387
400.579	0.0382
400.904	0.0375
401.229	0.0372
401.553	0.0373
401.878	0.0367
402.202	0.0365
402.527	0.036
402.851	0.0362
403.175	0.0348
403.5	0.0356
403.824	0.0347
404.148	0.0343
404.472	0.0345
404.796	0.0341
405.119	0.0337
405.443	0.0335
405.767	0.0335
406.09	0.0334
406.414	0.0328
406.737	0.0328
407.061	0.033
407.384	0.0327
407.707	0.0325
408.03	0.0322
408.353	0.0316
408.676	0.0319
408.999	0.0322
409.322	0.0315
409.645	0.0317
409.968	0.0316
410.29	0.0316
410.613	0.0319
410.935	0.0312
411.258	0.0318
411.58	0.0308
411.902	0.0306
412.224	0.0306
412.546	0.031
412.868	0.0321
413.19	0.0307
413.512	0.0311
413.834	0.031
414.156	0.0314
414.477	0.0301
414.799	0.031
415.121	0.0305
415.442	0.0307
415.763	0.0305
416.085	0.0307
416.406	0.03
416.727	0.0306
417.048	0.0312
417.369	0.0307
417.69	0.0303
418.011	0.0303
418.331	0.0309
418.652	0.031
418.973	0.0299
419.293	0.0304
419.614	0.03
419.934	0.0312
420.254	0.0305
420.574	0.0301
420.895	0.0302
421.215	0.03
421.535	0.0295
421.855	0.0295
422.174	0.0289
422.494	0.0297
422.814	0.0297
423.134	0.0302
423.453	0.0305
423.773	0.0306
424.092	0.0301
424.411	0.0299
424.731	0.0302
425.05	0.0306
425.369	0.0299
425.688	0.0306
426.007	0.0304
426.326	0.0308
426.644	0.03
426.963	0.0297
427.282	0.0295
427.6	0.0301
427.919	0.0301
428.237	0.0307
428.556	0.0307
428.874	0.0303
429.192	0.0303
429.51	0.0298
429.828	0.0299
430.146	0.0298
430.464	0.03
430.782	0.0301
431.1	0.0289
431.418	0.0297
431.735	0.0295
432.053	0.0302
432.37	0.0307
432.688	0.0297
433.005	0.029
433.322	0.0313
433.639	0.0306
433.957	0.0301
434.274	0.0305
434.591	0.0302
434.907	0.0296
435.224	0.03
435.541	0.0298
435.858	0.0304
436.174	0.0302
436.491	0.0289
436.807	0.0294
437.124	0.0295
437.44	0.0297
437.756	0.0299
438.072	0.0294
438.388	0.0302
438.704	0.0299
439.02	0.0291
439.336	0.0293
439.652	0.0302
439.968	0.0299
440.283	0.0302
440.599	0.0296
440.914	0.0289
441.23	0.0292
441.545	0.0293
441.86	0.029
442.175	0.0296
442.491	0.0289
442.806	0.0288
443.121	0.0284
443.435	0.0287
443.75	0.0285
444.065	0.0292
444.38	0.0285
444.694	0.0285
445.009	0.0285
445.323	0.0291
445.638	0.0283
445.952	0.0286
446.266	0.0272
446.58	0.0269
446.894	0.0273
447.208	0.0272
447.522	0.027
447.836	0.0277
448.15	0.027
448.464	0.027
448.777	0.0279
449.091	0.0269
449.404	0.0276
449.718	0.0271
450.031	0.0268
450.345	0.0272
450.658	0.0273
450.971	0.0269
451.284	0.0264
451.597	0.0269
451.91	0.0269
452.223	0.027
452.535	0.0262
452.848	0.0262
453.161	0.0263
453.473	0.0266
453.786	0.0265
454.098	0.0259
454.411	0.0261
454.723	0.0267
455.035	0.0256
455.347	0.025
455.659	0.0258
455.971	0.0269
456.283	0.0261
456.595	0.026
456.907	0.0256
457.218	0.0256
457.53	0.0249
457.841	0.0249
458.153	0.0246
458.464	0.0246
458.776	0.0248
459.087	0.0248
459.398	0.0241
459.709	0.0232
460.02	0.0244
460.331	0.0248
460.642	0.0242
460.953	0.0233
461.263	0.0237
461.574	0.023
461.885	0.0244
462.195	0.0231
462.506	0.0237
462.816	0.0234
463.126	0.0232
463.437	0.0234
463.747	0.0224
464.057	0.021
464.367	0.021
464.677	0.0217
464.987	0.0218
465.296	0.0213
465.606	0.0215
465.916	0.0208
466.225	0.0211
466.535	0.0214
466.844	0.0216
467.154	0.022
467.463	0.021
467.772	0.0215
468.081	0.021
468.39	0.0215
468.699	0.0208
469.008	0.0212
469.317	0.0212
469.626	0.0206
469.935	0.0206
470.243	0.0205
470.552	0.0203
470.86	0.02
471.169	0.02
471.477	0.0197
471.785	0.0194
472.093	0.0195
472.402	0.0192
472.71	0.0188
473.018	0.0184
473.326	0.0189
473.633	0.0193
473.941	0.0193
474.249	0.0186
474.556	0.018
474.864	0.0182
475.171	0.018
475.479	0.0174
475.786	0.0186
476.094	0.0177
476.401	0.0179
476.708	0.0174
477.015	0.0171
477.322	0.0159
477.629	0.016
477.936	0.0175
478.242	0.0161
478.549	0.0173
478.856	0.0166
479.162	0.0167
479.469	0.0158
479.775	0.0159
480.081	0.0149
480.388	0.0149
480.694	0.0165
481	0.0153
481.306	0.0155
481.612	0.0162
481.918	0.0162
482.224	0.0158
482.53	0.0151
482.835	0.0152
483.141	0.0153
483.446	0.0149
483.752	0.0138
484.057	0.0134
484.363	0.0139
484.668	0.0142
484.973	0.013
485.278	0.013
485.583	0.0126
485.888	0.012
486.193	0.0111
486.498	0.0132
486.803	0.0134
487.107	0.0125
487.412	0.0108
487.717	0.012
488.021	0.0131
488.325	0.0122
488.63	0.0123
488.934	0.0117
489.238	0.0114
489.542	0.0116
489.846	0.0121
490.15	0.0113
490.454	0.0128
490.758	0.0116
491.062	0.0116
491.366	0.0107
491.669	0.0105
491.973	0.0107
492.276	0.0109
492.58	0.01
492.883	0.0108
493.186	0.01
493.489	0.0108
493.792	0.0095
494.096	0.0099
494.399	0.01
494.701	0.0095
495.004	0.0089
495.307	0.0094
495.61	0.0092
495.912	0.01
496.215	0.0095
496.517	0.0093
496.82	0.0091
497.122	0.0081
497.424	0.0098
497.727	0.009
498.029	0.0094
498.331	0.0088
498.633	0.0087
498.935	0.0082
499.237	0.0091
499.538	0.0087
499.84	0.0085
500.142	0.0076
500.443	0.0085
500.745	0.0079
501.046	0.0076
501.348	0.0072
501.649	0.0072
501.95	0.0069
502.251	0.0077
502.552	0.0071
502.853	0.0074
503.154	0.0078
503.455	0.0072
503.756	0.0074
504.057	0.0067
504.357	0.0071
504.658	0.0067
504.958	0.0065
505.259	0.0065
505.559	0.0055
505.859	0.0064
506.16	0.0058
506.46	0.0056
506.76	0.0058
507.06	0.0053
507.36	0.006
507.66	0.0064
507.96	0.0071
508.259	0.006
508.559	0.0061
508.859	0.0065
509.158	0.0061
509.457	0.0053
509.757	0.0055
510.056	0.0054
510.355	0.0055
510.655	0.0051
510.954	0.0047
511.253	0.0049
511.552	0.0048
511.851	0.0056
512.149	0.0048
512.448	0.0043
512.747	0.0054
513.045	0.0051
513.344	0.0044
513.642	0.005
513.941	0.0055
514.239	0.0054
514.537	0.0043
514.836	0.004
515.134	0.0055
515.432	0.0048
515.73	0.0046
516.028	0.0044
516.326	0.0042
516.623	0.0043
516.921	0.0038
517.219	0.0053
517.516	0.0039
517.814	0.0049
518.111	0.0045
518.409	0.0054
518.706	0.0045
519.003	0.0036
519.3	0.0036
519.597	0.0044
519.894	0.0037
520.191	0.0058
520.488	0.0048
520.785	0.0034
521.082	0.0042
521.378	0.0041
521.675	0.0038
521.971	0.0034
522.268	0.0046
522.564	0.0035
522.861	0.0049
523.157	0.0042
523.453	0.0042
523.749	0.0033
524.045	0.0039
524.341	0.0042
524.637	0.0034
524.933	0.0053
525.229	0.0034
525.524	0.0031
525.82	0.0046
526.115	0.0036
526.411	0.0038
526.706	0.0041
527.002	0.0035
527.297	0.0023
527.592	0.0038
527.887	0.0017
528.182	0.003
528.477	0.0049
528.772	0.0025
529.067	0.0035
529.362	0.0044
529.657	0.0036
529.951	0.0037
530.246	0.004
530.54	0.0042
530.835	0.0036
531.129	0.0046
531.423	0.0034
531.718	0.0037
532.012	0.0036
532.306	0.0056
532.6	0.0043
532.894	0.0037
533.188	0.0029
533.482	0.0032
533.775	0.0026
534.069	0.0034
534.363	0.0038
534.656	0.0042
534.95	0.0028
535.243	0.0024
535.536	0.0021
535.83	0.0026
536.123	0.0032
536.416	0.0029
536.709	0.0031
537.002	0.0045
537.295	0.0029
537.588	0.0039
537.881	0.002
538.173	0.0033
538.466	0.0037
538.759	0.0029
539.051	0.0044
539.344	0.0034
539.636	0.0041
539.928	0.004
540.22	0.003
540.513	0.0041
540.805	0.0046
541.097	0.0039
541.389	0.0031
541.681	0.0048
541.972	0.0018
542.264	0.0034
542.556	0.0025
542.847	0.0032
543.139	0.0038
543.431	0.0022
543.722	0.0031
544.013	0.003
544.305	0.0036
544.596	0.0028
544.887	0.0035
545.178	0.0044
545.469	0.0036
545.76	0.0034
546.051	0.0035
546.342	0.0024
546.632	0.0041
546.923	0.0024
547.214	0.0024
547.504	0.0038
547.795	0.0036
548.085	0.003
548.375	0.0044
548.666	0.0047
548.956	0.0038
549.246	0.0045
549.536	0.0041
549.826	0.0059
550.116	0.0044
550.406	0.0047
550.695	0.0047
550.985	0.005
551.275	0.0057
551.564	0.0051
551.854	0.0054
552.143	0.0046
552.433	0.0045
552.722	0.0046
553.011	0.0055
553.3	0.004
553.589	0.0047
553.879	0.0038
554.167	0.0039
554.456	0.0039
554.745	0.0052
555.034	0.0054
555.323	0.004
555.611	0.0036
555.9	0.0038
556.188	0.0042
556.477	0.0027
556.765	0.005
557.053	0.0043
557.342	0.0035
557.63	0.0035
557.918	0.0048
558.206	0.0049
558.494	0.0047
558.782	0.0044
559.069	0.0052
559.357	0.0044
559.645	0.0042
559.932	0.0036
560.22	0.0036
560.507	0.0017
560.795	0.0026
561.082	0.0022
561.37	0.0026
561.657	0.0028
561.944	0.0033
562.231	0.0039
562.518	0.0046
562.805	0.0049
563.092	0.0029
563.379	0.004
563.665	0.0035
563.952	0.004
564.239	0.0051
564.525	0.0045
564.811	0.0039
565.098	0.0054
565.384	0.0045
565.67	0.0055
565.957	0.0052
566.243	0.0058
566.529	0.0042
566.815	0.0055
567.101	0.0051
567.387	0.0044
567.672	0.004
567.958	0.0029
568.244	0.0035
568.529	0.004
568.815	0.0039
569.1	0.0035
569.386	0.0034
569.671	0.0036
569.956	0.003
570.242	0.0028
570.527	0.003
570.812	0.0032
571.097	0.0014
571.382	0.0018
571.666	0.0025
571.951	0.0032
572.236	0.0022
572.521	0.0029
572.805	0.0035
573.09	0.0026
573.374	0.002
573.659	0.0026
573.943	0.0027
574.227	0.0028
574.511	0.0025
574.795	0.0035
575.079	0.0031
575.363	0.0023
575.647	0.0026
575.931	0.0036
576.215	0.0032
576.499	0.002
576.782	0.0027
577.066	0.0023
577.349	0.0038
577.633	0.0033
577.916	0.0022
578.2	0.0032
578.483	0.0035
578.766	0.0041
579.049	0.0038
579.332	0.0033
579.615	0.0027
579.898	0.0026
580.181	0.0034
580.464	0.0033
580.746	0.0024
581.029	0.0033
581.312	0.0019
581.594	0.0008
581.877	0.0025
582.159	0.0042
582.441	0.0026
582.724	0.0032
583.006	0.0042
583.288	0.0037
583.57	0.0034
583.852	0.0048
584.134	0.0039
584.416	0.0027
584.697	0.003
584.979	0.002
585.261	0.0025
585.542	0.0026
585.824	0.003
586.105	0.0032
586.387	0.0032
586.668	0.0027
586.949	0.0034
587.231	0.0031
587.512	0.0033
587.793	0.0033
588.074	0.0039
588.355	0.004
588.636	0.0028
588.916	0.0034
589.197	0.0025
589.478	0.0039
589.758	0.0029
590.039	0.0021
590.319	0.0032
590.6	0.0031
590.88	0.0031
591.16	0.003
591.441	0.0028
591.721	0.0028
592.001	0.0025
592.281	0.0026
592.561	0.0032
592.841	0.002
593.12	0.0018
593.4	0.0029
593.68	0.0033
593.959	0.003
594.239	0.004
594.518	0.0049
594.798	0.0042
595.077	0.0025
595.356	0.0033
595.636	0.0037
595.915	0.0028
596.194	0.0037
596.473	0.0036
596.752	0.0038
597.031	0.0032
597.31	0.0027
597.588	0.003
597.867	0.0029
598.146	0.0022
598.424	0.0021
598.703	0.0026
598.981	0.0012
599.259	0.0017
599.538	0.0035
599.816	0.0034
600.094	0.0029
600.372	0.0029
600.65	0.0038
600.928	0.0034
601.206	0.0025
601.484	0.0034
601.762	0.0041
602.04	0.0043
602.317	0.0043
602.595	0.0042
602.872	0.0038
603.15	0.0041
603.427	0.0012
603.704	0.0025
603.982	0.0023
604.259	0.0019
604.536	0.002
604.813	0.0029
605.09	0.002
605.367	0.0017
605.644	0.0019
605.921	0.0019
606.197	0.001
606.474	0.0028
606.751	0.0019
607.027	0.002
607.304	0.0024
607.58	0.0026
607.856	0.0032
608.133	0.004
608.409	0.0043
608.685	0.0035
608.961	0.004
609.237	0.0042
609.513	0.0052
609.789	0.0031
610.065	0.0025
610.341	0.0026
610.616	0.0034
610.892	0.0036
611.167	0.0034
611.443	0.0036
611.718	0.0028
611.994	0.003
612.269	0.0024
612.544	0.0029
612.819	0.0028
613.095	0.0015
613.37	0.0012
613.645	0.0016
613.919	0.0028
614.194	0.0027
614.469	0.0023
614.744	0.002
615.019	0.0022
615.293	0.0023
615.568	0.0028
615.842	0.0018
616.116	0.0021
616.391	0.0012
616.665	0.0007
616.939	0.0013
617.213	0.0019
617.488	0.0028
617.762	0.0032
618.035	0.0034
618.309	0.0028
618.583	0.0032
618.857	0.0039
619.131	0.0035
619.404	0.0029
619.678	0.0032
619.951	0.0027
620.225	0.0012
620.498	0.0025
620.771	0.0026
621.045	0.002
621.318	0.0034
621.591	0.0025
621.864	0.0015
622.137	0.0008
622.41	0.0012
622.683	0.0018
622.956	0.0022
623.228	0.0036
623.501	0.0034
623.774	0.004
624.046	0.0031
624.319	0.0037
624.591	0.0026
624.863	0.0029
625.136	0.0039
625.408	0.0047
625.68	0.0034
625.952	0.0039
626.224	0.0047
626.496	0.0037
626.768	0.0033
627.04	0.0037
627.311	0.0041
627.583	0.0052
627.855	0.0056
628.126	0.0033
628.398	0.0038
628.669	0.0032
628.941	0.0016
629.212	0.0018
629.483	0.0018
629.755	0.0021
630.026	0.0026
630.297	0.0028
630.568	0.004
630.839	0.0049
631.11	0.0057
631.38	0.0047
631.651	0.0049
631.922	0.0038
632.192	0.0045
632.463	0.0045
632.733	0.0044
633.004	0.0039
633.274	0.0031
633.545	0.0041
633.815	0.0061
634.085	0.0047
634.355	0.005
634.625	0.0052
634.895	0.0048
635.165	0.0034
635.435	0.0032
635.705	0.0033
635.974	0.0031
636.244	0.0027
636.514	0.0016
636.783	0.0023
637.053	0.0024
637.322	0.0021
637.591	0.0019
637.861	0.0015
638.13	0.0018
638.399	0.0034
638.668	0.004
638.937	0.0048
639.206	0.0043
639.475	0.0049
639.744	0.005
640.013	0.0037
640.281	0.0039
640.55	0.0027
640.819	0.0038
641.087	0.0036
641.356	0.0042
641.624	0.0053
641.892	0.0052
642.161	0.0054
642.429	0.0046
642.697	0.0053
642.965	0.0046
643.233	0.0032
643.501	0.0037
643.769	0.0038
644.037	0.0027
644.305	0.0039
644.572	0.0032
644.84	0.0031
645.108	0.0033
645.375	0.0024
645.643	0.0031
645.91	0.0035
646.177	0.0033
646.445	0.0026
646.712	0.0029
646.979	0.0031
647.246	0.0039
647.513	0.0029
647.78	0.0026
648.047	0.0016
648.314	0.001
648.58	0.0005
648.847	-0.0003
649.114	-0.0008
649.38	-0.0002
649.647	0.0009
649.913	0.0006
650.18	0.0023
650.446	0.0028
650.712	0.0041
650.978	0.0038
651.245	0.0039
651.511	0.0037
651.777	0.0051
652.043	0.0031
652.309	0.0039
652.574	0.0035
652.84	0.0046
653.106	0.0047
653.371	0.0059
653.637	0.0054
653.903	0.0057
654.168	0.0052
654.433	0.0057
654.699	0.004
654.964	0.0034
655.229	0.0028
655.494	0.002
655.759	-0.0018
656.024	0.0005
656.289	-0
656.554	0.0024
656.819	0.0043
657.084	0.0053
657.349	0.0059
657.613	0.0044
657.878	0.0033
658.142	0.0033
658.407	0.0025
658.671	0.003
658.936	0.0038
659.2	0.004
659.464	0.0031
659.728	0.0034
659.992	0.0023
660.256	0.0016
660.52	0.0027
660.784	0.0033
661.048	0.0039
661.312	0.0039
661.575	0.0043
661.839	0.0056
662.103	0.004
662.366	0.0043
662.63	0.0037
662.893	0.0032
663.156	0.0045
663.42	0.0045
663.683	0.0043
663.946	0.0057
664.209	0.0053
664.472	0.0054
664.735	0.0053
664.998	0.006
665.261	0.0066
665.524	0.0061
665.786	0.0058
666.049	0.0059
666.312	0.0057
666.574	0.0046
666.837	0.0054
667.099	0.0054
667.361	0.0053
667.624	0.005
667.886	0.0044
668.148	0.0054
668.41	0.0063
668.672	0.0058
668.934	0.0053
669.196	0.0044
669.458	0.0027
669.72	0.0039
669.982	0.0025
670.243	0.0034
670.505	0.0034
670.766	0.0025
671.028	0.0033
671.289	0.0035
671.551	0.0035
671.812	0.0015
672.073	0.0036
672.334	0.0039
672.596	0.0032
672.857	0.0043
673.118	0.0052
673.379	0.0054
673.639	0.0056
673.9	0.0056
674.161	0.0057
674.422	0.0058
674.682	0.0047
674.943	0.0047
675.203	0.0053
675.464	0.0044
675.724	0.0042
675.985	0.003
676.245	0.0037
676.505	0.0023
676.765	0.0023
677.025	0.004
677.285	0.0032
677.545	0.0034
677.805	0.0026
678.065	0.0024
678.325	0.0042
678.585	0.0054
678.844	0.0043
679.104	0.0061
679.363	0.0059
679.623	0.0058
679.882	0.0058
680.142	0.006
680.401	0.0058
680.66	0.0065
680.919	0.0056
681.178	0.0065
681.437	0.0048
681.696	0.0036
681.955	0.0059
682.214	0.0058
682.473	0.0067
682.732	0.0052
682.99	0.0069
683.249	0.0065
683.508	0.0065
683.766	0.0051
684.024	0.005
684.283	0.0038
684.541	0.0037
684.799	0.0028
685.058	0.001
685.316	0.0006
685.574	-0.0007
685.832	0.0009
686.09	0.0017
686.348	0.0012
686.606	0.0019
686.863	0.0019
687.121	0.0021
687.379	0.0016
687.636	0.0012
687.894	0.0025
688.151	0.0021
688.409	0.002
688.666	0.0022
688.923	0.0032
689.181	0.0037
689.438	0.0023
689.695	0.0018
689.952	0.0024
690.209	0.0022
690.466	0.0015
690.723	0.0024
690.979	0.0023
691.236	0.0014
691.493	-0.0005
691.75	0.0006
692.006	0.001
692.263	0.001
692.519	0.0003
692.775	-0.0008
693.032	-0.0005
693.288	-0.0011
693.544	-0.0002
693.8	0.0017
694.056	0.0014
694.313	0.0013
694.568	0.0017
694.824	0.0012
695.08	0.0014
695.336	0.0024
695.592	0.0005
695.847	0.0027
696.103	0.004
696.359	0.0041
696.614	0.0036
696.869	0.0024
697.125	0.0001
697.38	0.0004
697.635	0.0023
697.891	0.0033
698.146	0.0027
698.401	0.0028
698.656	0.0017
698.911	0.003
699.166	0.0017
699.42	0.0038
699.675	0.0043
699.93	0.0047
700.185	0.0051
700.439	0.0031
700.694	0.004
700.948	0.0033
701.203	0.0025
701.457	0.0029
701.711	0.003
701.965	0.0022
702.22	0.0014
702.474	0.0014
702.728	0.0011
702.982	0.0021
703.236	0.0028
703.49	0.0032
703.743	0.0025
703.997	0.0023
704.251	0.0026
704.504	0.0024
704.758	0.0013
705.012	0.0022
705.265	0.0025
705.518	0.0029
705.772	0.0033
706.025	0.0039
706.278	0.0036
706.531	0.0029
706.785	0.0023
707.038	0.0012
707.291	0.0013
707.543	0.0009
707.796	0.001
708.049	0.001
708.302	0.0006
708.555	0.0018
708.807	0.003
709.06	0.0023
709.312	0.0038
709.565	0.0044
709.817	0.0064
710.069	0.0046
710.322	0.0044
710.574	0.0034
710.826	0.0027
711.078	0.0019
711.33	0.0017
711.582	0.0023
711.834	0.0016
712.086	0.0021
712.338	0.0021
712.59	0.0012
712.841	-0.0009
713.093	-0.0007
713.344	0.0011
713.596	-0.0001
713.847	0.0004
714.099	0.0006
714.35	0.0025
714.601	0.0011
714.853	0.0007
715.104	0.0008
715.355	-0.0002
715.606	0.0018
715.857	0.0026
716.108	0.0033
716.359	0.0035
716.609	0.0028
716.86	0.0039
717.111	0.0029
717.361	0.0027
717.612	0.0027
717.863	0.0035
718.113	0.0038
718.363	0.0022
718.614	0.0028
718.864	0.0037
719.114	0.0032
719.364	0.0026
719.614	0.0023
719.865	0.0035
720.114	0.0038
720.364	0.0039
720.614	0.0034
720.864	0.004
721.114	0.0021
721.364	0.0022
721.613	0.0014
721.863	0.0019
722.112	0.0018
722.362	0.0018
722.611	0.0025
722.86	0.003
723.11	0.0046
723.359	0.0034
723.608	0.0032
723.857	0.0039
724.106	0.0026
724.355	0.0024
724.604	0.0019
724.853	0.0013
725.102	0.0009
725.351	-0.0008
725.599	-0.0018
725.848	-0.0008
726.097	0.0009
726.345	0.0005
726.594	0.0003
726.842	0.0015
727.09	0.0004
727.339	0.0009
727.587	0.0004
727.835	-0.0001
728.083	0.0002
728.331	0.0008
728.579	0.0011
728.827	0.0001
729.075	-0.001
729.323	-0.0007
729.571	-0.0009
729.818	-0.0015
730.066	-0.0008
730.314	-0.0004
730.561	-0.0008
730.809	-0.0017
731.056	-0.0026
731.303	-0.002
731.551	-0.0009
731.798	-0.0021
732.045	-0.0002
732.292	-0.0006
732.539	-0.0002
732.786	-0.0009
733.033	-0.0014
733.28	-0.0004
733.527	-0.0008
733.774	-0.0014
734.021	-0.002
734.267	-0.0008
734.514	-0.0013
734.76	-0.0006
735.007	0.0001
735.253	0.0011
735.5	0.002
735.746	0.0025
735.992	0.0023
736.238	0.0023
736.485	0.0022
736.731	0.0033
736.977	0.0018
737.223	0.0014
737.469	0.0012
737.715	0.0026
737.96	0.0042
738.206	0.0034
738.452	0.0037
738.697	0.0029
738.943	0.0019
739.189	0.0024
739.434	0.0006
739.679	0.0014
739.925	0.0039
740.17	0.0047
740.415	0.0036
740.66	0.0034
740.906	0.0035
741.151	0.0023
741.396	0.0025
741.641	0.0011
741.886	0.0017
742.13	0.0007
742.375	0.0011
742.62	-0.0003
742.865	0.0002
743.109	0.001
743.354	0.0002
743.598	0.0004
743.843	-0.0007
744.087	-0.0008
744.331	-0.0001
744.576	0.0004
744.82	0.0019
745.064	0.0018
745.308	0.0023
745.552	0.0028
745.796	0.0014
746.04	0.0012
746.284	0.0002
746.528	0.0014
746.771	0.0013
747.015	0.0018
747.259	0.0011
747.502	0.0012
747.746	0.0019
747.989	0.0034
748.233	0.0033
748.476	0.0032
748.719	0.003
748.963	0.002
749.206	0.0013
749.449	0.0011
749.692	0.0003
749.935	0.001
750.178	0.0017
750.421	0.0013
750.664	0.0018
750.906	0.0018
751.149	0.0014
751.392	0.0023
751.635	0.0015
751.877	0.0023
752.12	0.0021
752.362	0.0034
752.604	0.002
752.847	0.0013
753.089	0.001
753.331	0.0016
753.573	0.0017
753.816	0.0015
754.058	0.0026
754.3	0.003
754.542	0.0047
754.783	0.0029
755.025	0.0036
755.267	0.0035
755.509	0.0032
755.75	0.0011
755.992	0.002
756.234	0.0021
756.475	0.0034
756.716	0.0026
756.958	0.0025
757.199	0.0024
757.44	0.0031
757.682	0.0019
757.923	0.0025
758.164	0.0031
758.405	0.0039
758.646	0.0038
758.887	0.0039
759.128	0.0042
759.369	0.0029
759.609	0.0034
759.85	0.0026
760.091	0.0025
760.331	0.0031
760.572	0.0029
760.812	0.0021
761.053	0.0025
761.293	0.0034
761.533	0.0041
761.774	0.0038
762.014	0.0046
762.254	0.0036
762.494	0.0042
762.734	0.0029
762.974	0.0034
763.214	0.0026
763.454	0.003
763.694	0.0026
763.933	0.004
764.173	0.0052
764.413	0.0048
764.652	0.0023
764.892	0.0017
765.131	0.0009
765.371	0.0008
765.61	0.0009
765.849	-0.0004
766.089	-0.0004
766.328	0.0008
766.567	-0.0001
766.806	-0.0002
767.045	-0.0001
767.284	0.0013
767.523	0.0004
767.762	0.0005
768.001	0.0003
768.239	0.0006
768.478	-0.0002
768.717	-0.0005
768.955	0.0002
769.194	0.0007
769.432	0.0016
769.671	0.0015
769.909	0.0018
770.148	0.0013
770.386	0.0008
770.624	0.0006
770.862	0.0002
771.1	-0.0001
771.338	-0.0009
771.576	0.0001
771.814	0.001
772.052	0.0004
772.29	0.0024
772.528	0.0015
772.765	0.0008
773.003	0.0016
773.24	0.0019
773.478	0.0026
773.716	0.0036
773.953	0.0033
774.19	0.0031
774.428	0.0045
774.665	0.0043
774.902	0.0043
775.139	0.0037
775.376	0.0039
775.613	0.0044
775.85	0.006
776.087	0.0063
776.324	0.0052
776.561	0.0046
776.798	0.0053
777.034	0.0044
777.271	0.0039
777.508	0.003
777.744	0.0047
777.981	0.0049
778.217	0.0045
778.454	0.0042
778.69	0.0033
778.926	0.004
779.162	0.0032
779.399	0.0039
779.635	0.0036
779.871	0.0036
780.107	0.0025
780.343	0.0024
780.579	0.003
780.814	0.0038
781.05	0.0038
781.286	0.0023
781.522	0.0012
781.757	0.0009
781.993	0.0016
782.228	0.0015
782.464	0.002
782.699	0.0028
782.934	0.0012
783.17	0.0015
783.405	0.0026
783.64	0.0022
783.875	0.0017
784.11	0.0016
784.345	0.0023
784.58	0.0032
784.815	0.0024
785.05	0.0017
785.285	0.0016
785.52	0.0026
785.754	0.002
785.989	0.0025
786.223	0.0037
786.458	0.0044
786.692	0.0054
786.927	0.0056
787.161	0.0051
787.396	0.0052
787.63	0.0045
787.864	0.0035
788.098	0.0023
788.332	0.0029
788.566	0.0021
788.8	0.0022
789.034	0.003
789.268	0.0024
789.502	0.0022
789.736	0.0031
789.969	0.003
790.203	0.0031
790.437	0.0039
790.67	0.0038
790.904	0.0056
791.137	0.0073
791.37	0.0068
791.604	0.0068
791.837	0.0067
792.07	0.0076
792.303	0.0087
792.537	0.0091
792.77	0.0081
793.003	0.007
793.236	0.0057
793.469	0.0052
793.701	0.0039
793.934	0.0028
794.167	0.0022
794.4	0.0008
794.632	0.0004
794.865	0.0011
795.097	0.0015
795.33	0.0018
795.562	0.002
795.795	0.0017
796.027	0.0026
796.259	0.003
796.491	0.0023
796.724	0.0025
796.956	0.0022
797.188	0.0022
797.42	0.0022
797.652	0.0024
797.883	0.0029
798.115	0.0039
798.347	0.0037
798.579	0.0034
798.81	0.0031
799.042	0.0038
799.274	0.0038
799.505	0.003
799.737	0.0032
799.968	0.0026
800.199	0.0018
800.431	0.0029
800.662	0.0016
800.893	0.0019
801.124	0.0033
801.355	0.0033
801.586	0.0047
801.817	0.0067
802.048	0.0068
802.279	0.0068
802.51	0.0075
802.741	0.0083
802.971	0.0073
803.202	0.0055
803.433	0.0051
803.663	0.0046
803.894	0.0044
804.124	0.0042
804.354	0.0044
804.585	0.0057
804.815	0.0058
805.045	0.0065
805.275	0.0054
805.506	0.0122
805.736	-0.0308
805.966	0.0076
806.196	0.0269
