Data from 03 0.4 mM K2Cr2O7 0.25 M BQDS 1 M H2SO4 5 min_Absorbance_0124.txt Node
Date: Wed Dec 15 03:50:12 EST 2021
User: kwabilab-user
Spectrometer: HDX00518
Trigger mode: 0
Integration Time (sec): 5.000000E-2
Scans to average: 50
Nonlinearity correction enabled: false
Boxcar width: 0
Storing dark spectrum: false
XAxis mode: Wavelengths
Number of Pixels in Spectrum: 2068
>>>>>Begin Spectral Data<<<<<
195.27	-0.2446
195.642	-0.0373
196.014	-0.3218
196.386	-0.2245
196.758	-0.1397
197.129	-0.0547
197.501	-0.0717
197.872	-0.038
198.244	-0.029
198.615	-0.0064
198.986	-0.022
199.357	-0.0165
199.728	0.011
200.099	-0.0262
200.47	-0.0223
200.841	-0.0206
201.212	-0.0234
201.582	-0.0209
201.953	-0.0008
202.323	-0.0171
202.694	-0.0185
203.064	-0.0315
203.434	-0.0425
203.804	-0.0315
204.174	-0.0386
204.544	-0.0181
204.914	-0.0421
205.284	-0.0335
205.653	-0.0477
206.023	-0.0377
206.393	-0.0305
206.762	-0.0121
207.131	-0.0236
207.501	-0.0231
207.87	-0.0304
208.239	-0.0365
208.608	-0.0283
208.977	-0.0538
209.346	-0.0392
209.715	-0.031
210.083	-0.0308
210.452	-0.0416
210.82	-0.0243
211.189	-0.0583
211.557	-0.0318
211.925	-0.0329
212.294	-0.029
212.662	-0.0273
213.03	-0.0305
213.398	-0.0369
213.766	-0.0423
214.133	-0.0351
214.501	-0.0365
214.869	-0.0374
215.236	-0.0274
215.604	-0.0384
215.971	-0.0065
216.338	-0.0177
216.705	-0.044
217.072	-0.017
217.439	-0.024
217.806	-0.026
218.173	-0.0082
218.54	-0.0138
218.907	0.0009
219.273	-0.0103
219.64	0.0133
220.006	0.0095
220.373	0.0351
220.739	0.0468
221.105	0.0811
221.471	0.078
221.837	0.0892
222.203	0.1205
222.569	0.1133
222.935	0.1464
223.3	0.1633
223.666	0.1741
224.031	0.2076
224.397	0.2263
224.762	0.2606
225.127	0.2692
225.493	0.3085
225.858	0.3296
226.223	0.3405
226.588	0.3724
226.952	0.3922
227.317	0.4329
227.682	0.4473
228.046	0.4342
228.411	0.454
228.775	0.4717
229.14	0.4939
229.504	0.4998
229.868	0.5062
230.232	0.5211
230.596	0.5435
230.96	0.5555
231.324	0.5473
231.688	0.5609
232.052	0.5808
232.415	0.5672
232.779	0.5765
233.142	0.5823
233.505	0.5777
233.869	0.5913
234.232	0.5857
234.595	0.5888
234.958	0.6016
235.321	0.5857
235.684	0.5848
236.047	0.5849
236.409	0.5798
236.772	0.5814
237.134	0.5784
237.497	0.5805
237.859	0.5886
238.222	0.5838
238.584	0.575
238.946	0.5629
239.308	0.5711
239.67	0.5673
240.032	0.5708
240.393	0.5612
240.755	0.5538
241.117	0.5594
241.478	0.5537
241.84	0.5548
242.201	0.5556
242.562	0.5438
242.924	0.5459
243.285	0.5308
243.646	0.5464
244.007	0.5458
244.368	0.5399
244.728	0.5348
245.089	0.5375
245.45	0.5316
245.81	0.5334
246.171	0.5204
246.531	0.531
246.891	0.5239
247.252	0.5144
247.612	0.5266
247.972	0.5204
248.332	0.5163
248.692	0.5214
249.051	0.514
249.411	0.5133
249.771	0.5103
250.13	0.5139
250.49	0.5116
250.849	0.5117
251.208	0.5136
251.568	0.5139
251.927	0.5088
252.286	0.5148
252.645	0.506
253.004	0.5099
253.363	0.5106
253.721	0.5088
254.08	0.5092
254.439	0.5012
254.797	0.504
255.155	0.5062
255.514	0.5034
255.872	0.504
256.23	0.4966
256.588	0.5014
256.946	0.5071
257.304	0.4995
257.662	0.5019
258.02	0.4996
258.377	0.4986
258.735	0.4985
259.093	0.4999
259.45	0.4972
259.807	0.5004
260.165	0.4979
260.522	0.4925
260.879	0.4894
261.236	0.4917
261.593	0.4896
261.95	0.4902
262.306	0.4868
262.663	0.4824
263.02	0.4871
263.376	0.4825
263.733	0.4809
264.089	0.4804
264.445	0.4799
264.802	0.4745
265.158	0.4763
265.514	0.4754
265.87	0.4737
266.226	0.4723
266.581	0.4688
266.937	0.4728
267.293	0.4671
267.648	0.4645
268.004	0.4629
268.359	0.4558
268.714	0.4522
269.07	0.4498
269.425	0.4522
269.78	0.447
270.135	0.4454
270.49	0.4437
270.844	0.4435
271.199	0.4389
271.554	0.438
271.908	0.4381
272.263	0.4318
272.617	0.4317
272.972	0.4293
273.326	0.4293
273.68	0.4208
274.034	0.4201
274.388	0.4201
274.742	0.4158
275.096	0.4105
275.45	0.4093
275.803	0.4041
276.157	0.4026
276.51	0.3996
276.864	0.3976
277.217	0.3969
277.571	0.394
277.924	0.3887
278.277	0.3811
278.63	0.3768
278.983	0.3778
279.336	0.3768
279.688	0.3706
280.041	0.3665
280.394	0.3623
280.746	0.3611
281.099	0.3561
281.451	0.3543
281.803	0.3504
282.156	0.3459
282.508	0.343
282.86	0.3402
283.212	0.3373
283.564	0.3328
283.916	0.3278
284.267	0.324
284.619	0.3218
284.971	0.3155
285.322	0.3163
285.673	0.3139
286.025	0.3065
286.376	0.3052
286.727	0.3016
287.078	0.2988
287.429	0.295
287.78	0.291
288.131	0.2881
288.482	0.2842
288.833	0.28
289.183	0.2776
289.534	0.2743
289.884	0.2727
290.235	0.2681
290.585	0.2652
290.935	0.2612
291.285	0.2583
291.635	0.2548
291.985	0.254
292.335	0.2506
292.685	0.2473
293.035	0.242
293.384	0.24
293.734	0.236
294.083	0.2341
294.433	0.2303
294.782	0.228
295.131	0.2239
295.48	0.2217
295.829	0.2192
296.179	0.2161
296.527	0.2132
296.876	0.2096
297.225	0.2053
297.574	0.2042
297.922	0.2004
298.271	0.1978
298.619	0.194
298.968	0.1934
299.316	0.1893
299.664	0.1876
300.012	0.1847
300.36	0.1813
300.708	0.1798
301.056	0.1773
301.404	0.175
301.752	0.1728
302.099	0.1696
302.447	0.1684
302.794	0.1655
303.142	0.1629
303.489	0.1605
303.836	0.1602
304.183	0.158
304.531	0.1564
304.878	0.1539
305.224	0.1523
305.571	0.1514
305.918	0.1495
306.265	0.1457
306.611	0.1455
306.958	0.1456
307.304	0.1435
307.651	0.1427
307.997	0.1409
308.343	0.1397
308.689	0.1401
309.035	0.1374
309.381	0.1369
309.727	0.1354
310.073	0.1354
310.419	0.1343
310.764	0.1337
311.11	0.1323
311.455	0.1325
311.801	0.1316
312.146	0.1305
312.491	0.1303
312.837	0.13
313.182	0.1288
313.527	0.1284
313.872	0.1288
314.216	0.129
314.561	0.1281
314.906	0.1281
315.251	0.1291
315.595	0.1289
315.94	0.1283
316.284	0.1283
316.628	0.1281
316.972	0.1282
317.317	0.1288
317.661	0.1292
318.005	0.1289
318.348	0.1297
318.692	0.1299
319.036	0.1302
319.38	0.1311
319.723	0.1306
320.067	0.1321
320.41	0.1319
320.754	0.1325
321.097	0.1328
321.44	0.1341
321.783	0.1346
322.126	0.1358
322.469	0.1356
322.812	0.1371
323.155	0.1381
323.498	0.138
323.84	0.1383
324.183	0.1401
324.525	0.1406
324.868	0.1425
325.21	0.1422
325.552	0.1431
325.894	0.1442
326.236	0.1452
326.578	0.1464
326.92	0.1472
327.262	0.1481
327.604	0.1493
327.946	0.1499
328.287	0.1509
328.629	0.1523
328.97	0.1526
329.312	0.1544
329.653	0.1554
329.994	0.1568
330.335	0.1569
330.676	0.1587
331.017	0.1592
331.358	0.1606
331.699	0.1629
332.04	0.1632
332.38	0.1638
332.721	0.1649
333.061	0.1665
333.402	0.1679
333.742	0.1687
334.083	0.1692
334.423	0.1705
334.763	0.1717
335.103	0.1724
335.443	0.1741
335.783	0.1749
336.123	0.1749
336.462	0.1762
336.802	0.1768
337.141	0.1775
337.481	0.1782
337.82	0.1802
338.16	0.1802
338.499	0.182
338.838	0.1821
339.177	0.1837
339.516	0.1845
339.855	0.1851
340.194	0.1856
340.533	0.1855
340.872	0.1867
341.21	0.1878
341.549	0.1884
341.887	0.1893
342.226	0.1894
342.564	0.19
342.902	0.1909
343.24	0.1907
343.578	0.1909
343.916	0.1914
344.254	0.1919
344.592	0.1927
344.93	0.1923
345.268	0.1917
345.605	0.1927
345.943	0.1926
346.28	0.1933
346.618	0.1925
346.955	0.1927
347.292	0.194
347.629	0.1928
347.966	0.1929
348.303	0.1936
348.64	0.1938
348.977	0.1935
349.314	0.1938
349.65	0.1932
349.987	0.1937
350.324	0.193
350.66	0.1932
350.996	0.1928
351.333	0.1925
351.669	0.1918
352.005	0.1923
352.341	0.1908
352.677	0.1908
353.013	0.1884
353.349	0.1885
353.685	0.188
354.02	0.1871
354.356	0.1872
354.691	0.1856
355.027	0.1848
355.362	0.1835
355.697	0.1829
356.033	0.1833
356.368	0.1817
356.703	0.1813
357.038	0.1812
357.373	0.1793
357.707	0.1799
358.042	0.1782
358.377	0.1777
358.711	0.1782
359.046	0.176
359.38	0.1753
359.715	0.1748
360.049	0.1739
360.383	0.1719
360.717	0.1711
361.051	0.1705
361.385	0.1701
361.719	0.1685
362.053	0.1685
362.387	0.166
362.72	0.1647
363.054	0.1634
363.387	0.1624
363.721	0.1616
364.054	0.1603
364.387	0.1576
364.721	0.1567
365.054	0.1559
365.387	0.1542
365.72	0.1533
366.053	0.1524
366.385	0.1503
366.718	0.149
367.051	0.1486
367.383	0.1476
367.716	0.1464
368.048	0.1454
368.381	0.1445
368.713	0.1431
369.045	0.1418
369.377	0.1411
369.709	0.1407
370.041	0.1392
370.373	0.1381
370.705	0.1375
371.037	0.1352
371.368	0.1343
371.7	0.1328
372.031	0.1314
372.363	0.1304
372.694	0.129
373.025	0.1276
373.356	0.1266
373.688	0.1248
374.019	0.1231
374.35	0.1213
374.68	0.1203
375.011	0.1186
375.342	0.1174
375.673	0.1162
376.003	0.1141
376.334	0.1132
376.664	0.1124
376.995	0.1105
377.325	0.1086
377.655	0.1076
377.985	0.1063
378.315	0.1057
378.645	0.104
378.975	0.1043
379.305	0.1023
379.635	0.1026
379.964	0.1003
380.294	0.1003
380.623	0.0987
380.953	0.0973
381.282	0.0964
381.611	0.0957
381.941	0.0953
382.27	0.0935
382.599	0.0938
382.928	0.0909
383.257	0.0904
383.585	0.0895
383.914	0.0882
384.243	0.0859
384.571	0.0858
384.9	0.0847
385.228	0.083
385.557	0.0826
385.885	0.0802
386.213	0.0801
386.541	0.0791
386.869	0.0776
387.197	0.0758
387.525	0.0755
387.853	0.0734
388.181	0.0726
388.508	0.0715
388.836	0.0701
389.164	0.0696
389.491	0.0685
389.818	0.0671
390.146	0.0672
390.473	0.0657
390.8	0.0658
391.127	0.0639
391.454	0.0628
391.781	0.0621
392.108	0.062
392.435	0.0606
392.761	0.0601
393.088	0.0597
393.415	0.0589
393.741	0.0585
394.067	0.0588
394.394	0.057
394.72	0.0569
395.046	0.0552
395.372	0.0549
395.698	0.0541
396.024	0.053
396.35	0.0529
396.676	0.0517
397.001	0.0513
397.327	0.0508
397.653	0.0494
397.978	0.0496
398.303	0.0488
398.629	0.0478
398.954	0.0475
399.279	0.0471
399.604	0.0464
399.929	0.0462
400.254	0.0455
400.579	0.0448
400.904	0.044
401.229	0.0437
401.553	0.0436
401.878	0.0434
402.202	0.0431
402.527	0.0421
402.851	0.042
403.175	0.0412
403.5	0.0407
403.824	0.0403
404.148	0.0405
404.472	0.04
404.796	0.0395
405.119	0.0393
405.443	0.0393
405.767	0.0388
406.09	0.0391
406.414	0.0388
406.737	0.0392
407.061	0.0381
407.384	0.0379
407.707	0.0376
408.03	0.0375
408.353	0.0367
408.676	0.037
408.999	0.0373
409.322	0.0364
409.645	0.0366
409.968	0.0366
410.29	0.0364
410.613	0.0368
410.935	0.036
411.258	0.0361
411.58	0.0359
411.902	0.0357
412.224	0.0358
412.546	0.0361
412.868	0.0369
413.19	0.0362
413.512	0.0362
413.834	0.0355
414.156	0.0358
414.477	0.0353
414.799	0.036
415.121	0.0347
415.442	0.0357
415.763	0.0353
416.085	0.0355
416.406	0.0355
416.727	0.0354
417.048	0.0353
417.369	0.0354
417.69	0.0354
418.011	0.0356
418.331	0.0349
418.652	0.0351
418.973	0.0347
419.293	0.035
419.614	0.0342
419.934	0.0353
420.254	0.0349
420.574	0.0338
420.895	0.035
421.215	0.0348
421.535	0.0352
421.855	0.0342
422.174	0.0339
422.494	0.0343
422.814	0.0347
423.134	0.035
423.453	0.0353
423.773	0.0354
424.092	0.0349
424.411	0.035
424.731	0.035
425.05	0.0353
425.369	0.0345
425.688	0.035
426.007	0.0347
426.326	0.0355
426.644	0.0349
426.963	0.0351
427.282	0.0352
427.6	0.035
427.919	0.035
428.237	0.0352
428.556	0.0355
428.874	0.0346
429.192	0.0349
429.51	0.0346
429.828	0.035
430.146	0.0346
430.464	0.0346
430.782	0.0342
431.1	0.034
431.418	0.0346
431.735	0.034
432.053	0.0345
432.37	0.0348
432.688	0.0342
433.005	0.0341
433.322	0.0355
433.639	0.0348
433.957	0.0342
434.274	0.0345
434.591	0.0347
434.907	0.0348
435.224	0.0348
435.541	0.0353
435.858	0.0357
436.174	0.0351
436.491	0.0347
436.807	0.0338
437.124	0.0345
437.44	0.0346
437.756	0.0348
438.072	0.0339
438.388	0.0346
438.704	0.0343
439.02	0.0337
439.336	0.0339
439.652	0.0346
439.968	0.034
440.283	0.0344
440.599	0.0342
440.914	0.0345
441.23	0.0339
441.545	0.0337
441.86	0.0346
442.175	0.0344
442.491	0.034
442.806	0.0343
443.121	0.0332
443.435	0.0333
443.75	0.0333
444.065	0.0336
444.38	0.034
444.694	0.0332
445.009	0.0329
445.323	0.0337
445.638	0.0331
445.952	0.0331
446.266	0.0327
446.58	0.0317
446.894	0.0329
447.208	0.0324
447.522	0.0324
447.836	0.0327
448.15	0.0327
448.464	0.0325
448.777	0.0325
449.091	0.0322
449.404	0.0318
449.718	0.032
450.031	0.0315
450.345	0.032
450.658	0.0312
450.971	0.0318
451.284	0.0315
451.597	0.0317
451.91	0.031
452.223	0.0318
452.535	0.0311
452.848	0.031
453.161	0.0307
453.473	0.0312
453.786	0.0306
454.098	0.031
454.411	0.0307
454.723	0.03
455.035	0.0294
455.347	0.03
455.659	0.0308
455.971	0.0313
456.283	0.0304
456.595	0.0306
456.907	0.0308
457.218	0.0301
457.53	0.0293
457.841	0.0293
458.153	0.0295
458.464	0.029
458.776	0.0295
459.087	0.0289
459.398	0.0292
459.709	0.0284
460.02	0.0295
460.331	0.0293
460.642	0.0284
460.953	0.0282
461.263	0.0285
461.574	0.0272
461.885	0.0286
462.195	0.0278
462.506	0.0276
462.816	0.0285
463.126	0.0275
463.437	0.0279
463.747	0.0268
464.057	0.0261
464.367	0.0253
464.677	0.027
464.987	0.0266
465.296	0.0253
465.606	0.0253
465.916	0.0253
466.225	0.0261
466.535	0.0255
466.844	0.0268
467.154	0.0265
467.463	0.0254
467.772	0.025
468.081	0.0254
468.39	0.0248
468.699	0.0246
469.008	0.025
469.317	0.0248
469.626	0.0249
469.935	0.0242
470.243	0.0238
470.552	0.0242
470.86	0.0241
471.169	0.0238
471.477	0.0221
471.785	0.0223
472.093	0.0227
472.402	0.0224
472.71	0.0215
473.018	0.0218
473.326	0.0218
473.633	0.0217
473.941	0.0215
474.249	0.0216
474.556	0.0216
474.864	0.0216
475.171	0.0217
475.479	0.0208
475.786	0.0219
476.094	0.021
476.401	0.0212
476.708	0.0204
477.015	0.0196
477.322	0.0198
477.629	0.0195
477.936	0.0203
478.242	0.0196
478.549	0.0197
478.856	0.02
479.162	0.0191
479.469	0.0194
479.775	0.0188
480.081	0.018
480.388	0.0189
480.694	0.0184
481	0.0177
481.306	0.0183
481.612	0.0187
481.918	0.0187
482.224	0.0179
482.53	0.0179
482.835	0.0178
483.141	0.0182
483.446	0.0176
483.752	0.0167
484.057	0.0165
484.363	0.0174
484.668	0.0164
484.973	0.0161
485.278	0.0151
485.583	0.0151
485.888	0.016
486.193	0.0147
486.498	0.0161
486.803	0.0154
487.107	0.0155
487.412	0.0142
487.717	0.0148
488.021	0.0156
488.325	0.0151
488.63	0.0148
488.934	0.0151
489.238	0.0148
489.542	0.0147
489.846	0.0141
490.15	0.0146
490.454	0.015
490.758	0.0131
491.062	0.0137
491.366	0.0137
491.669	0.0129
491.973	0.0137
492.276	0.0134
492.58	0.0129
492.883	0.0126
493.186	0.0125
493.489	0.0129
493.792	0.011
494.096	0.0116
494.399	0.0116
494.701	0.0116
495.004	0.0113
495.307	0.0111
495.61	0.0118
495.912	0.0124
496.215	0.0109
496.517	0.012
496.82	0.0112
497.122	0.0112
497.424	0.0113
497.727	0.0104
498.029	0.0104
498.331	0.0103
498.633	0.0105
498.935	0.0097
499.237	0.0112
499.538	0.0099
499.84	0.0094
500.142	0.0098
500.443	0.0097
500.745	0.0099
501.046	0.0102
501.348	0.0085
501.649	0.0088
501.95	0.0085
502.251	0.0098
502.552	0.0089
502.853	0.0086
503.154	0.0096
503.455	0.0077
503.756	0.0086
504.057	0.0083
504.357	0.0079
504.658	0.0081
504.958	0.0081
505.259	0.0076
505.559	0.0085
505.859	0.0081
506.16	0.0074
506.46	0.0072
506.76	0.0075
507.06	0.0059
507.36	0.0074
507.66	0.0071
507.96	0.0085
508.259	0.0069
508.559	0.007
508.859	0.0076
509.158	0.0066
509.457	0.006
509.757	0.0065
510.056	0.0064
510.355	0.0069
510.655	0.0062
510.954	0.006
511.253	0.006
511.552	0.0066
511.851	0.0062
512.149	0.0053
512.448	0.0055
512.747	0.0052
513.045	0.0055
513.344	0.0061
513.642	0.0056
513.941	0.0054
514.239	0.0053
514.537	0.0061
514.836	0.0052
515.134	0.0059
515.432	0.0051
515.73	0.0049
516.028	0.0053
516.326	0.0039
516.623	0.0034
516.921	0.005
517.219	0.0059
517.516	0.0041
517.814	0.0051
518.111	0.0046
518.409	0.0047
518.706	0.0046
519.003	0.0035
519.3	0.0043
519.597	0.0052
519.894	0.0033
520.191	0.0054
520.488	0.0053
520.785	0.0046
521.082	0.005
521.378	0.0049
521.675	0.0042
521.971	0.004
522.268	0.0044
522.564	0.0046
522.861	0.0054
523.157	0.0041
523.453	0.0044
523.749	0.0037
524.045	0.0042
524.341	0.0042
524.637	0.0032
524.933	0.004
525.229	0.0046
525.524	0.004
525.82	0.0049
526.115	0.0042
526.411	0.0042
526.706	0.0049
527.002	0.004
527.297	0.0028
527.592	0.004
527.887	0.0029
528.182	0.0026
528.477	0.0045
528.772	0.003
529.067	0.0041
529.362	0.0039
529.657	0.0035
529.951	0.0027
530.246	0.0024
530.54	0.0026
530.835	0.0024
531.129	0.0034
531.423	0.003
531.718	0.0025
532.012	0.003
532.306	0.004
532.6	0.0024
532.894	0.0024
533.188	0.0021
533.482	0.0029
533.775	0.002
534.069	0.0027
534.363	0.0025
534.656	0.0022
534.95	0.0025
535.243	0.0028
535.536	0.0024
535.83	0.0023
536.123	0.0016
536.416	0.0026
536.709	0.0031
537.002	0.0037
537.295	0.0034
537.588	0.003
537.881	0.0031
538.173	0.0041
538.466	0.0031
538.759	0.0029
539.051	0.0037
539.344	0.0039
539.636	0.0026
539.928	0.0042
540.22	0.0025
540.513	0.0038
540.805	0.0038
541.097	0.0036
541.389	0.0017
541.681	0.0037
541.972	0.002
542.264	0.004
542.556	0.005
542.847	0.0033
543.139	0.0034
543.431	0.0037
543.722	0.0025
544.013	0.0034
544.305	0.0023
544.596	0.0032
544.887	0.003
545.178	0.0038
545.469	0.0032
545.76	0.0037
546.051	0.0045
546.342	0.0037
546.632	0.0026
546.923	0.0025
547.214	0.0024
547.504	0.0036
547.795	0.0016
548.085	0.0024
548.375	0.003
548.666	0.0038
548.956	0.0029
549.246	0.0045
549.536	0.0039
549.826	0.0043
550.116	0.004
550.406	0.0025
550.695	0.003
550.985	0.0043
551.275	0.004
551.564	0.0042
551.854	0.0041
552.143	0.0034
552.433	0.0028
552.722	0.0042
553.011	0.0033
553.3	0.0034
553.589	0.0043
553.879	0.004
554.167	0.004
554.456	0.0028
554.745	0.004
555.034	0.0047
555.323	0.0036
555.611	0.0035
555.9	0.0034
556.188	0.0032
556.477	0.0024
556.765	0.0031
557.053	0.0042
557.342	0.0043
557.63	0.0041
557.918	0.0035
558.206	0.004
558.494	0.0041
558.782	0.004
559.069	0.0045
559.357	0.0035
559.645	0.0038
559.932	0.0029
560.22	0.0036
560.507	0.0023
560.795	0.0035
561.082	0.0017
561.37	0.0032
561.657	0.0025
561.944	0.0025
562.231	0.0024
562.518	0.0031
562.805	0.0039
563.092	0.0026
563.379	0.0033
563.665	0.0029
563.952	0.0046
564.239	0.0041
564.525	0.0031
564.811	0.004
565.098	0.0024
565.384	0.0032
565.67	0.003
565.957	0.0035
566.243	0.004
566.529	0.0032
566.815	0.0029
567.101	0.0026
567.387	0.0022
567.672	0.0026
567.958	0.0016
568.244	0.0016
568.529	0.0026
568.815	0.0023
569.1	0.0026
569.386	0.0034
569.671	0.0025
569.956	0.003
570.242	0.0026
570.527	0.0023
570.812	0.0028
571.097	0.0019
571.382	0.0013
571.666	0.0024
571.951	0.0035
572.236	0.0028
572.521	0.003
572.805	0.0042
573.09	0.0028
573.374	0.0021
573.659	0.0031
573.943	0.0028
574.227	0.0033
574.511	0.0029
574.795	0.003
575.079	0.0037
575.363	0.0026
575.647	0.0025
575.931	0.0038
576.215	0.0033
576.499	0.0017
576.782	0.002
577.066	0.0025
577.349	0.0033
577.633	0.0041
577.916	0.0022
578.2	0.0032
578.483	0.0033
578.766	0.0035
579.049	0.003
579.332	0.0031
579.615	0.0026
579.898	0.0017
580.181	0.0026
580.464	0.003
580.746	0.0032
581.029	0.0027
581.312	0.0022
581.594	0.0015
581.877	0.0027
582.159	0.0044
582.441	0.002
582.724	0.0034
583.006	0.0031
583.288	0.0032
583.57	0.0027
583.852	0.0031
584.134	0.0032
584.416	0.0026
584.697	0.0026
584.979	0.0023
585.261	0.002
585.542	0.0034
585.824	0.0042
586.105	0.0034
586.387	0.0031
586.668	0.0033
586.949	0.0033
587.231	0.0034
587.512	0.0028
587.793	0.0026
588.074	0.0028
588.355	0.0029
588.636	0.0025
588.916	0.0028
589.197	0.0027
589.478	0.0025
589.758	0.0021
590.039	0.0021
590.319	0.0013
590.6	0.0027
590.88	0.0025
591.16	0.0022
591.441	0.0026
591.721	0.0023
592.001	0.0022
592.281	0.0024
592.561	0.0033
592.841	0.0022
593.12	0.0018
593.4	0.0027
593.68	0.0023
593.959	0.0029
594.239	0.0037
594.518	0.0043
594.798	0.0031
595.077	0.0017
595.356	0.0024
595.636	0.0025
595.915	0.0031
596.194	0.0024
596.473	0.0028
596.752	0.0021
597.031	0.0028
597.31	0.0016
597.588	0.0021
597.867	0.0022
598.146	0.0015
598.424	0.0012
598.703	0.0023
598.981	0.0017
599.259	0.0015
599.538	0.0036
599.816	0.0036
600.094	0.0026
600.372	0.0029
600.65	0.0034
600.928	0.0029
601.206	0.0023
601.484	0.003
601.762	0.0041
602.04	0.0036
602.317	0.0028
602.595	0.0038
602.872	0.0025
603.15	0.0039
603.427	0.0015
603.704	0.0025
603.982	0.0015
604.259	0.0018
604.536	0.0018
604.813	0.0021
605.09	0.0022
605.367	0.0014
605.644	0.0017
605.921	0.0019
606.197	0.0018
606.474	0.0025
606.751	0.0016
607.027	0.0023
607.304	0.0017
607.58	0.0024
607.856	0.0027
608.133	0.0033
608.409	0.0039
608.685	0.0029
608.961	0.0029
609.237	0.0035
609.513	0.0041
609.789	0.0018
610.065	0.002
610.341	0.0012
610.616	0.0024
610.892	0.0021
611.167	0.0022
611.443	0.0025
611.718	0.0021
611.994	0.0023
612.269	0.0018
612.544	0.0025
612.819	0.0018
613.095	0.002
613.37	0.0013
613.645	0.001
613.919	0.0019
614.194	0.0019
614.469	0.0026
614.744	0.0014
615.019	0.001
615.293	0.0016
615.568	0.0019
615.842	0.0009
616.116	0.0016
616.391	0.0014
616.665	-0.0006
616.939	0.0007
617.213	0.0016
617.488	0.002
617.762	0.0018
618.035	0.0031
618.309	0.0021
618.583	0.0023
618.857	0.0027
619.131	0.0026
619.404	0.0025
619.678	0.0027
619.951	0.002
620.225	0.001
620.498	0.0013
620.771	0.0013
621.045	0.0025
621.318	0.0027
621.591	0.0024
621.864	0.0012
622.137	0.0006
622.41	0.0011
622.683	0.0011
622.956	0.0007
623.228	0.0012
623.501	0.0016
623.774	0.0024
624.046	0.0019
624.319	0.0005
624.591	0.001
624.863	0.0012
625.136	0.0024
625.408	0.0029
625.68	0.0017
625.952	0.0018
626.224	0.003
626.496	0.0014
626.768	0.0025
627.04	0.0016
627.311	0.0007
627.583	0.0023
627.855	0.0024
628.126	0.0003
628.398	0.0007
628.669	0.0009
628.941	-0.0006
629.212	-0.0005
629.483	0.0011
629.755	0.0005
630.026	0.0018
630.297	0.0004
630.568	0.0006
630.839	0.0018
631.11	0.0017
631.38	0.0015
631.651	0.0013
631.922	0.0025
632.192	0.0015
632.463	0.0017
632.733	0.0004
633.004	0.0006
633.274	-0.0006
633.545	0.0016
633.815	0.0012
634.085	0.0019
634.355	0.0012
634.625	0.0008
634.895	0.0017
635.165	0.0011
635.435	0.0021
635.705	0.0013
635.974	0.0012
636.244	0.0003
636.514	-0.0006
636.783	-0.0004
637.053	0.0003
637.322	0.0003
637.591	-0.0001
637.861	-0.0013
638.13	-0.0007
638.399	0.0011
638.668	0.001
638.937	0.0012
639.206	0.0009
639.475	0.0019
639.744	0.0007
640.013	0.0014
640.281	0.001
640.55	0.0013
640.819	0.0003
641.087	0
641.356	0.0005
641.624	0.001
641.892	0.0021
642.161	0.0009
642.429	0.0018
642.697	0.0008
642.965	0.0014
643.233	-0.0008
643.501	-0.0004
643.769	0.0005
644.037	-0.0007
644.305	-0.0008
644.572	-0.0005
644.84	-0.0008
645.108	0.0002
645.375	0.0006
645.643	0.0015
645.91	0.0008
646.177	0.0019
646.445	0
646.712	0.0016
646.979	0.0004
647.246	0.0023
647.513	0.001
647.78	0.0008
648.047	-0.0005
648.314	-0.0023
648.58	-0.0015
648.847	-0.0018
649.114	-0.0019
649.38	-0.0021
649.647	-0.0017
649.913	-0.0004
650.18	0
650.446	0.0016
650.712	0.0016
650.978	0.0018
651.245	0.0016
651.511	0.002
651.777	0.0019
652.043	0.0009
652.309	0.0012
652.574	0.0008
652.84	0.0009
653.106	0.0018
653.371	0.0023
653.637	0.002
653.903	0.0018
654.168	0.0012
654.433	0.0013
654.699	0.0005
654.964	-0.0007
655.229	-0
655.494	0.0011
655.759	-0.0004
656.024	0.0001
656.289	-0
656.554	0.004
656.819	0.0025
657.084	0.0021
657.349	0.0014
657.613	0.0013
657.878	0.0008
658.142	0.0001
658.407	0.0004
658.671	0.0011
658.936	0.0008
659.2	0.0013
659.464	0.0011
659.728	0.0009
659.992	-0.0002
660.256	-0.0014
660.52	-0.0014
660.784	-0.0006
661.048	0.0006
661.312	-0.0004
661.575	-0.0007
661.839	0.0005
662.103	-0.0002
662.366	-0.0008
662.63	0.0003
662.893	-0.0001
663.156	0.0014
663.42	0.0021
663.683	0.0005
663.946	0.0012
664.209	0.0013
664.472	0.0004
664.735	0.0017
664.998	0.002
665.261	0.0024
665.524	0.0017
665.786	0.0016
666.049	0.0012
666.312	0.0011
666.574	0.0014
666.837	0.0029
667.099	0.0019
667.361	0.0022
667.624	0.0019
667.886	0.0016
668.148	0.0026
668.41	0.0017
668.672	0.0019
668.934	0.0019
669.196	0.0009
669.458	0.0009
669.72	0.0001
669.982	0
670.243	-0.0005
670.505	0.0006
670.766	0.0006
671.028	0.0014
671.289	0.0011
671.551	0.0013
671.812	0.0005
672.073	0.0014
672.334	0.001
672.596	0.0008
672.857	0.0016
673.118	0.0017
673.379	0.002
673.639	0.0023
673.9	0.0014
674.161	0.0006
674.422	0.001
674.682	-0.0003
674.943	-0.0006
675.203	0.0001
675.464	0.0001
675.724	0.0008
675.985	0.0002
676.245	-0
676.505	0
676.765	-0.0008
677.025	0.0002
677.285	-0.0003
677.545	-0.0004
677.805	-0.0002
678.065	0.0007
678.325	0.0013
678.585	0.0028
678.844	0.0027
679.104	0.0029
679.363	0.0035
679.623	0.0034
679.882	0.003
680.142	0.004
680.401	0.0033
680.66	0.0042
680.919	0.0027
681.178	0.0038
681.437	0.0032
681.696	0.0022
681.955	0.0052
682.214	0.0042
682.473	0.0044
682.732	0.0015
682.99	0.0039
683.249	0.0036
683.508	0.003
683.766	0.0024
684.024	0.002
684.283	0.0004
684.541	0.0005
684.799	0.0006
685.058	-0.0006
685.316	-0.0007
685.574	-0.0015
685.832	-0.0001
686.09	-0.0005
686.348	-0.0017
686.606	-0.0016
686.863	-0.0022
687.121	-0.002
687.379	-0.0029
687.636	-0.0029
687.894	-0.0029
688.151	-0.0026
688.409	-0.0015
688.666	-0.001
688.923	-0.0007
689.181	-0.0014
689.438	-0.0016
689.695	-0.0005
689.952	-0.0011
690.209	-0.0011
690.466	-0.0016
690.723	-0.0009
690.979	-0.0016
691.236	-0.0017
691.493	-0.0028
691.75	-0.0018
692.006	-0.0009
692.263	-0.0015
692.519	-0.0014
692.775	-0.0025
693.032	-0.0027
693.288	-0.0032
693.544	-0.0033
693.8	-0.0006
694.056	-0.0022
694.313	-0.0027
694.568	-0.0007
694.824	-0.0018
695.08	-0.0012
695.336	-0.001
695.592	-0.0016
695.847	0.0012
696.103	0.0009
696.359	0.0024
696.614	0.0013
696.869	-0.0007
697.125	-0.0016
697.38	-0.0011
697.635	-0.0003
697.891	0.0012
698.146	0.0007
698.401	0.0012
698.656	0.0006
698.911	0.0017
699.166	0.0001
699.42	0.0021
699.675	0.0023
699.93	0.0018
700.185	0.0021
700.439	0.001
700.694	0.0012
700.948	0.0003
701.203	0.0014
701.457	0.0013
701.711	0.0007
701.965	-0.0001
702.22	-0.0002
702.474	0.001
702.728	-0.0002
702.982	0.0007
703.236	0.0003
703.49	0.0001
703.743	-0.001
703.997	0.0004
704.251	-0.0003
704.504	0.0011
704.758	0.0009
705.012	0.0018
705.265	0.003
705.518	0.0021
705.772	0.0024
706.025	0.0026
706.278	0.0023
706.531	0.0009
706.785	-0.0001
707.038	-0.0007
707.291	0.0001
707.543	-0.0003
707.796	0.0001
708.049	0.0007
708.302	0.0001
708.555	-0.0006
708.807	0.0005
709.06	0.0005
709.312	0.0015
709.565	0.0015
709.817	0.003
710.069	0.0015
710.322	0.0022
710.574	0.0021
710.826	0.001
711.078	0.0006
711.33	0.0009
711.582	0.0007
711.834	0.0003
712.086	0.001
712.338	0.0005
712.59	0.0004
712.841	-0.0015
713.093	-0.0005
713.344	0
713.596	-0.0013
713.847	-0.0019
714.099	-0.0021
714.35	-0.0011
714.601	-0.0023
714.853	-0.0027
715.104	-0.0026
715.355	-0.0021
715.606	-0.0006
715.857	-0.0004
716.108	0.0001
716.359	0
716.609	-0.0006
716.86	0.0003
717.111	0.0004
717.361	-0.0008
717.612	-0
717.863	0.0003
718.113	0.0009
718.363	0.0003
718.614	0.002
718.864	0.0011
719.114	0.0003
719.364	-0.0009
719.614	-0.0006
719.865	-0.0005
720.114	0.0007
720.364	0.0002
720.614	-0.0008
720.864	-0.0006
721.114	-0.0021
721.364	-0.0019
721.613	-0.0019
721.863	-0.0015
722.112	-0.0009
722.362	-0.0012
722.611	-0.0001
722.86	-0
723.11	0.0008
723.359	0.0006
723.608	0.0009
723.857	0.0027
724.106	0.0024
724.355	0.0021
724.604	0.0016
724.853	-0.0005
725.102	-0.0017
725.351	-0.0024
725.599	-0.0031
725.848	-0.002
726.097	-0.0012
726.345	-0.0017
726.594	-0.0009
726.842	0.0004
727.09	-0.0002
727.339	-0.0011
727.587	-0.0013
727.835	-0.0027
728.083	-0.0034
728.331	-0.0031
728.579	-0.0019
728.827	-0.0026
729.075	-0.0029
729.323	-0.0027
729.571	-0.0037
729.818	-0.0032
730.066	-0.0026
730.314	-0.0024
730.561	-0.002
730.809	-0.0043
731.056	-0.0029
731.303	-0.003
731.551	-0.0027
731.798	-0.0031
732.045	-0.001
732.292	-0.0019
732.539	-0.0022
732.786	-0.0024
733.033	-0.0032
733.28	-0.0021
733.527	-0.0029
733.774	-0.0033
734.021	-0.0026
734.267	-0.0024
734.514	-0.0026
734.76	-0.0024
735.007	-0.0015
735.253	-0.0014
735.5	0.0011
735.746	0.0017
735.992	0.0014
736.238	0.0013
736.485	0.0009
736.731	0.0008
736.977	-0.0003
737.223	-0.0007
737.469	-0.0009
737.715	0.0001
737.96	-0.0003
738.206	-0.0005
738.452	-0.0006
738.697	-0.0007
738.943	-0.0009
739.189	-0.0012
739.434	-0.0012
739.679	0.0008
739.925	0.0017
740.17	0.002
740.415	0.0018
740.66	0.0016
740.906	0.0008
741.151	0.0007
741.396	-0.0003
741.641	-0.0006
741.886	0.0006
742.13	0.0001
742.375	0.0012
742.62	-0.0005
742.865	0.0002
743.109	0.0016
743.354	0.0004
743.598	-0.0006
743.843	-0.0014
744.087	-0.0021
744.331	-0.0018
744.576	-0.0011
744.82	-0.0008
745.064	-0.0001
745.308	0.0002
745.552	0
745.796	-0.0011
746.04	-0.0009
746.284	-0.0015
746.528	0.0001
746.771	-0.0006
747.015	-0.001
747.259	-0.0015
747.502	-0.0023
747.746	-0.0019
747.989	-0.0014
748.233	-0.0005
748.476	0.0004
748.719	-0.0003
748.963	-0.0005
749.206	-0.0006
749.449	-0.0008
749.692	-0.0009
749.935	-0.0001
750.178	-0.0002
750.421	-0.0015
750.664	-0.0016
750.906	-0.0016
751.149	-0.0017
751.392	-0.0017
751.635	-0.0017
751.877	-0.0017
752.12	-0.0027
752.362	0
752.604	-0.0002
752.847	-0.0008
753.089	-0.0014
753.331	-0.002
753.573	-0.0026
753.816	-0.0008
754.058	-0.0014
754.3	-0.0011
754.542	0
754.783	-0.0002
755.025	0
755.267	-0.0001
755.509	-0.0001
755.75	-0.0016
755.992	-0.0005
756.234	-0.0005
756.475	0.0006
756.716	-0.0002
756.958	-0.0006
757.199	-0.0001
757.44	0.0004
757.682	-0.0004
757.923	0.0001
758.164	0.0006
758.405	-0
758.646	-0.0001
758.887	-0.0009
759.128	-0.0015
759.369	-0.0029
759.609	-0.0024
759.85	-0.0015
760.091	-0.0018
760.331	-0.0005
760.572	-0.0009
760.812	-0.0014
761.053	-0.0006
761.293	-0.0006
761.533	0.0004
761.774	0.0007
762.014	-0.0005
762.254	-0.0004
762.494	-0.0004
762.734	-0.0002
762.974	0.0002
763.214	0.0002
763.454	0.0001
763.694	0.0006
763.933	0.0022
764.173	0.0031
764.413	0.0027
764.652	0.0003
764.892	-0.0001
765.131	-0.0005
765.371	-0.0011
765.61	-0.0004
765.849	-0.0029
766.089	-0.0026
766.328	-0.0029
766.567	-0.0032
766.806	-0.0036
767.045	-0.0041
767.284	-0.0036
767.523	-0.0034
767.762	-0.0034
768.001	-0.0026
768.239	-0.0024
768.478	-0.0024
768.717	-0.0032
768.955	-0.0033
769.194	-0.0025
769.432	-0.0014
769.671	-0.0021
769.909	-0.0024
770.148	-0.0021
770.386	-0.0022
770.624	-0.0015
770.862	-0.0026
771.1	-0.0021
771.338	-0.0031
771.576	-0.0019
771.814	-0.0009
772.052	-0.0016
772.29	-0.0004
772.528	-0.0019
772.765	-0.0023
773.003	-0.0016
773.24	-0.001
773.478	-0.0016
773.716	0.0001
773.953	-0.0006
774.19	0.0002
774.428	0.0009
774.665	0.0017
774.902	0.002
775.139	0.001
775.376	-0.0003
775.613	0.0003
775.85	-0
776.087	-0.0002
776.324	-0.0004
776.561	-0.0024
776.798	-0.0014
777.034	-0.0018
777.271	-0.0018
777.508	-0.0015
777.744	-0.0012
777.981	-0.0005
778.217	-0.0027
778.454	-0.0026
778.69	-0.0022
778.926	-0.0019
779.162	-0.0016
779.399	-0.0003
779.635	-0.0009
779.871	-0.0016
780.107	-0.002
780.343	-0.0028
780.579	-0.0019
780.814	-0.0017
781.05	-0.0018
781.286	-0.0023
781.522	-0.0024
781.757	-0.0022
781.993	-0.0015
782.228	-0.0017
782.464	-0.001
782.699	-0.0007
782.934	-0.002
783.17	-0.0012
783.405	-0.001
783.64	-0.0017
783.875	-0.002
784.11	-0.001
784.345	-0.001
784.58	-0.0003
784.815	-0.0003
785.05	-0.0014
785.285	-0.0024
785.52	0
785.754	-0.0008
785.989	-0.0007
786.223	0.0013
786.458	0.0016
786.692	0.0025
786.927	0.004
787.161	0.0032
787.396	0.003
787.63	0.0031
787.864	0.0017
788.098	0.0002
788.332	-0.0007
788.566	-0.0008
788.8	-0.0007
789.034	-0.0009
789.268	-0.0016
789.502	-0.0017
789.736	-0.0017
789.969	-0.0012
790.203	-0.0013
790.437	-0.0011
790.67	-0.0006
790.904	0.0005
791.137	0.0014
791.37	0.001
791.604	0.0013
791.837	0.0025
792.07	0.0024
792.303	0.0036
792.537	0.0041
792.77	0.0027
793.003	0.0034
793.236	0.0023
793.469	0.0022
793.701	0.0011
793.934	0.001
794.167	0.0004
794.4	-0.0004
794.632	-0.0004
794.865	-0.0014
795.097	-0.0016
795.33	-0.0014
795.562	-0.0011
795.795	-0.0019
796.027	0.0002
796.259	0.0003
796.491	-0.0003
796.724	0.001
796.956	0.0008
797.188	0.0008
797.42	-0.0003
797.652	0.0007
797.883	0.0015
798.115	0.0019
798.347	0.0015
798.579	0.0008
798.81	0.0013
799.042	0.0008
799.274	0.0027
799.505	0.0022
799.737	0.0023
799.968	0.002
800.199	0.0015
800.431	0.0025
800.662	0.0011
800.893	0.002
801.124	0.002
801.355	0.0016
801.586	0.0028
801.817	0.0044
802.048	0.0036
802.279	0.0034
802.51	0.004
802.741	0.0035
802.971	0.0037
803.202	0.0027
803.433	0.0028
803.663	0.0022
803.894	0.0028
804.124	0.0026
804.354	0.0032
804.585	0.0047
804.815	0.0041
805.045	0.0056
805.275	0.0054
805.506	0.0622
805.736	-0.2065
805.966	-0.3904
806.196	-0.2718
