Data from 03 0.4 mM K2Cr2O7 0.25 M BQDS 1 M H2SO4 5 min_Absorbance_0216.txt Node
Date: Wed Dec 15 11:30:13 EST 2021
User: kwabilab-user
Spectrometer: HDX00518
Trigger mode: 0
Integration Time (sec): 5.000000E-2
Scans to average: 50
Nonlinearity correction enabled: false
Boxcar width: 0
Storing dark spectrum: false
XAxis mode: Wavelengths
Number of Pixels in Spectrum: 2068
>>>>>Begin Spectral Data<<<<<
195.27	-0.2303
195.642	0.0759
196.014	-0.2887
196.386	-0.2564
196.758	-0.069
197.129	-0.018
197.501	-0.0326
197.872	-0.0037
198.244	0.0224
198.615	0.0286
198.986	0.0196
199.357	0.0141
199.728	0.0472
200.099	0.0063
200.47	0.0263
200.841	0.0109
201.212	0.0037
201.582	0.0429
201.953	0.0291
202.323	0.0257
202.694	0.0196
203.064	0.0275
203.434	0.006
203.804	-0.006
204.174	0.0154
204.544	0.0331
204.914	-0.0163
205.284	0.0239
205.653	0.0097
206.023	0.0097
206.393	0.035
206.762	0.0276
207.131	0.0288
207.501	0.0173
207.87	0.0265
208.239	0.0188
208.608	0.0101
208.977	0.0053
209.346	0.0052
209.715	0.0156
210.083	0.0207
210.452	0.0079
210.82	0.0231
211.189	-0.003
211.557	0.0193
211.925	0.0089
212.294	0.0219
212.662	0.0148
213.03	0.031
213.398	-0.0004
213.766	0.0206
214.133	0.031
214.501	0.0241
214.869	0.0271
215.236	0.0207
215.604	0.0191
215.971	0.0318
216.338	0.037
216.705	0.0245
217.072	0.0247
217.439	0.0327
217.806	0.0451
218.173	0.0506
218.54	0.0499
218.907	0.0627
219.273	0.0561
219.64	0.0597
220.006	0.0628
220.373	0.0836
220.739	0.097
221.105	0.1429
221.471	0.1179
221.837	0.1492
222.203	0.1532
222.569	0.1726
222.935	0.1838
223.3	0.2204
223.666	0.2389
224.031	0.2625
224.397	0.3033
224.762	0.3082
225.127	0.3371
225.493	0.3556
225.858	0.3976
226.223	0.4095
226.588	0.4131
226.952	0.4194
227.317	0.4632
227.682	0.4626
228.046	0.4727
228.411	0.5087
228.775	0.5133
229.14	0.5264
229.504	0.5395
229.868	0.5385
230.232	0.5455
230.596	0.5659
230.96	0.5843
231.324	0.5642
231.688	0.5825
232.052	0.6
232.415	0.5802
232.779	0.5896
233.142	0.6039
233.505	0.6063
233.869	0.5974
234.232	0.6034
234.595	0.6025
234.958	0.6067
235.321	0.6046
235.684	0.5921
236.047	0.5991
236.409	0.5897
236.772	0.5862
237.134	0.5847
237.497	0.5827
237.859	0.5879
238.222	0.592
238.584	0.5729
238.946	0.5736
239.308	0.5741
239.67	0.5617
240.032	0.567
240.393	0.5595
240.755	0.5535
241.117	0.5632
241.478	0.5507
241.84	0.5446
242.201	0.55
242.562	0.5452
242.924	0.5353
243.285	0.5299
243.646	0.5221
244.007	0.529
244.368	0.5259
244.728	0.5141
245.089	0.5242
245.45	0.5162
245.81	0.5161
246.171	0.51
246.531	0.5061
246.891	0.509
247.252	0.5111
247.612	0.5115
247.972	0.5047
248.332	0.4981
248.692	0.5045
249.051	0.4984
249.411	0.4938
249.771	0.4919
250.13	0.4967
250.49	0.4898
250.849	0.4874
251.208	0.4909
251.568	0.4889
251.927	0.4859
252.286	0.4841
252.645	0.4832
253.004	0.4818
253.363	0.4823
253.721	0.4851
254.08	0.4817
254.439	0.4774
254.797	0.4784
255.155	0.4768
255.514	0.4792
255.872	0.4766
256.23	0.4752
256.588	0.4759
256.946	0.4751
257.304	0.4745
257.662	0.4754
258.02	0.4725
258.377	0.4694
258.735	0.4684
259.093	0.4654
259.45	0.4643
259.807	0.4644
260.165	0.4687
260.522	0.4634
260.879	0.4614
261.236	0.4596
261.593	0.46
261.95	0.4589
262.306	0.4604
262.663	0.4555
263.02	0.4569
263.376	0.4506
263.733	0.4482
264.089	0.449
264.445	0.4454
264.802	0.4448
265.158	0.4427
265.514	0.445
265.87	0.442
266.226	0.4388
266.581	0.4371
266.937	0.4385
267.293	0.4354
267.648	0.4322
268.004	0.4288
268.359	0.4264
268.714	0.4242
269.07	0.4235
269.425	0.4227
269.78	0.4182
270.135	0.4184
270.49	0.4161
270.844	0.4135
271.199	0.4117
271.554	0.4068
271.908	0.4042
272.263	0.4077
272.617	0.4013
272.972	0.3985
273.326	0.3959
273.68	0.3903
274.034	0.3908
274.388	0.3915
274.742	0.3887
275.096	0.3833
275.45	0.3868
275.803	0.3804
276.157	0.3765
276.51	0.3735
276.864	0.3696
277.217	0.3699
277.571	0.3649
277.924	0.3596
278.277	0.3603
278.63	0.3551
278.983	0.3532
279.336	0.3481
279.688	0.3456
280.041	0.3408
280.394	0.3385
280.746	0.3365
281.099	0.3342
281.451	0.3309
281.803	0.3253
282.156	0.3202
282.508	0.3199
282.86	0.3146
283.212	0.3144
283.564	0.307
283.916	0.3042
284.267	0.3027
284.619	0.3018
284.971	0.2969
285.322	0.296
285.673	0.2907
286.025	0.2889
286.376	0.2848
286.727	0.281
287.078	0.2769
287.429	0.2772
287.78	0.2715
288.131	0.2679
288.482	0.2663
288.833	0.2614
289.183	0.2602
289.534	0.254
289.884	0.2541
290.235	0.2492
290.585	0.2455
290.935	0.2427
291.285	0.24
291.635	0.2367
291.985	0.2351
292.335	0.2315
292.685	0.2294
293.035	0.2244
293.384	0.2213
293.734	0.2195
294.083	0.215
294.433	0.2134
294.782	0.2114
295.131	0.206
295.48	0.205
295.829	0.202
296.179	0.1981
296.527	0.1954
296.876	0.1932
297.225	0.1897
297.574	0.1877
297.922	0.1844
298.271	0.1825
298.619	0.1781
298.968	0.1771
299.316	0.1741
299.664	0.1725
300.012	0.1701
300.36	0.1666
300.708	0.164
301.056	0.1619
301.404	0.1599
301.752	0.1588
302.099	0.1555
302.447	0.1527
302.794	0.1509
303.142	0.1495
303.489	0.1474
303.836	0.1453
304.183	0.1437
304.531	0.1416
304.878	0.14
305.224	0.1385
305.571	0.1369
305.918	0.1359
306.265	0.1321
306.611	0.1319
306.958	0.1316
307.304	0.1299
307.651	0.1287
307.997	0.1275
308.343	0.1261
308.689	0.1256
309.035	0.1248
309.381	0.1233
309.727	0.122
310.073	0.1221
310.419	0.1211
310.764	0.1208
311.11	0.1192
311.455	0.1191
311.801	0.1188
312.146	0.117
312.491	0.1173
312.837	0.1172
313.182	0.1165
313.527	0.1156
313.872	0.1156
314.216	0.1158
314.561	0.1156
314.906	0.1153
315.251	0.1155
315.595	0.1153
315.94	0.1152
316.284	0.1151
316.628	0.1153
316.972	0.1156
317.317	0.1159
317.661	0.1165
318.005	0.1162
318.348	0.1161
318.692	0.1161
319.036	0.1168
319.38	0.1178
319.723	0.1169
320.067	0.1182
320.41	0.1186
320.754	0.1192
321.097	0.1179
321.44	0.1197
321.783	0.1208
322.126	0.1217
322.469	0.1217
322.812	0.1229
323.155	0.1232
323.498	0.1245
323.84	0.1247
324.183	0.1252
324.525	0.1264
324.868	0.1281
325.21	0.1277
325.552	0.129
325.894	0.1302
326.236	0.1303
326.578	0.1314
326.92	0.1322
327.262	0.1325
327.604	0.1337
327.946	0.1354
328.287	0.1357
328.629	0.1373
328.97	0.1378
329.312	0.1386
329.653	0.1392
329.994	0.1409
330.335	0.142
330.676	0.1431
331.017	0.1435
331.358	0.145
331.699	0.1463
332.04	0.1467
332.38	0.148
332.721	0.1485
333.061	0.1499
333.402	0.1507
333.742	0.1515
334.083	0.153
334.423	0.1539
334.763	0.1546
335.103	0.1551
335.443	0.1563
335.783	0.1576
336.123	0.1582
336.462	0.1595
336.802	0.1601
337.141	0.1599
337.481	0.1616
337.82	0.1625
338.16	0.163
338.499	0.1645
338.838	0.1648
339.177	0.1661
339.516	0.1661
339.855	0.1678
340.194	0.168
340.533	0.1687
340.872	0.1685
341.21	0.1698
341.549	0.17
341.887	0.1711
342.226	0.1709
342.564	0.1722
342.902	0.1718
343.24	0.1725
343.578	0.1731
343.916	0.1729
344.254	0.1741
344.592	0.1742
344.93	0.1742
345.268	0.1737
345.605	0.1747
345.943	0.1747
346.28	0.1746
346.618	0.1744
346.955	0.1751
347.292	0.1753
347.629	0.1758
347.966	0.1748
348.303	0.1747
348.64	0.1754
348.977	0.1753
349.314	0.1763
349.65	0.1758
349.987	0.176
350.324	0.1743
350.66	0.1759
350.996	0.1748
351.333	0.1744
351.669	0.1743
352.005	0.1734
352.341	0.1729
352.677	0.1729
353.013	0.1719
353.349	0.1711
353.685	0.1706
354.02	0.17
354.356	0.1699
354.691	0.1689
355.027	0.1681
355.362	0.1666
355.697	0.1666
356.033	0.1666
356.368	0.1654
356.703	0.164
357.038	0.1641
357.373	0.1632
357.707	0.1629
358.042	0.1615
358.377	0.1616
358.711	0.1612
359.046	0.1599
359.38	0.1591
359.715	0.1587
360.049	0.1577
360.383	0.1561
360.717	0.1552
361.051	0.1545
361.385	0.154
361.719	0.1526
362.053	0.1524
362.387	0.15
362.72	0.1492
363.054	0.1483
363.387	0.1474
363.721	0.146
364.054	0.1453
364.387	0.1436
364.721	0.1424
365.054	0.1417
365.387	0.1392
365.72	0.1391
366.053	0.1379
366.385	0.1365
366.718	0.1359
367.051	0.1343
367.383	0.1333
367.716	0.1333
368.048	0.1318
368.381	0.1311
368.713	0.1287
369.045	0.1294
369.377	0.1282
369.709	0.1277
370.041	0.126
370.373	0.1254
370.705	0.1238
371.037	0.1224
371.368	0.1212
371.7	0.1206
372.031	0.1195
372.363	0.1177
372.694	0.1172
373.025	0.1158
373.356	0.1141
373.688	0.1132
374.019	0.1125
374.35	0.1097
374.68	0.1086
375.011	0.1073
375.342	0.1063
375.673	0.1045
376.003	0.103
376.334	0.1027
376.664	0.1009
376.995	0.0999
377.325	0.0987
377.655	0.0976
377.985	0.0963
378.315	0.095
378.645	0.0945
378.975	0.0935
379.305	0.0921
379.635	0.0921
379.964	0.0912
380.294	0.0905
380.623	0.0897
380.953	0.0878
381.282	0.0874
381.611	0.0865
381.941	0.0865
382.27	0.0841
382.599	0.0845
382.928	0.0823
383.257	0.0816
383.585	0.081
383.914	0.0789
384.243	0.0784
384.571	0.0769
384.9	0.0761
385.228	0.0751
385.557	0.0737
385.885	0.0726
386.213	0.0723
386.541	0.071
386.869	0.07
387.197	0.068
387.525	0.0673
387.853	0.0665
388.181	0.0651
388.508	0.0643
388.836	0.0632
389.164	0.0621
389.491	0.062
389.818	0.0606
390.146	0.0597
390.473	0.0586
390.8	0.0585
391.127	0.0572
391.454	0.0568
391.781	0.0559
392.108	0.055
392.435	0.0542
392.761	0.054
393.088	0.0533
393.415	0.0531
393.741	0.0524
394.067	0.0526
394.394	0.0517
394.72	0.0503
395.046	0.0493
395.372	0.0492
395.698	0.0484
396.024	0.0474
396.35	0.0479
396.676	0.0466
397.001	0.046
397.327	0.0453
397.653	0.044
397.978	0.0443
398.303	0.0431
398.629	0.0428
398.954	0.0423
399.279	0.0425
399.604	0.0415
399.929	0.0412
400.254	0.0401
400.579	0.0399
400.904	0.0393
401.229	0.0391
401.553	0.0388
401.878	0.0383
402.202	0.038
402.527	0.0377
402.851	0.0377
403.175	0.0358
403.5	0.0368
403.824	0.036
404.148	0.0359
404.472	0.0353
404.796	0.0354
405.119	0.0347
405.443	0.035
405.767	0.0349
406.09	0.0343
406.414	0.0345
406.737	0.0345
407.061	0.0345
407.384	0.0352
407.707	0.0341
408.03	0.0331
408.353	0.0328
408.676	0.0332
408.999	0.0336
409.322	0.033
409.645	0.0328
409.968	0.033
410.29	0.0328
410.613	0.0333
410.935	0.0318
411.258	0.0321
411.58	0.0319
411.902	0.0319
412.224	0.0322
412.546	0.0323
412.868	0.0327
413.19	0.0318
413.512	0.0317
413.834	0.032
414.156	0.0329
414.477	0.0314
414.799	0.0323
415.121	0.0313
415.442	0.032
415.763	0.0315
416.085	0.0319
416.406	0.0308
416.727	0.0317
417.048	0.0316
417.369	0.032
417.69	0.0311
418.011	0.0316
418.331	0.0324
418.652	0.0319
418.973	0.0316
419.293	0.0313
419.614	0.0312
419.934	0.0318
420.254	0.0317
420.574	0.0305
420.895	0.0307
421.215	0.0315
421.535	0.0312
421.855	0.0304
422.174	0.03
422.494	0.0305
422.814	0.0306
423.134	0.0311
423.453	0.0314
423.773	0.0316
424.092	0.0311
424.411	0.0315
424.731	0.0319
425.05	0.0317
425.369	0.031
425.688	0.0312
426.007	0.0317
426.326	0.0315
426.644	0.0309
426.963	0.0307
427.282	0.0315
427.6	0.0309
427.919	0.0312
428.237	0.0316
428.556	0.0321
428.874	0.0312
429.192	0.0308
429.51	0.0312
429.828	0.0313
430.146	0.0313
430.464	0.0311
430.782	0.0311
431.1	0.0307
431.418	0.0305
431.735	0.0308
432.053	0.0311
432.37	0.0309
432.688	0.0301
433.005	0.0305
433.322	0.0322
433.639	0.0313
433.957	0.0314
434.274	0.0316
434.591	0.031
434.907	0.0308
435.224	0.0316
435.541	0.0306
435.858	0.0314
436.174	0.0311
436.491	0.0306
436.807	0.0306
437.124	0.0309
437.44	0.031
437.756	0.031
438.072	0.0298
438.388	0.0313
438.704	0.0312
439.02	0.0302
439.336	0.0303
439.652	0.031
439.968	0.0307
440.283	0.0305
440.599	0.0302
440.914	0.0303
441.23	0.0304
441.545	0.0308
441.86	0.0307
442.175	0.0308
442.491	0.0299
442.806	0.0296
443.121	0.0294
443.435	0.0293
443.75	0.0293
444.065	0.0303
444.38	0.03
444.694	0.0292
445.009	0.0295
445.323	0.0297
445.638	0.0294
445.952	0.0295
446.266	0.0294
446.58	0.0286
446.894	0.029
447.208	0.0282
447.522	0.0286
447.836	0.029
448.15	0.0284
448.464	0.028
448.777	0.0292
449.091	0.0285
449.404	0.0282
449.718	0.0277
450.031	0.0275
450.345	0.0279
450.658	0.0272
450.971	0.028
451.284	0.0277
451.597	0.0281
451.91	0.0279
452.223	0.0276
452.535	0.0276
452.848	0.0274
453.161	0.0277
453.473	0.0274
453.786	0.0272
454.098	0.0271
454.411	0.0271
454.723	0.027
455.035	0.0263
455.347	0.0268
455.659	0.0274
455.971	0.0272
456.283	0.027
456.595	0.0265
456.907	0.0271
457.218	0.027
457.53	0.0259
457.841	0.0263
458.153	0.0256
458.464	0.0252
458.776	0.0254
459.087	0.0256
459.398	0.0258
459.709	0.0244
460.02	0.0259
460.331	0.0254
460.642	0.0252
460.953	0.0248
461.263	0.0253
461.574	0.0238
461.885	0.0252
462.195	0.0242
462.506	0.024
462.816	0.0251
463.126	0.0243
463.437	0.0242
463.747	0.0236
464.057	0.0229
464.367	0.0221
464.677	0.0231
464.987	0.0233
465.296	0.0222
465.606	0.0226
465.916	0.0222
466.225	0.0221
466.535	0.0223
466.844	0.0233
467.154	0.0227
467.463	0.0224
467.772	0.0225
468.081	0.0221
468.39	0.0226
468.699	0.0221
469.008	0.0217
469.317	0.0223
469.626	0.0213
469.935	0.0209
470.243	0.0214
470.552	0.0205
470.86	0.021
471.169	0.0208
471.477	0.021
471.785	0.0194
472.093	0.0193
472.402	0.0195
472.71	0.0198
473.018	0.0191
473.326	0.02
473.633	0.0195
473.941	0.0184
474.249	0.0196
474.556	0.0186
474.864	0.0182
475.171	0.0191
475.479	0.0177
475.786	0.0197
476.094	0.0182
476.401	0.0181
476.708	0.0186
477.015	0.0173
477.322	0.0171
477.629	0.0168
477.936	0.0175
478.242	0.0176
478.549	0.0173
478.856	0.0173
479.162	0.0175
479.469	0.0165
479.775	0.0163
480.081	0.016
480.388	0.0155
480.694	0.0165
481	0.0155
481.306	0.0158
481.612	0.0164
481.918	0.0165
482.224	0.0163
482.53	0.0163
482.835	0.0162
483.141	0.0158
483.446	0.0157
483.752	0.0153
484.057	0.0144
484.363	0.0147
484.668	0.0144
484.973	0.0138
485.278	0.0132
485.583	0.013
485.888	0.0132
486.193	0.0126
486.498	0.0132
486.803	0.013
487.107	0.0129
487.412	0.0119
487.717	0.012
488.021	0.0123
488.325	0.0121
488.63	0.0125
488.934	0.0121
489.238	0.0116
489.542	0.0124
489.846	0.0114
490.15	0.0117
490.454	0.013
490.758	0.0114
491.062	0.0123
491.366	0.0115
491.669	0.0112
491.973	0.0115
492.276	0.0111
492.58	0.0106
492.883	0.0116
493.186	0.0104
493.489	0.0111
493.792	0.0107
494.096	0.0098
494.399	0.01
494.701	0.0099
495.004	0.0087
495.307	0.0105
495.61	0.0099
495.912	0.0105
496.215	0.0108
496.517	0.0104
496.82	0.01
497.122	0.009
497.424	0.009
497.727	0.0092
498.029	0.0093
498.331	0.01
498.633	0.0087
498.935	0.0078
499.237	0.0089
499.538	0.0081
499.84	0.0086
500.142	0.0083
500.443	0.0089
500.745	0.0092
501.046	0.0081
501.348	0.0078
501.649	0.0072
501.95	0.0074
502.251	0.0083
502.552	0.0073
502.853	0.0083
503.154	0.0083
503.455	0.0074
503.756	0.0079
504.057	0.0066
504.357	0.0072
504.658	0.0075
504.958	0.0066
505.259	0.0068
505.559	0.0066
505.859	0.0063
506.16	0.0054
506.46	0.0056
506.76	0.0056
507.06	0.0055
507.36	0.0053
507.66	0.0058
507.96	0.0071
508.259	0.0058
508.559	0.006
508.859	0.0063
509.158	0.0056
509.457	0.0057
509.757	0.0047
510.056	0.0063
510.355	0.0054
510.655	0.0052
510.954	0.0049
511.253	0.0052
511.552	0.0057
511.851	0.0049
512.149	0.0049
512.448	0.005
512.747	0.0048
513.045	0.0048
513.344	0.0045
513.642	0.0044
513.941	0.0054
514.239	0.0051
514.537	0.0041
514.836	0.005
515.134	0.0042
515.432	0.0039
515.73	0.0043
516.028	0.0041
516.326	0.0042
516.623	0.0032
516.921	0.0032
517.219	0.0045
517.516	0.004
517.814	0.0046
518.111	0.0036
518.409	0.005
518.706	0.0042
519.003	0.0036
519.3	0.0032
519.597	0.004
519.894	0.0036
520.191	0.0049
520.488	0.0043
520.785	0.0043
521.082	0.005
521.378	0.0043
521.675	0.004
521.971	0.0041
522.268	0.0044
522.564	0.0033
522.861	0.0044
523.157	0.0037
523.453	0.0041
523.749	0.0044
524.045	0.0043
524.341	0.0034
524.637	0.0033
524.933	0.0041
525.229	0.0035
525.524	0.0026
525.82	0.0026
526.115	0.0037
526.411	0.0031
526.706	0.003
527.002	0.0041
527.297	0.002
527.592	0.0038
527.887	0.0027
528.182	0.0033
528.477	0.0033
528.772	0.0029
529.067	0.0034
529.362	0.003
529.657	0.0027
529.951	0.0034
530.246	0.0029
530.54	0.0034
530.835	0.0034
531.129	0.0045
531.423	0.0024
531.718	0.0031
532.012	0.0033
532.306	0.0035
532.6	0.0029
532.894	0.0032
533.188	0.0024
533.482	0.0033
533.775	0.0022
534.069	0.0029
534.363	0.0022
534.656	0.0034
534.95	0.0033
535.243	0.0026
535.536	0.0011
535.83	0.0023
536.123	0.0021
536.416	0.0025
536.709	0.0027
537.002	0.0031
537.295	0.0027
537.588	0.0032
537.881	0.0025
538.173	0.0035
538.466	0.0029
538.759	0.0033
539.051	0.003
539.344	0.003
539.636	0.0025
539.928	0.004
540.22	0.0024
540.513	0.0035
540.805	0.0044
541.097	0.0033
541.389	0.0026
541.681	0.0039
541.972	0.0022
542.264	0.0024
542.556	0.003
542.847	0.0022
543.139	0.0032
543.431	0.0024
543.722	0.0014
544.013	0.0025
544.305	0.0026
544.596	0.0023
544.887	0.003
545.178	0.0031
545.469	0.0033
545.76	0.0028
546.051	0.0034
546.342	0.0036
546.632	0.0025
546.923	0.003
547.214	0.0026
547.504	0.0031
547.795	0.0025
548.085	0.0029
548.375	0.0037
548.666	0.0043
548.956	0.0032
549.246	0.0036
549.536	0.0049
549.826	0.0041
550.116	0.0046
550.406	0.0036
550.695	0.0041
550.985	0.0035
551.275	0.0047
551.564	0.0049
551.854	0.0052
552.143	0.0041
552.433	0.0051
552.722	0.0043
553.011	0.0043
553.3	0.004
553.589	0.0041
553.879	0.0033
554.167	0.0038
554.456	0.0033
554.745	0.004
555.034	0.0054
555.323	0.0036
555.611	0.0038
555.9	0.0029
556.188	0.0034
556.477	0.0033
556.765	0.0054
557.053	0.004
557.342	0.0031
557.63	0.0031
557.918	0.003
558.206	0.0035
558.494	0.0038
558.782	0.0041
559.069	0.0051
559.357	0.0044
559.645	0.0042
559.932	0.0037
560.22	0.0036
560.507	0.0025
560.795	0.0032
561.082	0.0023
561.37	0.0033
561.657	0.003
561.944	0.0032
562.231	0.0035
562.518	0.0032
562.805	0.004
563.092	0.0033
563.379	0.0038
563.665	0.0037
563.952	0.005
564.239	0.0048
564.525	0.0037
564.811	0.0036
565.098	0.0029
565.384	0.0033
565.67	0.0037
565.957	0.004
566.243	0.0042
566.529	0.0036
566.815	0.0048
567.101	0.0039
567.387	0.0036
567.672	0.0035
567.958	0.0022
568.244	0.0026
568.529	0.0032
568.815	0.0035
569.1	0.0029
569.386	0.0031
569.671	0.0034
569.956	0.0027
570.242	0.0028
570.527	0.002
570.812	0.003
571.097	0.0016
571.382	0.0011
571.666	0.0018
571.951	0.003
572.236	0.0025
572.521	0.0032
572.805	0.0028
573.09	0.0035
573.374	0.002
573.659	0.0027
573.943	0.0025
574.227	0.0022
574.511	0.0031
574.795	0.0033
575.079	0.0028
575.363	0.0026
575.647	0.0024
575.931	0.0036
576.215	0.0038
576.499	0.0018
576.782	0.0019
577.066	0.0021
577.349	0.0033
577.633	0.0032
577.916	0.0026
578.2	0.0025
578.483	0.0033
578.766	0.0033
579.049	0.0025
579.332	0.0028
579.615	0.0031
579.898	0.0025
580.181	0.0031
580.464	0.0028
580.746	0.0026
581.029	0.0031
581.312	0.0021
581.594	0.0015
581.877	0.0023
582.159	0.0034
582.441	0.0017
582.724	0.0025
583.006	0.0031
583.288	0.0029
583.57	0.0034
583.852	0.0033
584.134	0.0038
584.416	0.0026
584.697	0.003
584.979	0.0021
585.261	0.002
585.542	0.0026
585.824	0.0032
586.105	0.0029
586.387	0.0032
586.668	0.0031
586.949	0.0034
587.231	0.0038
587.512	0.0029
587.793	0.0031
588.074	0.0026
588.355	0.0035
588.636	0.0027
588.916	0.0034
589.197	0.003
589.478	0.0033
589.758	0.0026
590.039	0.0026
590.319	0.0013
590.6	0.0025
590.88	0.0018
591.16	0.0028
591.441	0.0033
591.721	0.0024
592.001	0.002
592.281	0.0025
592.561	0.0034
592.841	0.0023
593.12	0.0021
593.4	0.0028
593.68	0.002
593.959	0.0027
594.239	0.0033
594.518	0.0041
594.798	0.0036
595.077	0.003
595.356	0.0036
595.636	0.0028
595.915	0.0029
596.194	0.0036
596.473	0.0038
596.752	0.0027
597.031	0.0031
597.31	0.0027
597.588	0.0025
597.867	0.0021
598.146	0.002
598.424	0.0016
598.703	0.0013
598.981	0.0017
599.259	0.0008
599.538	0.0029
599.816	0.0034
600.094	0.0025
600.372	0.0027
600.65	0.0028
600.928	0.0029
601.206	0.0028
601.484	0.0026
601.762	0.0037
602.04	0.0043
602.317	0.0036
602.595	0.004
602.872	0.0039
603.15	0.0043
603.427	0.0018
603.704	0.0016
603.982	0.0015
604.259	0.0016
604.536	0.0015
604.813	0.0015
605.09	0.0025
605.367	0.0018
605.644	0.0014
605.921	0.0014
606.197	0.0016
606.474	0.0021
606.751	0.0017
607.027	0.0026
607.304	0.0026
607.58	0.0023
607.856	0.0028
608.133	0.0034
608.409	0.0042
608.685	0.0037
608.961	0.0025
609.237	0.0034
609.513	0.0044
609.789	0.0024
610.065	0.0026
610.341	0.0013
610.616	0.0025
610.892	0.0024
611.167	0.0031
611.443	0.0027
611.718	0.0025
611.994	0.0023
612.269	0.0019
612.544	0.0013
612.819	0.002
613.095	0.0014
613.37	0.0014
613.645	0.0007
613.919	0.0024
614.194	0.0022
614.469	0.0017
614.744	0.0018
615.019	0.0016
615.293	0.0015
615.568	0.0017
615.842	0.0016
616.116	0.0017
616.391	0.0015
616.665	0.0006
616.939	0.0005
617.213	0.0012
617.488	0.0014
617.762	0.0023
618.035	0.0028
618.309	0.0025
618.583	0.0031
618.857	0.0034
619.131	0.0035
619.404	0.0024
619.678	0.0033
619.951	0.0021
620.225	0.0012
620.498	0.0016
620.771	0.0016
621.045	0.0023
621.318	0.0029
621.591	0.0025
621.864	0.0015
622.137	0.0011
622.41	0.0015
622.683	0.0015
622.956	0.0011
623.228	0.0023
623.501	0.0028
623.774	0.0042
624.046	0.0024
624.319	0.0026
624.591	0.0015
624.863	0.0016
625.136	0.0033
625.408	0.0031
625.68	0.0023
625.952	0.0024
626.224	0.0046
626.496	0.0027
626.768	0.0034
627.04	0.0029
627.311	0.0033
627.583	0.0041
627.855	0.0038
628.126	0.0026
628.398	0.0032
628.669	0.0036
628.941	0.0008
629.212	0.0011
629.483	0.0017
629.755	0.002
630.026	0.0019
630.297	0.0023
630.568	0.003
630.839	0.0032
631.11	0.0027
631.38	0.004
631.651	0.0029
631.922	0.0032
632.192	0.0032
632.463	0.0042
632.733	0.0027
633.004	0.003
633.274	0.0024
633.545	0.0021
633.815	0.0044
634.085	0.0041
634.355	0.0025
634.625	0.0026
634.895	0.0033
635.165	0.0026
635.435	0.0032
635.705	0.0021
635.974	0.0019
636.244	0.0014
636.514	0.0006
636.783	0.0011
637.053	0.0014
637.322	0.0021
637.591	0.002
637.861	0.001
638.13	0.0013
638.399	0.0029
638.668	0.0033
638.937	0.0035
639.206	0.0036
639.475	0.0036
639.744	0.0032
640.013	0.0022
640.281	0.0031
640.55	0.0026
640.819	0.003
641.087	0.0026
641.356	0.0025
641.624	0.0036
641.892	0.0041
642.161	0.0038
642.429	0.003
642.697	0.0033
642.965	0.0026
643.233	0.0009
643.501	0.0029
643.769	0.0022
644.037	0.0018
644.305	0.0017
644.572	0.0017
644.84	0.0015
645.108	0.0027
645.375	0.0016
645.643	0.0021
645.91	0.0028
646.177	0.0033
646.445	0.0006
646.712	0.0023
646.979	0.0021
647.246	0.0022
647.513	0.0029
647.78	0.0024
648.047	0.0005
648.314	0.0007
648.58	-0.0005
648.847	-0.0017
649.114	-0.0015
649.38	-0.0006
649.647	-0.0005
649.913	0.0003
650.18	0.0015
650.446	0.0018
650.712	0.0031
650.978	0.0035
651.245	0.0033
651.511	0.0039
651.777	0.0031
652.043	0.0017
652.309	0.0031
652.574	0.0017
652.84	0.0037
653.106	0.0038
653.371	0.0038
653.637	0.0033
653.903	0.0043
654.168	0.003
654.433	0.0028
654.699	0.0025
654.964	0.0007
655.229	0.0017
655.494	0.0015
655.759	-0.0005
656.024	-0.0001
656.289	-0
656.554	0.0001
656.819	0.0021
657.084	0.0037
657.349	0.0041
657.613	0.0037
657.878	0.0024
658.142	0.0016
658.407	0.0025
658.671	0.0024
658.936	0.0022
659.2	0.0031
659.464	0.0028
659.728	0.0024
659.992	0.0009
660.256	0.0003
660.52	0.0018
660.784	0.0022
661.048	0.0015
661.312	0.0021
661.575	0.0023
661.839	0.0027
662.103	0.0022
662.366	0.0022
662.63	0.0021
662.893	0.0019
663.156	0.0027
663.42	0.0032
663.683	0.0026
663.946	0.0046
664.209	0.0042
664.472	0.0031
664.735	0.004
664.998	0.0041
665.261	0.0052
665.524	0.0045
665.786	0.0041
666.049	0.0038
666.312	0.0033
666.574	0.0029
666.837	0.0042
667.099	0.0026
667.361	0.0046
667.624	0.0031
667.886	0.0041
668.148	0.0038
668.41	0.0045
668.672	0.0038
668.934	0.0039
669.196	0.0031
669.458	0.0021
669.72	0.0027
669.982	0.0031
670.243	0.0031
670.505	0.0027
670.766	0.0021
671.028	0.0026
671.289	0.0026
671.551	0.0029
671.812	0.0021
672.073	0.0029
672.334	0.0027
672.596	0.0018
672.857	0.0033
673.118	0.0048
673.379	0.0043
673.639	0.0037
673.9	0.0032
674.161	0.0036
674.422	0.0037
674.682	0.0034
674.943	0.0027
675.203	0.0032
675.464	0.0035
675.724	0.0027
675.985	0.0033
676.245	0.002
676.505	0.0013
676.765	0.0013
677.025	0.0025
677.285	0.0013
677.545	0.0013
677.805	0.0018
678.065	0.002
678.325	0.0034
678.585	0.0042
678.844	0.0043
679.104	0.0042
679.363	0.005
679.623	0.0049
679.882	0.0046
680.142	0.0053
680.401	0.0047
680.66	0.0061
680.919	0.0032
681.178	0.0052
681.437	0.0034
681.696	0.0034
681.955	0.0052
682.214	0.0052
682.473	0.005
682.732	0.0026
682.99	0.0062
683.249	0.0047
683.508	0.0052
683.766	0.0046
684.024	0.004
684.283	0.0026
684.541	0.0027
684.799	0.0017
685.058	0.0001
685.316	-0.0004
685.574	-0.0001
685.832	0.0006
686.09	0.0008
686.348	0.0005
686.606	0.0006
686.863	0.0007
687.121	0.0015
687.379	0.0006
687.636	-0.0002
687.894	0.0004
688.151	0.0006
688.409	0.0007
688.666	0.0016
688.923	0.0016
689.181	0.0022
689.438	0.001
689.695	0.001
689.952	0.0009
690.209	0.0005
690.466	0.0002
690.723	0.0015
690.979	0.0013
691.236	0.0003
691.493	-0.0015
691.75	0
692.006	-0.0004
692.263	-0.0011
692.519	-0.0006
692.775	-0.0016
693.032	-0.0015
693.288	-0.0023
693.544	-0.0008
693.8	0.0003
694.056	0.0004
694.313	0
694.568	0.0009
694.824	0.0007
695.08	0.0005
695.336	0.0013
695.592	0.0002
695.847	0.0017
696.103	0.0032
696.359	0.0032
696.614	0.0032
696.869	0.0017
697.125	-0.0003
697.38	-0.0006
697.635	0.001
697.891	0.0022
698.146	0.0022
698.401	0.0028
698.656	0.0024
698.911	0.0027
699.166	0.0027
699.42	0.0039
699.675	0.0035
699.93	0.0042
700.185	0.0039
700.439	0.0026
700.694	0.0029
700.948	0.002
701.203	0.0021
701.457	0.0027
701.711	0.0024
701.965	0.0006
702.22	0.0008
702.474	0.0007
702.728	0.0002
702.982	0.0007
703.236	0.0014
703.49	0.0016
703.743	0.0013
703.997	0.0015
704.251	0.0002
704.504	0.0015
704.758	0.0007
705.012	0.0017
705.265	0.0022
705.518	0.003
705.772	0.0039
706.025	0.0037
706.278	0.0029
706.531	0.0018
706.785	0.0004
707.038	0.0001
707.291	0.0007
707.543	-0.0005
707.796	0.0003
708.049	0
708.302	-0.0004
708.555	-0.0004
708.807	0.001
709.06	0.0014
709.312	0.0023
709.565	0.003
709.817	0.0042
710.069	0.0028
710.322	0.0033
710.574	0.0029
710.826	0.0026
711.078	0.0015
711.33	0.0014
711.582	0.0014
711.834	0.0009
712.086	0.0016
712.338	0.0006
712.59	-0.0007
712.841	-0.0005
713.093	-0.0009
713.344	0.0006
713.596	-0.0002
713.847	-0.0008
714.099	-0.0009
714.35	0
714.601	-0.0005
714.853	-0.0011
715.104	-0.0008
715.355	-0.0007
715.606	0.0011
715.857	0.0007
716.108	0.0017
716.359	0.002
716.609	0.0011
716.86	0.0025
717.111	0.0012
717.361	0.0016
717.612	0.0011
717.863	0.0024
718.113	0.0027
718.363	0.0017
718.614	0.0017
718.864	0.0027
719.114	0.0019
719.364	0.0002
719.614	0.0009
719.865	0.0016
720.114	0.0024
720.364	0.0022
720.614	0.0015
720.864	0.0015
721.114	-0.0003
721.364	0.0004
721.613	0.0005
721.863	0.0004
722.112	0.0004
722.362	0.0009
722.611	0.0015
722.86	0.0018
723.11	0.0032
723.359	0.003
723.608	0.0023
723.857	0.0036
724.106	0.0031
724.355	0.0024
724.604	0.0009
724.853	0.0008
725.102	-0.0003
725.351	-0.002
725.599	-0.0017
725.848	-0.0009
726.097	-0.0003
726.345	-0.0004
726.594	0.0001
726.842	0.0013
727.09	0.0001
727.339	0.0005
727.587	-0.0009
727.835	-0.0011
728.083	-0.0017
728.331	-0.0012
728.579	-0.0001
728.827	-0.0013
729.075	-0.0026
729.323	-0.0027
729.571	-0.0028
729.818	-0.0023
730.066	-0.0021
730.314	-0.0016
730.561	-0.0014
730.809	-0.0025
731.056	-0.0022
731.303	-0.0026
731.551	-0.0015
731.798	-0.0016
732.045	-0.0006
732.292	-0.0003
732.539	-0.0008
732.786	-0.0018
733.033	-0.0017
733.28	-0.001
733.527	-0.0013
733.774	-0.0024
734.021	-0.0025
734.267	-0.0012
734.514	-0.0019
734.76	-0.002
735.007	-0.0015
735.253	0
735.5	0.0015
735.746	0.0024
735.992	0.0017
736.238	0.0024
736.485	0.0018
736.731	0.0025
736.977	0.0023
737.223	0.0008
737.469	0.0012
737.715	0.0019
737.96	0.0024
738.206	0.0018
738.452	0.0022
738.697	0.0014
738.943	0.0011
739.189	0.0014
739.434	-0.0003
739.679	0.0012
739.925	0.0026
740.17	0.0038
740.415	0.003
740.66	0.0032
740.906	0.0023
741.151	0.0017
741.396	0.0009
741.641	0.0002
741.886	0.001
742.13	0.0003
742.375	0.0016
742.62	-0.0002
742.865	-0.0003
743.109	0.0006
743.354	-0.0002
743.598	-0.0003
743.843	-0.001
744.087	-0.0015
744.331	-0.0013
744.576	-0.0005
744.82	0.0007
745.064	0.0012
745.308	0.0017
745.552	0.0012
745.796	0
746.04	0.0004
746.284	-0.0003
746.528	0.0002
746.771	0.0003
747.015	0.001
747.259	-0.0011
747.502	-0.0008
747.746	0.0001
747.989	0.0009
748.233	0.0019
748.476	0.0018
748.719	0.0023
748.963	0.0022
749.206	0.0009
749.449	0.0005
749.692	-0.0004
749.935	0.0006
750.178	0.0009
750.421	0.0007
750.664	0.0009
750.906	0.0011
751.149	0
751.392	0.0001
751.635	0.0007
751.877	0.0007
752.12	0.0009
752.362	0.0023
752.604	0.0022
752.847	0.0014
753.089	0.0008
753.331	0.0004
753.573	0.0008
753.816	0.0014
754.058	0.0014
754.3	0.0019
754.542	0.0034
754.783	0.0027
755.025	0.0035
755.267	0.0031
755.509	0.0015
755.75	0.0008
755.992	0.0009
756.234	0.002
756.475	0.0023
756.716	0.0019
756.958	0.001
757.199	0.0014
757.44	0.0023
757.682	0.0016
757.923	0.0012
758.164	0.002
758.405	0.0025
758.646	0.0028
758.887	0.0021
759.128	0.0018
759.369	0.0014
759.609	0.0006
759.85	0.001
760.091	0.0007
760.331	0.0012
760.572	0.0021
760.812	0.0004
761.053	0.0007
761.293	0.0018
761.533	0.0024
761.774	0.0022
762.014	0.0029
762.254	0.0021
762.494	0.0021
762.734	0.0018
762.974	0.0016
763.214	0.0016
763.454	0.0016
763.694	0.0021
763.933	0.0028
764.173	0.0041
764.413	0.004
764.652	0.0015
764.892	0.0008
765.131	0.0009
765.371	0.0003
765.61	-0.0001
765.849	-0.0017
766.089	-0.0017
766.328	-0.0007
766.567	-0.0014
766.806	-0.001
767.045	-0.002
767.284	-0.0006
767.523	-0.0005
767.762	-0.0006
768.001	-0.0007
768.239	-0.0004
768.478	-0.0014
768.717	-0.0011
768.955	-0.0014
769.194	-0.0001
769.432	0.0005
769.671	0.0008
769.909	0.0008
770.148	-0.0003
770.386	0.0003
770.624	0
770.862	-0.0003
771.1	-0.0015
771.338	-0.001
771.576	-0.0004
771.814	-0.0002
772.052	0.0003
772.29	0.0021
772.528	0.0011
772.765	0.0002
773.003	0.0015
773.24	0.0015
773.478	0.0019
773.716	0.0026
773.953	0.003
774.19	0.0021
774.428	0.0029
774.665	0.0028
774.902	0.0038
775.139	0.0024
775.376	0.0021
775.613	0.0029
775.85	0.0032
776.087	0.004
776.324	0.0033
776.561	0.0026
776.798	0.0027
777.034	0.0021
777.271	0.0019
777.508	0.0016
777.744	0.0034
777.981	0.0028
778.217	0.002
778.454	0.0016
778.69	0.0015
778.926	0.0019
779.162	0.0018
779.399	0.0018
779.635	0.0015
779.871	0.0008
780.107	0.0006
780.343	0.0003
780.579	0.0005
780.814	0.0014
781.05	0.0013
781.286	0.0007
781.522	-0.0005
781.757	-0.001
781.993	0.0003
782.228	-0.0003
782.464	0.0001
782.699	0.0009
782.934	0.0006
783.17	0.0004
783.405	0.0019
783.64	0.0004
783.875	0.0008
784.11	0.0002
784.345	0.0015
784.58	0.0022
784.815	0.0015
785.05	0.0009
785.285	0.0009
785.52	0.0008
785.754	0.0012
785.989	0.0016
786.223	0.0028
786.458	0.0032
786.692	0.0044
786.927	0.0055
787.161	0.0048
787.396	0.0048
787.63	0.0041
787.864	0.0032
788.098	0.0021
788.332	0.0021
788.566	0.0013
788.8	0.0012
789.034	0.0019
789.268	0.0008
789.502	0.0008
789.736	0.0017
789.969	0.0012
790.203	0.0021
790.437	0.003
790.67	0.0034
790.904	0.0044
791.137	0.0052
791.37	0.0052
791.604	0.0046
791.837	0.0058
792.07	0.0055
792.303	0.0065
792.537	0.0066
792.77	0.0058
793.003	0.0058
793.236	0.0042
793.469	0.0041
793.701	0.0025
793.934	0.0019
794.167	0.0013
794.4	0.0006
794.632	-0
794.865	0.0002
795.097	-0.0005
795.33	0
795.562	-0.0004
795.795	-0.0005
796.027	0.0007
796.259	0.0018
796.491	0.0009
796.724	0.0016
796.956	0.0017
797.188	0.0012
797.42	0.0017
797.652	0.0019
797.883	0.0016
798.115	0.0024
798.347	0.0021
798.579	0.0022
798.81	0.0018
799.042	0.0022
799.274	0.0026
799.505	0.0026
799.737	0.002
799.968	0.0021
800.199	0.0013
800.431	0.0023
800.662	0.0016
800.893	0.002
801.124	0.002
801.355	0.0024
801.586	0.0036
801.817	0.005
802.048	0.0054
802.279	0.0054
802.51	0.0064
802.741	0.0068
802.971	0.0052
803.202	0.0051
803.433	0.0043
803.663	0.0039
803.894	0.004
804.124	0.0038
804.354	0.0048
804.585	0.0064
804.815	0.0051
805.045	0.0057
805.275	0.005
805.506	0.0196
805.736	-0.1476
805.966	-0.2166
806.196	-0.0682
