Data from 03 0.4 mM K2Cr2O7 0.25 M BQDS 1 M H2SO4 5 min_Absorbance_0220.txt Node
Date: Wed Dec 15 11:50:13 EST 2021
User: kwabilab-user
Spectrometer: HDX00518
Trigger mode: 0
Integration Time (sec): 5.000000E-2
Scans to average: 50
Nonlinearity correction enabled: false
Boxcar width: 0
Storing dark spectrum: false
XAxis mode: Wavelengths
Number of Pixels in Spectrum: 2068
>>>>>Begin Spectral Data<<<<<
195.27	-0.2885
195.642	-0.074
196.014	-0.0488
196.386	-0.301
196.758	-0.0953
197.129	-0.0177
197.501	-0.0296
197.872	0.0147
198.244	-0.016
198.615	0.0262
198.986	0.0282
199.357	-0.0002
199.728	0.0167
200.099	0.0146
200.47	0.0064
200.841	0.0302
201.212	-0.0022
201.582	0.0172
201.953	0.006
202.323	0.0177
202.694	0.0088
203.064	-0.0053
203.434	0.0071
203.804	0.0041
204.174	0.0076
204.544	0.0209
204.914	-0.0008
205.284	0.0007
205.653	-0.0077
206.023	0.0112
206.393	0.0135
206.762	0.0148
207.131	0.0132
207.501	-0.0009
207.87	0.0075
208.239	0.0079
208.608	0.0144
208.977	-0.002
209.346	-0.0163
209.715	0.0155
210.083	0.0207
210.452	0.0015
210.82	0.0051
211.189	0.0037
211.557	0.018
211.925	0.0031
212.294	0.0039
212.662	0.0073
213.03	0.0057
213.398	0.0142
213.766	-0.0123
214.133	0.0289
214.501	0.0211
214.869	0.026
215.236	0.0263
215.604	0.0268
215.971	0.0278
216.338	0.0401
216.705	0.0385
217.072	0.0317
217.439	0.0255
217.806	0.0299
218.173	0.0443
218.54	0.0344
218.907	0.0542
219.273	0.0418
219.64	0.0704
220.006	0.078
220.373	0.0815
220.739	0.0964
221.105	0.1285
221.471	0.139
221.837	0.1487
222.203	0.1828
222.569	0.1812
222.935	0.2056
223.3	0.2199
223.666	0.2298
224.031	0.2655
224.397	0.2885
224.762	0.3096
225.127	0.3267
225.493	0.332
225.858	0.3849
226.223	0.3877
226.588	0.3983
226.952	0.4218
227.317	0.4582
227.682	0.478
228.046	0.4727
228.411	0.4966
228.775	0.5057
229.14	0.5144
229.504	0.5343
229.868	0.5419
230.232	0.5537
230.596	0.555
230.96	0.5735
231.324	0.5706
231.688	0.5832
232.052	0.6002
232.415	0.602
232.779	0.6023
233.142	0.5884
233.505	0.6039
233.869	0.602
234.232	0.6015
234.595	0.6015
234.958	0.6012
235.321	0.5967
235.684	0.5953
236.047	0.5931
236.409	0.594
236.772	0.588
237.134	0.5922
237.497	0.5802
237.859	0.5937
238.222	0.5806
238.584	0.566
238.946	0.5743
239.308	0.5689
239.67	0.5708
240.032	0.5687
240.393	0.5547
240.755	0.557
241.117	0.5579
241.478	0.5527
241.84	0.5484
242.201	0.5494
242.562	0.5408
242.924	0.5371
243.285	0.5278
243.646	0.5293
244.007	0.5312
244.368	0.5264
244.728	0.524
245.089	0.5217
245.45	0.5042
245.81	0.5096
246.171	0.5085
246.531	0.5099
246.891	0.506
247.252	0.5015
247.612	0.5025
247.972	0.5018
248.332	0.497
248.692	0.4977
249.051	0.4946
249.411	0.4933
249.771	0.4923
250.13	0.4922
250.49	0.4881
250.849	0.4888
251.208	0.4873
251.568	0.4896
251.927	0.4793
252.286	0.4836
252.645	0.4813
253.004	0.4833
253.363	0.4782
253.721	0.4788
254.08	0.4791
254.439	0.4777
254.797	0.4759
255.155	0.4754
255.514	0.4729
255.872	0.4758
256.23	0.4683
256.588	0.4714
256.946	0.4727
257.304	0.4703
257.662	0.473
258.02	0.4743
258.377	0.4639
258.735	0.4683
259.093	0.4629
259.45	0.4633
259.807	0.4613
260.165	0.4631
260.522	0.464
260.879	0.4584
261.236	0.4584
261.593	0.4575
261.95	0.4545
262.306	0.459
262.663	0.4505
263.02	0.4516
263.376	0.4449
263.733	0.4458
264.089	0.4453
264.445	0.4422
264.802	0.4421
265.158	0.4397
265.514	0.4392
265.87	0.4394
266.226	0.4367
266.581	0.4324
266.937	0.438
267.293	0.4302
267.648	0.4312
268.004	0.4293
268.359	0.4275
268.714	0.4233
269.07	0.4228
269.425	0.4128
269.78	0.4127
270.135	0.4148
270.49	0.4134
270.844	0.4112
271.199	0.4106
271.554	0.4046
271.908	0.4026
272.263	0.4021
272.617	0.4014
272.972	0.3948
273.326	0.3961
273.68	0.3901
274.034	0.389
274.388	0.3912
274.742	0.3864
275.096	0.3807
275.45	0.381
275.803	0.3787
276.157	0.3735
276.51	0.3682
276.864	0.3669
277.217	0.3663
277.571	0.3617
277.924	0.3586
278.277	0.3592
278.63	0.3529
278.983	0.3481
279.336	0.3465
279.688	0.3439
280.041	0.3398
280.394	0.3345
280.746	0.333
281.099	0.3325
281.451	0.3274
281.803	0.323
282.156	0.3203
282.508	0.3182
282.86	0.3142
283.212	0.314
283.564	0.3073
283.916	0.3033
284.267	0.3001
284.619	0.2988
284.971	0.2937
285.322	0.294
285.673	0.2891
286.025	0.2855
286.376	0.2836
286.727	0.2786
287.078	0.2747
287.429	0.2751
287.78	0.2689
288.131	0.2683
288.482	0.2622
288.833	0.2615
289.183	0.2564
289.534	0.2541
289.884	0.2519
290.235	0.2479
290.585	0.2459
290.935	0.2418
291.285	0.2394
291.635	0.2362
291.985	0.2335
292.335	0.2306
292.685	0.2268
293.035	0.2231
293.384	0.2209
293.734	0.2176
294.083	0.2142
294.433	0.2129
294.782	0.2101
295.131	0.2062
295.48	0.2036
295.829	0.2009
296.179	0.1987
296.527	0.1943
296.876	0.192
297.225	0.1889
297.574	0.1862
297.922	0.1834
298.271	0.1803
298.619	0.1769
298.968	0.1759
299.316	0.1729
299.664	0.1713
300.012	0.1686
300.36	0.1651
300.708	0.1627
301.056	0.1609
301.404	0.1587
301.752	0.157
302.099	0.1542
302.447	0.1531
302.794	0.1502
303.142	0.1482
303.489	0.1465
303.836	0.1446
304.183	0.1427
304.531	0.1404
304.878	0.1393
305.224	0.1371
305.571	0.1355
305.918	0.1349
306.265	0.1315
306.611	0.13
306.958	0.1308
307.304	0.1292
307.651	0.1284
307.997	0.1267
308.343	0.1258
308.689	0.1244
309.035	0.1226
309.381	0.1217
309.727	0.1213
310.073	0.1208
310.419	0.1201
310.764	0.1197
311.11	0.1178
311.455	0.1179
311.801	0.1176
312.146	0.1164
312.491	0.1169
312.837	0.1157
313.182	0.1147
313.527	0.1147
313.872	0.115
314.216	0.1154
314.561	0.1144
314.906	0.114
315.251	0.1148
315.595	0.1142
315.94	0.1141
316.284	0.1147
316.628	0.1143
316.972	0.1146
317.317	0.1148
317.661	0.1153
318.005	0.1146
318.348	0.1149
318.692	0.1153
319.036	0.1165
319.38	0.117
319.723	0.1159
320.067	0.1176
320.41	0.1179
320.754	0.1181
321.097	0.1179
321.44	0.1186
321.783	0.1204
322.126	0.121
322.469	0.1211
322.812	0.1215
323.155	0.1225
323.498	0.1226
323.84	0.1235
324.183	0.1247
324.525	0.1254
324.868	0.1267
325.21	0.1276
325.552	0.1279
325.894	0.1294
326.236	0.1299
326.578	0.1306
326.92	0.132
327.262	0.1314
327.604	0.1332
327.946	0.1346
328.287	0.1349
328.629	0.1362
328.97	0.1373
329.312	0.138
329.653	0.1391
329.994	0.1394
330.335	0.1405
330.676	0.1419
331.017	0.143
331.358	0.1443
331.699	0.1448
332.04	0.1464
332.38	0.1474
332.721	0.1482
333.061	0.1489
333.402	0.1505
333.742	0.151
334.083	0.1517
334.423	0.1529
334.763	0.154
335.103	0.1548
335.443	0.1557
335.783	0.1567
336.123	0.157
336.462	0.1578
336.802	0.1587
337.141	0.1599
337.481	0.16
337.82	0.1614
338.16	0.1624
338.499	0.1635
338.838	0.1638
339.177	0.1645
339.516	0.1657
339.855	0.1662
340.194	0.1671
340.533	0.1673
340.872	0.1674
341.21	0.169
341.549	0.1692
341.887	0.1707
342.226	0.1693
342.564	0.1712
342.902	0.171
343.24	0.1707
343.578	0.1716
343.916	0.1711
344.254	0.1731
344.592	0.1729
344.93	0.1727
345.268	0.1724
345.605	0.1736
345.943	0.1732
346.28	0.1735
346.618	0.1735
346.955	0.1732
347.292	0.1746
347.629	0.1746
347.966	0.1735
348.303	0.1748
348.64	0.1743
348.977	0.1744
349.314	0.1743
349.65	0.1745
349.987	0.1755
350.324	0.174
350.66	0.1746
350.996	0.1736
351.333	0.1738
351.669	0.1727
352.005	0.173
352.341	0.172
352.677	0.1715
353.013	0.17
353.349	0.1707
353.685	0.1691
354.02	0.1691
354.356	0.1678
354.691	0.167
355.027	0.1669
355.362	0.1659
355.697	0.1646
356.033	0.1655
356.368	0.1641
356.703	0.1635
357.038	0.1635
357.373	0.1623
357.707	0.1622
358.042	0.1606
358.377	0.1603
358.711	0.1604
359.046	0.1588
359.38	0.1589
359.715	0.158
360.049	0.1564
360.383	0.155
360.717	0.1544
361.051	0.1537
361.385	0.1533
361.719	0.1518
362.053	0.1515
362.387	0.1493
362.72	0.149
363.054	0.1471
363.387	0.1461
363.721	0.1453
364.054	0.1447
364.387	0.1424
364.721	0.1412
365.054	0.1398
365.387	0.1385
365.72	0.1386
366.053	0.1369
366.385	0.1354
366.718	0.1352
367.051	0.1331
367.383	0.1328
367.716	0.1321
368.048	0.1315
368.381	0.1304
368.713	0.1286
369.045	0.1284
369.377	0.1271
369.709	0.126
370.041	0.1255
370.373	0.1241
370.705	0.1232
371.037	0.1225
371.368	0.1209
371.7	0.12
372.031	0.119
372.363	0.1171
372.694	0.1158
373.025	0.1152
373.356	0.1137
373.688	0.1127
374.019	0.1111
374.35	0.1091
374.68	0.1086
375.011	0.1063
375.342	0.1056
375.673	0.1044
376.003	0.1027
376.334	0.1023
376.664	0.1
376.995	0.0996
377.325	0.0981
377.655	0.0963
377.985	0.0958
378.315	0.0946
378.645	0.0936
378.975	0.0929
379.305	0.091
379.635	0.0918
379.964	0.0907
380.294	0.09
380.623	0.0885
380.953	0.087
381.282	0.0864
381.611	0.0862
381.941	0.0848
382.27	0.0837
382.599	0.0829
382.928	0.0814
383.257	0.0812
383.585	0.0806
383.914	0.0787
384.243	0.0774
384.571	0.0765
384.9	0.0748
385.228	0.0738
385.557	0.0732
385.885	0.0711
386.213	0.0713
386.541	0.0695
386.869	0.0692
387.197	0.0672
387.525	0.067
387.853	0.065
388.181	0.0644
388.508	0.0633
388.836	0.0623
389.164	0.0617
389.491	0.0609
389.818	0.0593
390.146	0.0598
390.473	0.0588
390.8	0.0579
391.127	0.0561
391.454	0.0558
391.781	0.0558
392.108	0.0551
392.435	0.0537
392.761	0.0537
393.088	0.0526
393.415	0.0524
393.741	0.0519
394.067	0.052
394.394	0.0513
394.72	0.0505
395.046	0.0494
395.372	0.0488
395.698	0.0481
396.024	0.0475
396.35	0.0465
396.676	0.0463
397.001	0.0454
397.327	0.0447
397.653	0.0436
397.978	0.0437
398.303	0.0425
398.629	0.0417
398.954	0.0413
399.279	0.0419
399.604	0.0408
399.929	0.0407
400.254	0.0391
400.579	0.0395
400.904	0.0387
401.229	0.0386
401.553	0.0382
401.878	0.038
402.202	0.0379
402.527	0.0369
402.851	0.0374
403.175	0.036
403.5	0.0364
403.824	0.0358
404.148	0.0357
404.472	0.0351
404.796	0.0349
405.119	0.0344
405.443	0.0347
405.767	0.0337
406.09	0.0344
406.414	0.0341
406.737	0.0348
407.061	0.0342
407.384	0.0339
407.707	0.0332
408.03	0.0327
408.353	0.0329
408.676	0.0328
408.999	0.0329
409.322	0.0323
409.645	0.0326
409.968	0.0329
410.29	0.0328
410.613	0.033
410.935	0.0316
411.258	0.0318
411.58	0.0313
411.902	0.0317
412.224	0.0319
412.546	0.0317
412.868	0.0329
413.19	0.0316
413.512	0.0319
413.834	0.0316
414.156	0.0323
414.477	0.0306
414.799	0.0317
415.121	0.0307
415.442	0.0317
415.763	0.0311
416.085	0.0313
416.406	0.0312
416.727	0.0313
417.048	0.032
417.369	0.0318
417.69	0.0313
418.011	0.0313
418.331	0.0315
418.652	0.0313
418.973	0.0303
419.293	0.0312
419.614	0.0309
419.934	0.0318
420.254	0.0317
420.574	0.0304
420.895	0.0308
421.215	0.0306
421.535	0.0308
421.855	0.0301
422.174	0.0298
422.494	0.0303
422.814	0.0308
423.134	0.0307
423.453	0.0309
423.773	0.031
424.092	0.031
424.411	0.0303
424.731	0.0304
425.05	0.0317
425.369	0.0308
425.688	0.0311
426.007	0.0312
426.326	0.0313
426.644	0.0308
426.963	0.0309
427.282	0.0308
427.6	0.031
427.919	0.0309
428.237	0.0318
428.556	0.0311
428.874	0.031
429.192	0.031
429.51	0.0308
429.828	0.0307
430.146	0.031
430.464	0.0305
430.782	0.0304
431.1	0.0304
431.418	0.0305
431.735	0.0299
432.053	0.0303
432.37	0.0307
432.688	0.0305
433.005	0.03
433.322	0.0319
433.639	0.0309
433.957	0.0305
434.274	0.0313
434.591	0.0311
434.907	0.0305
435.224	0.0308
435.541	0.0306
435.858	0.0321
436.174	0.0314
436.491	0.0303
436.807	0.0299
437.124	0.0307
437.44	0.0301
437.756	0.0305
438.072	0.0302
438.388	0.031
438.704	0.0301
439.02	0.0303
439.336	0.0301
439.652	0.0304
439.968	0.0305
440.283	0.0304
440.599	0.031
440.914	0.0302
441.23	0.0306
441.545	0.0302
441.86	0.0302
442.175	0.0303
442.491	0.0295
442.806	0.0295
443.121	0.0289
443.435	0.0294
443.75	0.0295
444.065	0.03
444.38	0.0297
444.694	0.0293
445.009	0.0294
445.323	0.0291
445.638	0.0292
445.952	0.0285
446.266	0.0285
446.58	0.0277
446.894	0.0294
447.208	0.028
447.522	0.0278
447.836	0.0281
448.15	0.0287
448.464	0.0276
448.777	0.0285
449.091	0.0281
449.404	0.0282
449.718	0.0282
450.031	0.0271
450.345	0.0281
450.658	0.0273
450.971	0.0279
451.284	0.0269
451.597	0.0281
451.91	0.0276
452.223	0.0274
452.535	0.0269
452.848	0.0266
453.161	0.0266
453.473	0.0268
453.786	0.0273
454.098	0.0268
454.411	0.0267
454.723	0.0274
455.035	0.0265
455.347	0.0265
455.659	0.0268
455.971	0.0267
456.283	0.0275
456.595	0.0262
456.907	0.0266
457.218	0.0263
457.53	0.0255
457.841	0.0254
458.153	0.0255
458.464	0.0251
458.776	0.0255
459.087	0.0258
459.398	0.025
459.709	0.0245
460.02	0.025
460.331	0.0248
460.642	0.0248
460.953	0.0248
461.263	0.0246
461.574	0.0244
461.885	0.0249
462.195	0.0241
462.506	0.0249
462.816	0.0244
463.126	0.0238
463.437	0.0233
463.747	0.0229
464.057	0.0228
464.367	0.0225
464.677	0.023
464.987	0.0225
465.296	0.022
465.606	0.0223
465.916	0.0211
466.225	0.0223
466.535	0.0221
466.844	0.0223
467.154	0.0222
467.463	0.0222
467.772	0.0209
468.081	0.0218
468.39	0.0223
468.699	0.0219
469.008	0.0213
469.317	0.0221
469.626	0.0214
469.935	0.0213
470.243	0.0214
470.552	0.0208
470.86	0.0211
471.169	0.0206
471.477	0.0207
471.785	0.0201
472.093	0.0195
472.402	0.0193
472.71	0.0191
473.018	0.0187
473.326	0.0201
473.633	0.0189
473.941	0.0193
474.249	0.0188
474.556	0.0184
474.864	0.019
475.171	0.0188
475.479	0.018
475.786	0.0181
476.094	0.0181
476.401	0.0179
476.708	0.0183
477.015	0.0175
477.322	0.0163
477.629	0.0166
477.936	0.0173
478.242	0.0169
478.549	0.0173
478.856	0.0168
479.162	0.0155
479.469	0.0164
479.775	0.0168
480.081	0.0158
480.388	0.0152
480.694	0.0161
481	0.0158
481.306	0.0154
481.612	0.0161
481.918	0.0164
482.224	0.0155
482.53	0.0156
482.835	0.0154
483.141	0.0155
483.446	0.0156
483.752	0.0144
484.057	0.0148
484.363	0.014
484.668	0.015
484.973	0.0132
485.278	0.0127
485.583	0.0131
485.888	0.0135
486.193	0.0118
486.498	0.0133
486.803	0.0138
487.107	0.0121
487.412	0.0112
487.717	0.0121
488.021	0.0124
488.325	0.0123
488.63	0.0131
488.934	0.0116
489.238	0.0116
489.542	0.0124
489.846	0.0118
490.15	0.0116
490.454	0.0124
490.758	0.0114
491.062	0.0114
491.366	0.0111
491.669	0.0108
491.973	0.0114
492.276	0.011
492.58	0.0104
492.883	0.0103
493.186	0.0094
493.489	0.0111
493.792	0.0099
494.096	0.0089
494.399	0.0096
494.701	0.0099
495.004	0.009
495.307	0.0096
495.61	0.0103
495.912	0.0096
496.215	0.01
496.517	0.0098
496.82	0.0093
497.122	0.0097
497.424	0.0095
497.727	0.0086
498.029	0.0094
498.331	0.0089
498.633	0.0083
498.935	0.009
499.237	0.0093
499.538	0.0076
499.84	0.0086
500.142	0.0077
500.443	0.0079
500.745	0.0078
501.046	0.0078
501.348	0.0075
501.649	0.0076
501.95	0.0078
502.251	0.0082
502.552	0.0069
502.853	0.0086
503.154	0.0077
503.455	0.0066
503.756	0.0075
504.057	0.0062
504.357	0.0078
504.658	0.0061
504.958	0.006
505.259	0.0065
505.559	0.0061
505.859	0.0054
506.16	0.0053
506.46	0.0056
506.76	0.0058
507.06	0.005
507.36	0.005
507.66	0.0064
507.96	0.007
508.259	0.0058
508.559	0.0057
508.859	0.0056
509.158	0.0058
509.457	0.0041
509.757	0.0054
510.056	0.0047
510.355	0.0053
510.655	0.0057
510.954	0.0046
511.253	0.0056
511.552	0.0053
511.851	0.0046
512.149	0.0046
512.448	0.0043
512.747	0.0046
513.045	0.0047
513.344	0.0045
513.642	0.004
513.941	0.005
514.239	0.0044
514.537	0.0041
514.836	0.0042
515.134	0.0046
515.432	0.0036
515.73	0.0045
516.028	0.0038
516.326	0.0026
516.623	0.0033
516.921	0.0039
517.219	0.0043
517.516	0.0039
517.814	0.0044
518.111	0.0035
518.409	0.0047
518.706	0.0048
519.003	0.0034
519.3	0.0029
519.597	0.0039
519.894	0.0028
520.191	0.0047
520.488	0.0041
520.785	0.0039
521.082	0.0045
521.378	0.0045
521.675	0.0032
521.971	0.0027
522.268	0.0041
522.564	0.0039
522.861	0.0037
523.157	0.0033
523.453	0.0042
523.749	0.004
524.045	0.0031
524.341	0.0028
524.637	0.0029
524.933	0.0046
525.229	0.003
525.524	0.003
525.82	0.0045
526.115	0.003
526.411	0.0029
526.706	0.0037
527.002	0.0025
527.297	0.0021
527.592	0.0036
527.887	0.0022
528.182	0.0028
528.477	0.0031
528.772	0.0026
529.067	0.0034
529.362	0.0039
529.657	0.0036
529.951	0.0029
530.246	0.0025
530.54	0.0028
530.835	0.0033
531.129	0.0035
531.423	0.0034
531.718	0.0027
532.012	0.003
532.306	0.004
532.6	0.0032
532.894	0.0027
533.188	0.0023
533.482	0.0035
533.775	0.0023
534.069	0.0031
534.363	0.0027
534.656	0.002
534.95	0.0017
535.243	0.0025
535.536	0.0019
535.83	0.0021
536.123	0.0023
536.416	0.0029
536.709	0.0025
537.002	0.0034
537.295	0.0025
537.588	0.0034
537.881	0.0023
538.173	0.003
538.466	0.0026
538.759	0.0026
539.051	0.0037
539.344	0.0034
539.636	0.0026
539.928	0.0043
540.22	0.0019
540.513	0.0033
540.805	0.0026
541.097	0.0039
541.389	0.0029
541.681	0.0035
541.972	0.0031
542.264	0.0039
542.556	0.0039
542.847	0.0033
543.139	0.0035
543.431	0.0033
543.722	0.0026
544.013	0.003
544.305	0.0025
544.596	0.0037
544.887	0.0033
545.178	0.004
545.469	0.0033
545.76	0.0033
546.051	0.0043
546.342	0.0038
546.632	0.0032
546.923	0.0022
547.214	0.0029
547.504	0.0039
547.795	0.0033
548.085	0.0033
548.375	0.0033
548.666	0.0039
548.956	0.0041
549.246	0.0044
549.536	0.0044
549.826	0.0047
550.116	0.0043
550.406	0.0039
550.695	0.0038
550.985	0.0036
551.275	0.0045
551.564	0.0056
551.854	0.0046
552.143	0.0034
552.433	0.0043
552.722	0.0041
553.011	0.0045
553.3	0.0035
553.589	0.0044
553.879	0.0041
554.167	0.0041
554.456	0.0032
554.745	0.0045
555.034	0.0038
555.323	0.0031
555.611	0.0027
555.9	0.0032
556.188	0.0033
556.477	0.0022
556.765	0.005
557.053	0.0037
557.342	0.0034
557.63	0.0027
557.918	0.0043
558.206	0.0041
558.494	0.0046
558.782	0.0036
559.069	0.0041
559.357	0.0033
559.645	0.004
559.932	0.0039
560.22	0.0038
560.507	0.0016
560.795	0.0023
561.082	0.0019
561.37	0.0038
561.657	0.0015
561.944	0.0028
562.231	0.0032
562.518	0.0029
562.805	0.0037
563.092	0.002
563.379	0.0026
563.665	0.0038
563.952	0.004
564.239	0.0043
564.525	0.0043
564.811	0.0038
565.098	0.0023
565.384	0.0039
565.67	0.0033
565.957	0.0033
566.243	0.0044
566.529	0.0032
566.815	0.0044
567.101	0.0034
567.387	0.0034
567.672	0.0028
567.958	0.0027
568.244	0.0021
568.529	0.0029
568.815	0.0032
569.1	0.0028
569.386	0.0034
569.671	0.0033
569.956	0.0024
570.242	0.0027
570.527	0.0028
570.812	0.0022
571.097	0.0022
571.382	0.0013
571.666	0.0014
571.951	0.0026
572.236	0.0015
572.521	0.0024
572.805	0.003
573.09	0.0028
573.374	0.0007
573.659	0.0022
573.943	0.0021
574.227	0.0023
574.511	0.0016
574.795	0.0028
575.079	0.0029
575.363	0.0026
575.647	0.0028
575.931	0.0031
576.215	0.0025
576.499	0.0023
576.782	0.0017
577.066	0.0028
577.349	0.0027
577.633	0.0027
577.916	0.002
578.2	0.0023
578.483	0.0028
578.766	0.0042
579.049	0.0029
579.332	0.0035
579.615	0.0015
579.898	0.0017
580.181	0.0027
580.464	0.0027
580.746	0.0022
581.029	0.0027
581.312	0.0014
581.594	0.0011
581.877	0.0022
582.159	0.0038
582.441	0.0023
582.724	0.0035
583.006	0.0033
583.288	0.0032
583.57	0.0028
583.852	0.004
584.134	0.0036
584.416	0.0025
584.697	0.0022
584.979	0.0017
585.261	0.0011
585.542	0.0031
585.824	0.0028
586.105	0.0027
586.387	0.0032
586.668	0.0028
586.949	0.004
587.231	0.0032
587.512	0.0027
587.793	0.0023
588.074	0.0037
588.355	0.0036
588.636	0.0027
588.916	0.0032
589.197	0.003
589.478	0.0036
589.758	0.0021
590.039	0.0024
590.319	0.0022
590.6	0.0019
590.88	0.0024
591.16	0.0024
591.441	0.0033
591.721	0.0021
592.001	0.0024
592.281	0.0025
592.561	0.0027
592.841	0.0019
593.12	0.0019
593.4	0.0026
593.68	0.0025
593.959	0.0025
594.239	0.0031
594.518	0.0043
594.798	0.0033
595.077	0.002
595.356	0.0027
595.636	0.0031
595.915	0.0033
596.194	0.0039
596.473	0.0031
596.752	0.0027
597.031	0.0034
597.31	0.0022
597.588	0.0017
597.867	0.0011
598.146	0.0012
598.424	0.0008
598.703	0.0022
598.981	0.0013
599.259	0.0008
599.538	0.0026
599.816	0.0033
600.094	0.002
600.372	0.0023
600.65	0.0035
600.928	0.003
601.206	0.0026
601.484	0.003
601.762	0.004
602.04	0.0038
602.317	0.0033
602.595	0.0042
602.872	0.0032
603.15	0.0034
603.427	0.0015
603.704	0.0017
603.982	0.0015
604.259	0.0014
604.536	0.0019
604.813	0.0025
605.09	0.0015
605.367	0.0013
605.644	0.0013
605.921	0.0015
606.197	0.0007
606.474	0.0024
606.751	0.001
607.027	0.0018
607.304	0.0019
607.58	0.0021
607.856	0.0033
608.133	0.0035
608.409	0.0039
608.685	0.0032
608.961	0.0035
609.237	0.0033
609.513	0.0048
609.789	0.0025
610.065	0.0023
610.341	0.0019
610.616	0.0034
610.892	0.0038
611.167	0.004
611.443	0.004
611.718	0.004
611.994	0.003
612.269	0.0028
612.544	0.0033
612.819	0.0017
613.095	0.0016
613.37	0.0014
613.645	0.0013
613.919	0.0028
614.194	0.0025
614.469	0.0027
614.744	0.0014
615.019	0.0012
615.293	0.0017
615.568	0.0018
615.842	0.002
616.116	0.0025
616.391	0.0012
616.665	0.0002
616.939	0.0009
617.213	0.0021
617.488	0.0017
617.762	0.002
618.035	0.0029
618.309	0.0023
618.583	0.0031
618.857	0.0033
619.131	0.0026
619.404	0.0031
619.678	0.0042
619.951	0.0027
620.225	0.0014
620.498	0.0017
620.771	0.0017
621.045	0.0035
621.318	0.0028
621.591	0.0024
621.864	0.0008
622.137	0.0004
622.41	0.0019
622.683	0.0018
622.956	0.0021
623.228	0.0024
623.501	0.0026
623.774	0.0037
624.046	0.0028
624.319	0.0023
624.591	0.0017
624.863	0.0023
625.136	0.0033
625.408	0.0039
625.68	0.0033
625.952	0.0038
626.224	0.0048
626.496	0.0044
626.768	0.0039
627.04	0.0037
627.311	0.0036
627.583	0.0048
627.855	0.0041
628.126	0.0037
628.398	0.0031
628.669	0.0034
628.941	0.0013
629.212	0.001
629.483	0.0025
629.755	0.0016
630.026	0.0026
630.297	0.0026
630.568	0.0031
630.839	0.0045
631.11	0.0039
631.38	0.0044
631.651	0.0032
631.922	0.0034
632.192	0.0038
632.463	0.0041
632.733	0.0028
633.004	0.0031
633.274	0.0018
633.545	0.0029
633.815	0.0047
634.085	0.0033
634.355	0.003
634.625	0.0031
634.895	0.0033
635.165	0.0036
635.435	0.0038
635.705	0.003
635.974	0.003
636.244	0.0026
636.514	0.0014
636.783	0.0016
637.053	0.0024
637.322	0.0012
637.591	0.0017
637.861	0.0007
638.13	0.0021
638.399	0.0031
638.668	0.0036
638.937	0.0038
639.206	0.0035
639.475	0.0044
639.744	0.0042
640.013	0.0044
640.281	0.0031
640.55	0.0025
640.819	0.0032
641.087	0.0028
641.356	0.0032
641.624	0.0042
641.892	0.0037
642.161	0.0038
642.429	0.0033
642.697	0.0037
642.965	0.0025
643.233	0.0018
643.501	0.0029
643.769	0.003
644.037	0.0022
644.305	0.0022
644.572	0.0024
644.84	0.0011
645.108	0.0026
645.375	0.0026
645.643	0.0023
645.91	0.003
646.177	0.0027
646.445	0.0015
646.712	0.0026
646.979	0.0026
647.246	0.0037
647.513	0.0029
647.78	0.004
648.047	0.0013
648.314	0.0009
648.58	0.0001
648.847	-0.0009
649.114	-0.0008
649.38	-0.001
649.647	0
649.913	0.0006
650.18	0.0018
650.446	0.002
650.712	0.0029
650.978	0.0042
651.245	0.0037
651.511	0.0042
651.777	0.0041
652.043	0.0028
652.309	0.0025
652.574	0.0026
652.84	0.0035
653.106	0.0042
653.371	0.0041
653.637	0.0048
653.903	0.0048
654.168	0.0044
654.433	0.0032
654.699	0.0032
654.964	0.0022
655.229	0.0022
655.494	0.001
655.759	-0.0023
656.024	-0.0001
656.289	-0
656.554	0.002
656.819	0.004
657.084	0.0048
657.349	0.0043
657.613	0.0034
657.878	0.0034
658.142	0.0023
658.407	0.0021
658.671	0.0025
658.936	0.002
659.2	0.0041
659.464	0.0027
659.728	0.0023
659.992	0.0018
660.256	0.0006
660.52	0.0013
660.784	0.0021
661.048	0.0022
661.312	0.003
661.575	0.0028
661.839	0.004
662.103	0.0038
662.366	0.0033
662.63	0.0028
662.893	0.002
663.156	0.0034
663.42	0.004
663.683	0.0033
663.946	0.0042
664.209	0.0043
664.472	0.004
664.735	0.0036
664.998	0.0053
665.261	0.0048
665.524	0.0047
665.786	0.0048
666.049	0.0042
666.312	0.0037
666.574	0.0036
666.837	0.0048
667.099	0.0038
667.361	0.005
667.624	0.0044
667.886	0.0038
668.148	0.0049
668.41	0.0043
668.672	0.0041
668.934	0.0039
669.196	0.0035
669.458	0.0023
669.72	0.003
669.982	0.0029
670.243	0.0026
670.505	0.003
670.766	0.0023
671.028	0.0031
671.289	0.0035
671.551	0.0032
671.812	0.0015
672.073	0.0035
672.334	0.0028
672.596	0.0022
672.857	0.0031
673.118	0.004
673.379	0.0043
673.639	0.0042
673.9	0.0035
674.161	0.0037
674.422	0.0044
674.682	0.0035
674.943	0.0033
675.203	0.0045
675.464	0.0033
675.724	0.0028
675.985	0.0024
676.245	0.003
676.505	0.0015
676.765	0.0022
677.025	0.0032
677.285	0.0019
677.545	0.0018
677.805	0.0019
678.065	0.0028
678.325	0.0033
678.585	0.0041
678.844	0.004
679.104	0.0057
679.363	0.0056
679.623	0.0051
679.882	0.005
680.142	0.0054
680.401	0.005
680.66	0.0063
680.919	0.0051
681.178	0.0052
681.437	0.004
681.696	0.003
681.955	0.005
682.214	0.0052
682.473	0.0056
682.732	0.0026
682.99	0.0055
683.249	0.0053
683.508	0.0055
683.766	0.0044
684.024	0.0049
684.283	0.0032
684.541	0.0027
684.799	0.0018
685.058	0.0004
685.316	0.0001
685.574	-0.001
685.832	0.0006
686.09	0.0015
686.348	0.0003
686.606	0.001
686.863	0.0005
687.121	0.0023
687.379	0.0005
687.636	0.0001
687.894	0.0015
688.151	0.0006
688.409	0.002
688.666	0.0019
688.923	0.0019
689.181	0.0028
689.438	0.0018
689.695	0.0011
689.952	0.0015
690.209	0.001
690.466	0.001
690.723	0.0014
690.979	0.0009
691.236	-0.0001
691.493	-0.0011
691.75	0.001
692.006	-0.001
692.263	-0.0001
692.519	0.0001
692.775	-0.0009
693.032	-0.0013
693.288	-0.0022
693.544	-0.0014
693.8	0.0007
694.056	0.0009
694.313	0.0009
694.568	0.0017
694.824	0.0008
695.08	0.0011
695.336	0.0009
695.592	-0.0006
695.847	0.0018
696.103	0.003
696.359	0.0043
696.614	0.0036
696.869	0.0023
697.125	-0.0006
697.38	-0.0003
697.635	0.0012
697.891	0.0027
698.146	0.0022
698.401	0.0024
698.656	0.0014
698.911	0.0028
699.166	0.0024
699.42	0.0037
699.675	0.0042
699.93	0.0041
700.185	0.0037
700.439	0.003
700.694	0.0027
700.948	0.0022
701.203	0.0023
701.457	0.0027
701.711	0.0019
701.965	0.0004
702.22	0.0006
702.474	0.0013
702.728	0.001
702.982	0.0016
703.236	0.0012
703.49	0.0024
703.743	0.0008
703.997	0.0016
704.251	0.0007
704.504	0.0014
704.758	0.0012
705.012	0.0018
705.265	0.0024
705.518	0.0027
705.772	0.0035
706.025	0.0041
706.278	0.0021
706.531	0.0025
706.785	0.0009
707.038	-0.0001
707.291	0.0008
707.543	-0
707.796	0.0005
708.049	0.0002
708.302	0.0006
708.555	0.0007
708.807	0.0017
709.06	0.0013
709.312	0.0029
709.565	0.0031
709.817	0.0051
710.069	0.0035
710.322	0.0034
710.574	0.0026
710.826	0.0017
711.078	0.0018
711.33	0.0019
711.582	0.0019
711.834	0.0006
712.086	0.0014
712.338	0.0009
712.59	0.0009
712.841	-0.0015
713.093	-0.0008
713.344	-0.0004
713.596	-0.0002
713.847	-0.0005
714.099	-0.0005
714.35	0.0015
714.601	-0.0003
714.853	-0.0005
715.104	-0.0001
715.355	-0.0012
715.606	0.001
715.857	0.0015
716.108	0.002
716.359	0.0027
716.609	0.0017
716.86	0.0027
717.111	0.0019
717.361	0.0022
717.612	0.0021
717.863	0.0025
718.113	0.0028
718.363	0.0021
718.614	0.0021
718.864	0.0023
719.114	0.0027
719.364	0.0012
719.614	0.0008
719.865	0.0013
720.114	0.0022
720.364	0.0021
720.614	0.001
720.864	0.001
721.114	0.0008
721.364	0.0007
721.613	0.0009
721.863	-0.0003
722.112	0.0008
722.362	0.0005
722.611	0.0018
722.86	0.002
723.11	0.0034
723.359	0.0026
723.608	0.0031
723.857	0.0037
724.106	0.0028
724.355	0.0031
724.604	0.0023
724.853	0.0009
725.102	-0
725.351	-0.0016
725.599	-0.0026
725.848	-0.0008
726.097	0.0002
726.345	-0.0001
726.594	0.0003
726.842	0.001
727.09	-0
727.339	-0.0005
727.587	-0.0005
727.835	-0.0011
728.083	-0.0011
728.331	-0.0007
728.579	0.0003
728.827	-0.0011
729.075	-0.0014
729.323	-0.002
729.571	-0.0027
729.818	-0.0029
730.066	-0.0014
730.314	-0.0013
730.561	-0.0011
730.809	-0.0028
731.056	-0.0021
731.303	-0.0022
731.551	-0.0016
731.798	-0.0013
732.045	0.0001
732.292	0.0001
732.539	0.0001
732.786	-0.0015
733.033	-0.0014
733.28	-0.001
733.527	-0.0009
733.774	-0.0019
734.021	-0.0019
734.267	-0.0016
734.514	-0.002
734.76	-0.0017
735.007	-0.001
735.253	-0.0004
735.5	0.0014
735.746	0.0025
735.992	0.0019
736.238	0.0026
736.485	0.0016
736.731	0.0031
736.977	0.0015
737.223	0.0005
737.469	0.0008
737.715	0.0019
737.96	0.0032
738.206	0.0021
738.452	0.0029
738.697	0.0017
738.943	0.0012
739.189	0.0017
739.434	0.0002
739.679	0.0016
739.925	0.0032
740.17	0.0037
740.415	0.0027
740.66	0.0035
740.906	0.0017
741.151	0.0023
741.396	0.0013
741.641	0.0013
741.886	0.0017
742.13	-0.0001
742.375	0.0013
742.62	-0.0001
742.865	-0.0001
743.109	0.0007
743.354	-0.0004
743.598	-0.0004
743.843	-0.001
744.087	-0.0016
744.331	-0.0012
744.576	-0.001
744.82	0.0002
745.064	0.0011
745.308	0.0021
745.552	0.0017
745.796	0.0003
746.04	0.0007
746.284	-0.0011
746.528	0.0007
746.771	0.0011
747.015	0.0008
747.259	-0.0002
747.502	-0.0002
747.746	0.0009
747.989	0.0006
748.233	0.0026
748.476	0.0028
748.719	0.0025
748.963	0.002
749.206	0.0014
749.449	0.0005
749.692	0.0009
749.935	0.0004
750.178	0.0013
750.421	0.0001
750.664	0.0012
750.906	0.0012
751.149	0.0009
751.392	0.0013
751.635	0.0014
751.877	0.0014
752.12	0.0011
752.362	0.0024
752.604	0.0029
752.847	0.0017
753.089	0.0011
753.331	0.0014
753.573	0.0015
753.816	0.0021
754.058	0.0019
754.3	0.0025
754.542	0.0041
754.783	0.003
755.025	0.0037
755.267	0.0031
755.509	0.0019
755.75	0.0009
755.992	0.0015
756.234	0.002
756.475	0.0025
756.716	0.001
756.958	0.0015
757.199	0.0017
757.44	0.0023
757.682	0.0012
757.923	0.0022
758.164	0.0035
758.405	0.0029
758.646	0.004
758.887	0.0031
759.128	0.0031
759.369	0.0013
759.609	0.0016
759.85	0.0015
760.091	0.0017
760.331	0.0017
760.572	0.0021
760.812	0.0008
761.053	0.0019
761.293	0.0026
761.533	0.003
761.774	0.0034
762.014	0.0042
762.254	0.0026
762.494	0.0027
762.734	0.0017
762.974	0.0017
763.214	0.0018
763.454	0.0022
763.694	0.0025
763.933	0.0032
764.173	0.0047
764.413	0.0041
764.652	0.0016
764.892	0.002
765.131	0.0012
765.371	0.0006
765.61	0.0012
765.849	-0.0012
766.089	-0.001
766.328	0.0001
766.567	-0.0005
766.806	-0.0004
767.045	-0.0015
767.284	-0.0002
767.523	-0.0004
767.762	-0.0002
768.001	-0.0007
768.239	-0.0006
768.478	-0.0007
768.717	-0.0008
768.955	-0.0006
769.194	0.0004
769.432	0.0013
769.671	0.0005
769.909	0.0011
770.148	0.0008
770.386	-0
770.624	0.0001
770.862	-0.0005
771.1	-0.0002
771.338	-0.0018
771.576	-0.0002
771.814	0.0008
772.052	-0.0004
772.29	0.0017
772.528	0.001
772.765	0
773.003	0.0017
773.24	0.0019
773.478	0.0015
773.716	0.003
773.953	0.0025
774.19	0.0022
774.428	0.0034
774.665	0.0031
774.902	0.0038
775.139	0.0032
775.376	0.0024
775.613	0.0034
775.85	0.0041
776.087	0.0042
776.324	0.004
776.561	0.0033
776.798	0.0025
777.034	0.0029
777.271	0.0022
777.508	0.002
777.744	0.0031
777.981	0.0031
778.217	0.0033
778.454	0.0027
778.69	0.0016
778.926	0.002
779.162	0.0021
779.399	0.0024
779.635	0.0021
779.871	0.0023
780.107	0.0019
780.343	0.0006
780.579	0.0015
780.814	0.0019
781.05	0.0023
781.286	0.0012
781.522	0.0007
781.757	-0.0001
781.993	0.0014
782.228	-0.0003
782.464	0.0012
782.699	0.0008
782.934	0.0006
783.17	0.0009
783.405	0.002
783.64	0.0009
783.875	0.0009
784.11	0.0011
784.345	0.0014
784.58	0.0026
784.815	0.0016
785.05	0.001
785.285	0.0008
785.52	0.0016
785.754	0.0007
785.989	0.0017
786.223	0.0031
786.458	0.0032
786.692	0.0045
786.927	0.0061
787.161	0.005
787.396	0.0052
787.63	0.0046
787.864	0.0042
788.098	0.002
788.332	0.0021
788.566	0.0014
788.8	0.0013
789.034	0.002
789.268	0.0014
789.502	0.002
789.736	0.0025
789.969	0.0022
790.203	0.0023
790.437	0.0033
790.67	0.0033
790.904	0.005
791.137	0.0062
791.37	0.0062
791.604	0.006
791.837	0.0061
792.07	0.0064
792.303	0.0072
792.537	0.0075
792.77	0.0063
793.003	0.0053
793.236	0.0038
793.469	0.0042
793.701	0.0035
793.934	0.0018
794.167	0.0013
794.4	0.0005
794.632	0.0002
794.865	0.0001
795.097	-0.0002
795.33	-0.0002
795.562	-0.0001
795.795	-0.0001
796.027	0.0009
796.259	0.0017
796.491	0.0017
796.724	0.0022
796.956	0.0014
797.188	0.0015
797.42	0.0014
797.652	0.0019
797.883	0.0024
798.115	0.0033
798.347	0.0018
798.579	0.0021
798.81	0.0018
799.042	0.0014
799.274	0.0032
799.505	0.0029
799.737	0.0018
799.968	0.0018
800.199	0.0012
800.431	0.002
800.662	0.0013
800.893	0.002
801.124	0.0017
801.355	0.0024
801.586	0.0036
801.817	0.0056
802.048	0.0056
802.279	0.0054
802.51	0.0059
802.741	0.0067
802.971	0.0072
803.202	0.0051
803.433	0.0045
803.663	0.0038
803.894	0.0038
804.124	0.0037
804.354	0.0045
804.585	0.0062
804.815	0.0048
805.045	0.0062
805.275	0.0055
805.506	0.0392
805.736	-0.0984
805.966	-0.3717
806.196	-0.1761
