Data from 03 0.4 mM K2Cr2O7 0.25 M BQDS 1 M H2SO4 5 min_Absorbance_0200.txt Node
Date: Wed Dec 15 10:10:12 EST 2021
User: kwabilab-user
Spectrometer: HDX00518
Trigger mode: 0
Integration Time (sec): 5.000000E-2
Scans to average: 50
Nonlinearity correction enabled: false
Boxcar width: 0
Storing dark spectrum: false
XAxis mode: Wavelengths
Number of Pixels in Spectrum: 2068
>>>>>Begin Spectral Data<<<<<
195.27	-0.2019
195.642	0.2019
196.014	-0.3261
196.386	0.0447
196.758	-0.0974
197.129	-0.0011
197.501	-0.0298
197.872	0.0041
198.244	0.0053
198.615	0.0174
198.986	0.0192
199.357	0.014
199.728	0.0393
200.099	0.0112
200.47	0.0203
200.841	0.0181
201.212	0.0148
201.582	0.0212
201.953	0.0344
202.323	0.0241
202.694	0.0268
203.064	0.013
203.434	0.0123
203.804	0.0165
204.174	0.0229
204.544	0.0321
204.914	0.0248
205.284	0.0175
205.653	0.0051
206.023	0.0172
206.393	0.027
206.762	0.0169
207.131	0.0298
207.501	0.0359
207.87	0.0156
208.239	0.0099
208.608	0.0262
208.977	0.0199
209.346	0.0155
209.715	0.0259
210.083	0.0177
210.452	0.0152
210.82	0.0349
211.189	0.0235
211.557	0.0249
211.925	-0.0036
212.294	0.0223
212.662	0.0314
213.03	0.0195
213.398	0.0125
213.766	0.0151
214.133	0.0317
214.501	0.009
214.869	0.0251
215.236	0.0295
215.604	0.044
215.971	0.0573
216.338	0.039
216.705	0.0423
217.072	0.0312
217.439	0.0415
217.806	0.0535
218.173	0.0711
218.54	0.0374
218.907	0.0705
219.273	0.0777
219.64	0.0872
220.006	0.075
220.373	0.0937
220.739	0.106
221.105	0.1403
221.471	0.1336
221.837	0.1599
222.203	0.1776
222.569	0.1737
222.935	0.1907
223.3	0.2196
223.666	0.2267
224.031	0.2795
224.397	0.2851
224.762	0.3124
225.127	0.3325
225.493	0.3498
225.858	0.3953
226.223	0.4118
226.588	0.4109
226.952	0.4301
227.317	0.4707
227.682	0.4626
228.046	0.4767
228.411	0.5017
228.775	0.5153
229.14	0.5185
229.504	0.5369
229.868	0.5483
230.232	0.5596
230.596	0.566
230.96	0.5808
231.324	0.581
231.688	0.5844
232.052	0.6052
232.415	0.5952
232.779	0.602
233.142	0.6096
233.505	0.6039
233.869	0.6124
234.232	0.6079
234.595	0.6039
234.958	0.6159
235.321	0.6055
235.684	0.6033
236.047	0.6048
236.409	0.5865
236.772	0.601
237.134	0.5914
237.497	0.5917
237.859	0.6041
238.222	0.5854
238.584	0.5797
238.946	0.5769
239.308	0.574
239.67	0.5766
240.032	0.5731
240.393	0.5583
240.755	0.5613
241.117	0.559
241.478	0.5551
241.84	0.5536
242.201	0.5437
242.562	0.5482
242.924	0.5416
243.285	0.5369
243.646	0.5332
244.007	0.5258
244.368	0.5321
244.728	0.532
245.089	0.5259
245.45	0.5248
245.81	0.5181
246.171	0.5138
246.531	0.512
246.891	0.513
247.252	0.5093
247.612	0.5146
247.972	0.5086
248.332	0.5039
248.692	0.5032
249.051	0.5047
249.411	0.4967
249.771	0.504
250.13	0.5045
250.49	0.4981
250.849	0.5012
251.208	0.4943
251.568	0.4969
251.927	0.4868
252.286	0.4953
252.645	0.4972
253.004	0.4923
253.363	0.4924
253.721	0.4895
254.08	0.4921
254.439	0.4867
254.797	0.4843
255.155	0.4852
255.514	0.4825
255.872	0.4806
256.23	0.4783
256.588	0.4772
256.946	0.4832
257.304	0.4768
257.662	0.4764
258.02	0.4812
258.377	0.4696
258.735	0.4718
259.093	0.4719
259.45	0.4744
259.807	0.4729
260.165	0.4727
260.522	0.4701
260.879	0.4698
261.236	0.4658
261.593	0.4628
261.95	0.4599
262.306	0.4662
262.663	0.4629
263.02	0.4574
263.376	0.4632
263.733	0.4566
264.089	0.4544
264.445	0.4555
264.802	0.4483
265.158	0.4524
265.514	0.4509
265.87	0.451
266.226	0.4458
266.581	0.4465
266.937	0.4432
267.293	0.4422
267.648	0.4359
268.004	0.436
268.359	0.4346
268.714	0.432
269.07	0.4296
269.425	0.4242
269.78	0.4248
270.135	0.4221
270.49	0.4214
270.844	0.4197
271.199	0.4163
271.554	0.413
271.908	0.4092
272.263	0.4098
272.617	0.408
272.972	0.4051
273.326	0.4055
273.68	0.399
274.034	0.3969
274.388	0.3943
274.742	0.3916
275.096	0.3929
275.45	0.3874
275.803	0.3824
276.157	0.3792
276.51	0.3764
276.864	0.3751
277.217	0.3758
277.571	0.3742
277.924	0.3673
278.277	0.3641
278.63	0.3605
278.983	0.3565
279.336	0.3548
279.688	0.3518
280.041	0.3453
280.394	0.344
280.746	0.3399
281.099	0.3351
281.451	0.3346
281.803	0.3322
282.156	0.3271
282.508	0.3225
282.86	0.321
283.212	0.3172
283.564	0.3132
283.916	0.3107
284.267	0.3078
284.619	0.3038
284.971	0.3002
285.322	0.2979
285.673	0.295
286.025	0.2905
286.376	0.2896
286.727	0.2836
287.078	0.2806
287.429	0.2786
287.78	0.2748
288.131	0.272
288.482	0.2682
288.833	0.2653
289.183	0.2619
289.534	0.2588
289.884	0.2576
290.235	0.2522
290.585	0.2495
290.935	0.2458
291.285	0.2421
291.635	0.2402
291.985	0.2372
292.335	0.2342
292.685	0.231
293.035	0.2262
293.384	0.2248
293.734	0.2215
294.083	0.2174
294.433	0.2154
294.782	0.2132
295.131	0.2082
295.48	0.2069
295.829	0.2039
296.179	0.2024
296.527	0.1974
296.876	0.1948
297.225	0.1919
297.574	0.1896
297.922	0.1865
298.271	0.1833
298.619	0.1804
298.968	0.1787
299.316	0.1766
299.664	0.1736
300.012	0.1715
300.36	0.1677
300.708	0.1663
301.056	0.1647
301.404	0.1618
301.752	0.1598
302.099	0.1565
302.447	0.155
302.794	0.1528
303.142	0.1509
303.489	0.1493
303.836	0.1476
304.183	0.1456
304.531	0.1442
304.878	0.1423
305.224	0.1405
305.571	0.1389
305.918	0.1371
306.265	0.135
306.611	0.1338
306.958	0.1326
307.304	0.1317
307.651	0.1313
307.997	0.1291
308.343	0.1275
308.689	0.1274
309.035	0.1262
309.381	0.1248
309.727	0.1239
310.073	0.1231
310.419	0.1224
310.764	0.1223
311.11	0.1211
311.455	0.1213
311.801	0.1202
312.146	0.1189
312.491	0.1192
312.837	0.1188
313.182	0.1179
313.527	0.1175
313.872	0.1174
314.216	0.1176
314.561	0.1172
314.906	0.1169
315.251	0.1172
315.595	0.1167
315.94	0.1167
316.284	0.1166
316.628	0.1172
316.972	0.1172
317.317	0.1165
317.661	0.118
318.005	0.1176
318.348	0.118
318.692	0.118
319.036	0.1182
319.38	0.1193
319.723	0.1189
320.067	0.1202
320.41	0.1207
320.754	0.1204
321.097	0.1206
321.44	0.1222
321.783	0.1225
322.126	0.1236
322.469	0.1239
322.812	0.1245
323.155	0.1253
323.498	0.1261
323.84	0.1263
324.183	0.1274
324.525	0.1283
324.868	0.1298
325.21	0.1305
325.552	0.1306
325.894	0.1317
326.236	0.1321
326.578	0.1333
326.92	0.1343
327.262	0.1345
327.604	0.1361
327.946	0.1366
328.287	0.1381
328.629	0.1387
328.97	0.139
329.312	0.1408
329.653	0.142
329.994	0.1429
330.335	0.1431
330.676	0.1456
331.017	0.1459
331.358	0.1477
331.699	0.1486
332.04	0.1491
332.38	0.1496
332.721	0.1505
333.061	0.1523
333.402	0.1527
333.742	0.1546
334.083	0.1553
334.423	0.1556
334.763	0.1572
335.103	0.1579
335.443	0.1585
335.783	0.1599
336.123	0.1602
336.462	0.1614
336.802	0.1621
337.141	0.1625
337.481	0.1637
337.82	0.1652
338.16	0.1659
338.499	0.1668
338.838	0.168
339.177	0.1684
339.516	0.1688
339.855	0.1695
340.194	0.1703
340.533	0.1706
340.872	0.1711
341.21	0.1722
341.549	0.1729
341.887	0.1731
342.226	0.1732
342.564	0.1747
342.902	0.1749
343.24	0.1746
343.578	0.1754
343.916	0.1759
344.254	0.1755
344.592	0.1765
344.93	0.1768
345.268	0.1755
345.605	0.1775
345.943	0.1764
346.28	0.1773
346.618	0.1763
346.955	0.1774
347.292	0.1782
347.629	0.1777
347.966	0.178
348.303	0.1776
348.64	0.178
348.977	0.1773
349.314	0.1778
349.65	0.1775
349.987	0.1783
350.324	0.1775
350.66	0.1779
350.996	0.1774
351.333	0.1776
351.669	0.177
352.005	0.1762
352.341	0.1754
352.677	0.175
353.013	0.1745
353.349	0.1737
353.685	0.1729
354.02	0.1729
354.356	0.1719
354.691	0.1711
355.027	0.1708
355.362	0.1691
355.697	0.1689
356.033	0.1683
356.368	0.1679
356.703	0.167
357.038	0.1677
357.373	0.1651
357.707	0.1654
358.042	0.1639
358.377	0.1635
358.711	0.1632
359.046	0.1625
359.38	0.1613
359.715	0.1609
360.049	0.1597
360.383	0.1589
360.717	0.1582
361.051	0.1572
361.385	0.1563
361.719	0.1553
362.053	0.155
362.387	0.1522
362.72	0.1521
363.054	0.1501
363.387	0.1499
363.721	0.1482
364.054	0.1469
364.387	0.1455
364.721	0.1441
365.054	0.1436
365.387	0.1422
365.72	0.1405
366.053	0.1393
366.385	0.1387
366.718	0.1369
367.051	0.1356
367.383	0.1346
367.716	0.135
368.048	0.1339
368.381	0.1331
368.713	0.1313
369.045	0.1312
369.377	0.1299
369.709	0.1287
370.041	0.1283
370.373	0.1269
370.705	0.1253
371.037	0.1241
371.368	0.1239
371.7	0.1221
372.031	0.121
372.363	0.1197
372.694	0.1186
373.025	0.1166
373.356	0.1164
373.688	0.1143
374.019	0.1138
374.35	0.1118
374.68	0.1104
375.011	0.1087
375.342	0.1079
375.673	0.1067
376.003	0.1044
376.334	0.1039
376.664	0.1028
376.995	0.1023
377.325	0.0998
377.655	0.0991
377.985	0.0971
378.315	0.0972
378.645	0.0956
378.975	0.0953
379.305	0.0931
379.635	0.093
379.964	0.0918
380.294	0.0915
380.623	0.0903
380.953	0.0891
381.282	0.0886
381.611	0.088
381.941	0.0874
382.27	0.0855
382.599	0.0856
382.928	0.0841
383.257	0.0827
383.585	0.082
383.914	0.0801
384.243	0.079
384.571	0.0781
384.9	0.0772
385.228	0.0755
385.557	0.0754
385.885	0.0732
386.213	0.0731
386.541	0.0716
386.869	0.0703
387.197	0.0686
387.525	0.0682
387.853	0.0673
388.181	0.066
388.508	0.0647
388.836	0.0635
389.164	0.0631
389.491	0.0622
389.818	0.061
390.146	0.0606
390.473	0.0595
390.8	0.0593
391.127	0.0574
391.454	0.0573
391.781	0.0567
392.108	0.0562
392.435	0.055
392.761	0.0547
393.088	0.0538
393.415	0.0538
393.741	0.0536
394.067	0.0528
394.394	0.0519
394.72	0.0516
395.046	0.0499
395.372	0.0496
395.698	0.049
396.024	0.0485
396.35	0.0479
396.676	0.0467
397.001	0.0462
397.327	0.0455
397.653	0.045
397.978	0.0446
398.303	0.0435
398.629	0.043
398.954	0.0426
399.279	0.0425
399.604	0.0419
399.929	0.0414
400.254	0.0407
400.579	0.0397
400.904	0.0398
401.229	0.0392
401.553	0.0393
401.878	0.0387
402.202	0.0387
402.527	0.0379
402.851	0.0374
403.175	0.0369
403.5	0.0376
403.824	0.0356
404.148	0.0362
404.472	0.0365
404.796	0.0355
405.119	0.0355
405.443	0.035
405.767	0.0356
406.09	0.0352
406.414	0.0349
406.737	0.0346
407.061	0.0348
407.384	0.0346
407.707	0.0344
408.03	0.0334
408.353	0.0337
408.676	0.0339
408.999	0.0335
409.322	0.0331
409.645	0.0333
409.968	0.0331
410.29	0.0334
410.613	0.034
410.935	0.0323
411.258	0.0327
411.58	0.0325
411.902	0.0322
412.224	0.0328
412.546	0.0324
412.868	0.0333
413.19	0.0324
413.512	0.0322
413.834	0.0324
414.156	0.0328
414.477	0.0318
414.799	0.0322
415.121	0.0317
415.442	0.0321
415.763	0.0319
416.085	0.0325
416.406	0.0317
416.727	0.0325
417.048	0.0322
417.369	0.0321
417.69	0.0314
418.011	0.0319
418.331	0.0318
418.652	0.0322
418.973	0.0315
419.293	0.032
419.614	0.0312
419.934	0.0328
420.254	0.0316
420.574	0.0311
420.895	0.0313
421.215	0.0312
421.535	0.031
421.855	0.0307
422.174	0.0306
422.494	0.0312
422.814	0.0314
423.134	0.0313
423.453	0.0314
423.773	0.032
424.092	0.0321
424.411	0.0317
424.731	0.0317
425.05	0.0322
425.369	0.0317
425.688	0.0318
426.007	0.0318
426.326	0.032
426.644	0.0317
426.963	0.0317
427.282	0.0315
427.6	0.0318
427.919	0.0316
428.237	0.0322
428.556	0.032
428.874	0.0322
429.192	0.0313
429.51	0.0311
429.828	0.0312
430.146	0.0313
430.464	0.0314
430.782	0.0314
431.1	0.0311
431.418	0.0312
431.735	0.0306
432.053	0.0316
432.37	0.0318
432.688	0.0305
433.005	0.0309
433.322	0.0325
433.639	0.0316
433.957	0.0313
434.274	0.032
434.591	0.032
434.907	0.0307
435.224	0.0314
435.541	0.0315
435.858	0.0322
436.174	0.0311
436.491	0.031
436.807	0.0309
437.124	0.0319
437.44	0.0307
437.756	0.0313
438.072	0.0305
438.388	0.0312
438.704	0.0307
439.02	0.0308
439.336	0.0307
439.652	0.0313
439.968	0.0309
440.283	0.0308
440.599	0.0307
440.914	0.0313
441.23	0.0306
441.545	0.0306
441.86	0.0308
442.175	0.0312
442.491	0.0303
442.806	0.0305
443.121	0.0296
443.435	0.03
443.75	0.0301
444.065	0.0302
444.38	0.03
444.694	0.0299
445.009	0.0293
445.323	0.03
445.638	0.0298
445.952	0.0298
446.266	0.0289
446.58	0.0284
446.894	0.0292
447.208	0.0288
447.522	0.0281
447.836	0.029
448.15	0.0284
448.464	0.028
448.777	0.0293
449.091	0.0287
449.404	0.0287
449.718	0.0286
450.031	0.0277
450.345	0.0289
450.658	0.0281
450.971	0.0282
451.284	0.0283
451.597	0.0289
451.91	0.0283
452.223	0.0277
452.535	0.028
452.848	0.0277
453.161	0.0276
453.473	0.0278
453.786	0.028
454.098	0.0278
454.411	0.0273
454.723	0.0279
455.035	0.0268
455.347	0.0268
455.659	0.0272
455.971	0.0272
456.283	0.028
456.595	0.0272
456.907	0.0272
457.218	0.0281
457.53	0.0261
457.841	0.0263
458.153	0.0263
458.464	0.0262
458.776	0.026
459.087	0.0261
459.398	0.0257
459.709	0.0255
460.02	0.0262
460.331	0.0258
460.642	0.0257
460.953	0.0256
461.263	0.025
461.574	0.0244
461.885	0.0259
462.195	0.0244
462.506	0.0247
462.816	0.0255
463.126	0.0244
463.437	0.0245
463.747	0.0236
464.057	0.0231
464.367	0.0229
464.677	0.0238
464.987	0.0231
465.296	0.0223
465.606	0.0224
465.916	0.0214
466.225	0.0222
466.535	0.0227
466.844	0.0228
467.154	0.0226
467.463	0.0224
467.772	0.0217
468.081	0.0225
468.39	0.0222
468.699	0.0219
469.008	0.0224
469.317	0.022
469.626	0.0225
469.935	0.0212
470.243	0.0218
470.552	0.0208
470.86	0.021
471.169	0.0208
471.477	0.0205
471.785	0.0201
472.093	0.0202
472.402	0.0207
472.71	0.0192
473.018	0.019
473.326	0.0198
473.633	0.0193
473.941	0.0187
474.249	0.0198
474.556	0.0193
474.864	0.0184
475.171	0.0191
475.479	0.0192
475.786	0.0198
476.094	0.0188
476.401	0.0191
476.708	0.0186
477.015	0.0181
477.322	0.0169
477.629	0.0176
477.936	0.0179
478.242	0.0175
478.549	0.0175
478.856	0.0172
479.162	0.0175
479.469	0.017
479.775	0.0175
480.081	0.0162
480.388	0.0156
480.694	0.0166
481	0.0162
481.306	0.0159
481.612	0.0163
481.918	0.0165
482.224	0.0167
482.53	0.0165
482.835	0.0163
483.141	0.0162
483.446	0.0158
483.752	0.0148
484.057	0.0148
484.363	0.0146
484.668	0.0145
484.973	0.0142
485.278	0.0134
485.583	0.0134
485.888	0.0132
486.193	0.012
486.498	0.014
486.803	0.0135
487.107	0.0126
487.412	0.0119
487.717	0.0123
488.021	0.0127
488.325	0.0124
488.63	0.0128
488.934	0.0122
489.238	0.0123
489.542	0.0126
489.846	0.012
490.15	0.0127
490.454	0.0131
490.758	0.0119
491.062	0.0125
491.366	0.0121
491.669	0.0114
491.973	0.0114
492.276	0.0113
492.58	0.0103
492.883	0.0114
493.186	0.0105
493.489	0.011
493.792	0.0096
494.096	0.0091
494.399	0.0103
494.701	0.0104
495.004	0.0088
495.307	0.0096
495.61	0.0102
495.912	0.01
496.215	0.0092
496.517	0.0105
496.82	0.0094
497.122	0.0096
497.424	0.0098
497.727	0.0089
498.029	0.0082
498.331	0.009
498.633	0.0093
498.935	0.0089
499.237	0.0092
499.538	0.0084
499.84	0.0081
500.142	0.0076
500.443	0.0084
500.745	0.0087
501.046	0.008
501.348	0.0069
501.649	0.0072
501.95	0.0076
502.251	0.0083
502.552	0.0065
502.853	0.0081
503.154	0.0079
503.455	0.0066
503.756	0.0077
504.057	0.0065
504.357	0.0072
504.658	0.0072
504.958	0.0069
505.259	0.0069
505.559	0.0067
505.859	0.0058
506.16	0.0058
506.46	0.0065
506.76	0.0065
507.06	0.0053
507.36	0.006
507.66	0.0067
507.96	0.0078
508.259	0.0062
508.559	0.0052
508.859	0.0057
509.158	0.0061
509.457	0.0053
509.757	0.0054
510.056	0.0054
510.355	0.0058
510.655	0.0048
510.954	0.0052
511.253	0.0053
511.552	0.0057
511.851	0.0054
512.149	0.0047
512.448	0.0045
512.747	0.0054
513.045	0.0036
513.344	0.005
513.642	0.0042
513.941	0.0053
514.239	0.0049
514.537	0.0046
514.836	0.0047
515.134	0.0051
515.432	0.0045
515.73	0.0042
516.028	0.005
516.326	0.0043
516.623	0.0029
516.921	0.003
517.219	0.005
517.516	0.0033
517.814	0.0055
518.111	0.0044
518.409	0.0043
518.706	0.0045
519.003	0.0034
519.3	0.0031
519.597	0.0044
519.894	0.0034
520.191	0.0048
520.488	0.0058
520.785	0.0043
521.082	0.0054
521.378	0.0042
521.675	0.0028
521.971	0.0028
522.268	0.0041
522.564	0.0038
522.861	0.0042
523.157	0.0039
523.453	0.0044
523.749	0.0038
524.045	0.0035
524.341	0.0036
524.637	0.0036
524.933	0.0043
525.229	0.0035
525.524	0.0031
525.82	0.0038
526.115	0.004
526.411	0.0031
526.706	0.0028
527.002	0.0029
527.297	0.0031
527.592	0.0031
527.887	0.0028
528.182	0.0028
528.477	0.0034
528.772	0.0031
529.067	0.0031
529.362	0.0028
529.657	0.0033
529.951	0.0038
530.246	0.0025
530.54	0.0035
530.835	0.0034
531.129	0.0035
531.423	0.003
531.718	0.0032
532.012	0.0028
532.306	0.0047
532.6	0.0028
532.894	0.0032
533.188	0.0033
533.482	0.0033
533.775	0.0029
534.069	0.0034
534.363	0.0019
534.656	0.0029
534.95	0.0021
535.243	0.0017
535.536	0.0016
535.83	0.0018
536.123	0.002
536.416	0.0029
536.709	0.003
537.002	0.0042
537.295	0.0025
537.588	0.0028
537.881	0.0018
538.173	0.0027
538.466	0.0024
538.759	0.0029
539.051	0.0029
539.344	0.0034
539.636	0.0026
539.928	0.0039
540.22	0.0024
540.513	0.0028
540.805	0.0032
541.097	0.0032
541.389	0.0023
541.681	0.003
541.972	0.0019
542.264	0.0035
542.556	0.0023
542.847	0.0023
543.139	0.0023
543.431	0.0021
543.722	0.002
544.013	0.0017
544.305	0.0014
544.596	0.0017
544.887	0.0026
545.178	0.0031
545.469	0.0037
545.76	0.0036
546.051	0.0029
546.342	0.0021
546.632	0.0027
546.923	0.0028
547.214	0.0017
547.504	0.0033
547.795	0.0028
548.085	0.0026
548.375	0.0039
548.666	0.0036
548.956	0.0027
549.246	0.0041
549.536	0.0044
549.826	0.0034
550.116	0.0046
550.406	0.0033
550.695	0.0037
550.985	0.0041
551.275	0.005
551.564	0.0051
551.854	0.0042
552.143	0.0035
552.433	0.0041
552.722	0.0041
553.011	0.0035
553.3	0.0036
553.589	0.0035
553.879	0.0042
554.167	0.0033
554.456	0.0034
554.745	0.0046
555.034	0.0047
555.323	0.0035
555.611	0.0031
555.9	0.0036
556.188	0.0027
556.477	0.0035
556.765	0.0039
557.053	0.0039
557.342	0.0031
557.63	0.0032
557.918	0.0041
558.206	0.0042
558.494	0.004
558.782	0.0042
559.069	0.0052
559.357	0.0041
559.645	0.0036
559.932	0.0029
560.22	0.0029
560.507	0.0014
560.795	0.0022
561.082	0.0023
561.37	0.0036
561.657	0.0029
561.944	0.0028
562.231	0.0033
562.518	0.0037
562.805	0.0039
563.092	0.0022
563.379	0.0026
563.665	0.003
563.952	0.005
564.239	0.0044
564.525	0.0038
564.811	0.004
565.098	0.0032
565.384	0.0031
565.67	0.0037
565.957	0.0039
566.243	0.0046
566.529	0.003
566.815	0.0048
567.101	0.0034
567.387	0.0036
567.672	0.0031
567.958	0.0025
568.244	0.0026
568.529	0.0026
568.815	0.0025
569.1	0.0027
569.386	0.0037
569.671	0.0024
569.956	0.0027
570.242	0.003
570.527	0.0017
570.812	0.0024
571.097	0.0019
571.382	0.001
571.666	0.0026
571.951	0.0031
572.236	0.0021
572.521	0.0034
572.805	0.0043
573.09	0.0024
573.374	0.0015
573.659	0.0019
573.943	0.0025
574.227	0.0028
574.511	0.0025
574.795	0.0027
575.079	0.003
575.363	0.0026
575.647	0.0024
575.931	0.0033
576.215	0.0037
576.499	0.0019
576.782	0.0015
577.066	0.0023
577.349	0.0032
577.633	0.0024
577.916	0.0025
578.2	0.0029
578.483	0.0035
578.766	0.0042
579.049	0.0032
579.332	0.0032
579.615	0.0021
579.898	0.0018
580.181	0.0026
580.464	0.0027
580.746	0.0027
581.029	0.0033
581.312	0.0012
581.594	0.001
581.877	0.0022
582.159	0.0034
582.441	0.0018
582.724	0.0032
583.006	0.0032
583.288	0.0036
583.57	0.0027
583.852	0.0037
584.134	0.0032
584.416	0.0026
584.697	0.0021
584.979	0.0016
585.261	0.0017
585.542	0.0027
585.824	0.0035
586.105	0.0027
586.387	0.0034
586.668	0.0027
586.949	0.0034
587.231	0.0028
587.512	0.0029
587.793	0.0025
588.074	0.003
588.355	0.0032
588.636	0.0025
588.916	0.0034
589.197	0.0033
589.478	0.0026
589.758	0.0024
590.039	0.0019
590.319	0.0029
590.6	0.0019
590.88	0.0026
591.16	0.0019
591.441	0.0033
591.721	0.0023
592.001	0.0025
592.281	0.003
592.561	0.003
592.841	0.002
593.12	0.0019
593.4	0.0025
593.68	0.0025
593.959	0.002
594.239	0.0036
594.518	0.0046
594.798	0.0038
595.077	0.0024
595.356	0.003
595.636	0.0029
595.915	0.0031
596.194	0.0041
596.473	0.0033
596.752	0.0032
597.031	0.0032
597.31	0.003
597.588	0.0022
597.867	0.0017
598.146	0.0015
598.424	0.0015
598.703	0.0016
598.981	0.0013
599.259	0.0011
599.538	0.0027
599.816	0.003
600.094	0.0022
600.372	0.0022
600.65	0.0037
600.928	0.003
601.206	0.0025
601.484	0.0035
601.762	0.0038
602.04	0.0045
602.317	0.0034
602.595	0.0039
602.872	0.004
603.15	0.0039
603.427	0.0011
603.704	0.0012
603.982	0.0016
604.259	0.0015
604.536	0.0017
604.813	0.002
605.09	0.0027
605.367	0.0009
605.644	0.0006
605.921	0.0014
606.197	0.0008
606.474	0.0025
606.751	0.0017
607.027	0.0018
607.304	0.0021
607.58	0.0019
607.856	0.0031
608.133	0.004
608.409	0.0037
608.685	0.0035
608.961	0.003
609.237	0.0041
609.513	0.0046
609.789	0.0031
610.065	0.0023
610.341	0.0026
610.616	0.0034
610.892	0.0024
611.167	0.0021
611.443	0.0032
611.718	0.0025
611.994	0.0025
612.269	0.0021
612.544	0.0026
612.819	0.0016
613.095	0.0025
613.37	0.0012
613.645	0.0016
613.919	0.0033
614.194	0.0023
614.469	0.0025
614.744	0.0017
615.019	0.0009
615.293	0.0011
615.568	0.0024
615.842	0.0013
616.116	0.0022
616.391	0.0014
616.665	0.0005
616.939	0.0009
617.213	0.0019
617.488	0.002
617.762	0.0021
618.035	0.0032
618.309	0.0018
618.583	0.003
618.857	0.0043
619.131	0.0023
619.404	0.0025
619.678	0.0037
619.951	0.0019
620.225	0.0016
620.498	0.0018
620.771	0.002
621.045	0.0024
621.318	0.0038
621.591	0.0019
621.864	0.0018
622.137	0.0012
622.41	0.0022
622.683	0.0022
622.956	0.0014
623.228	0.0021
623.501	0.0032
623.774	0.0031
624.046	0.0026
624.319	0.0017
624.591	0.0017
624.863	0.0019
625.136	0.0035
625.408	0.0035
625.68	0.0037
625.952	0.0026
626.224	0.0041
626.496	0.0029
626.768	0.0032
627.04	0.0036
627.311	0.0034
627.583	0.0041
627.855	0.0046
628.126	0.0037
628.398	0.0033
628.669	0.0029
628.941	0.0009
629.212	0.0011
629.483	0.0022
629.755	0.0017
630.026	0.0023
630.297	0.0037
630.568	0.0028
630.839	0.0034
631.11	0.0038
631.38	0.0028
631.651	0.0025
631.922	0.0032
632.192	0.0029
632.463	0.0029
632.733	0.0023
633.004	0.0026
633.274	0.0027
633.545	0.002
633.815	0.0029
634.085	0.0032
634.355	0.0017
634.625	0.0033
634.895	0.0029
635.165	0.0035
635.435	0.0047
635.705	0.004
635.974	0.0023
636.244	0.0019
636.514	0.0022
636.783	0.0015
637.053	0.0034
637.322	0.0027
637.591	0.0025
637.861	0.0015
638.13	0.003
638.399	0.0037
638.668	0.0036
638.937	0.0042
639.206	0.004
639.475	0.005
639.744	0.0033
640.013	0.003
640.281	0.0042
640.55	0.0032
640.819	0.0036
641.087	0.0025
641.356	0.0034
641.624	0.0022
641.892	0.003
642.161	0.0037
642.429	0.004
642.697	0.0042
642.965	0.0034
643.233	0.0016
643.501	0.0021
643.769	0.003
644.037	0.0029
644.305	0.0032
644.572	0.002
644.84	0.003
645.108	0.0038
645.375	0.0028
645.643	0.0029
645.91	0.0032
646.177	0.0029
646.445	0.0029
646.712	0.0024
646.979	0.0035
647.246	0.0045
647.513	0.0039
647.78	0.0036
648.047	0.0009
648.314	0.001
648.58	0.0001
648.847	0.0003
649.114	-0.0004
649.38	-0.0007
649.647	-0.0002
649.913	0.0012
650.18	0.0014
650.446	0.0029
650.712	0.0043
650.978	0.0039
651.245	0.0042
651.511	0.0044
651.777	0.0044
652.043	0.003
652.309	0.0036
652.574	0.003
652.84	0.0034
653.106	0.0045
653.371	0.0043
653.637	0.005
653.903	0.0046
654.168	0.0048
654.433	0.0034
654.699	0.003
654.964	0.0012
655.229	0.0029
655.494	0.0012
655.759	-0.0034
656.024	0.0001
656.289	-0
656.554	0.0032
656.819	0.0041
657.084	0.0053
657.349	0.005
657.613	0.0037
657.878	0.002
658.142	0.0023
658.407	0.0022
658.671	0.0029
658.936	0.0023
659.2	0.0042
659.464	0.0031
659.728	0.0032
659.992	0.002
660.256	0.0003
660.52	0.0011
660.784	0.0025
661.048	0.0022
661.312	0.0019
661.575	0.0023
661.839	0.0038
662.103	0.0037
662.366	0.0025
662.63	0.0024
662.893	0.0014
663.156	0.0027
663.42	0.0031
663.683	0.0035
663.946	0.0042
664.209	0.0042
664.472	0.0037
664.735	0.0042
664.998	0.0046
665.261	0.0042
665.524	0.0051
665.786	0.0045
666.049	0.0041
666.312	0.0033
666.574	0.0026
666.837	0.0044
667.099	0.003
667.361	0.0039
667.624	0.0045
667.886	0.0039
668.148	0.0047
668.41	0.0036
668.672	0.0044
668.934	0.0042
669.196	0.0035
669.458	0.0025
669.72	0.0014
669.982	0.0024
670.243	0.0026
670.505	0.0031
670.766	0.0025
671.028	0.0021
671.289	0.0037
671.551	0.0024
671.812	0.0011
672.073	0.0026
672.334	0.0021
672.596	0.0027
672.857	0.0033
673.118	0.004
673.379	0.0046
673.639	0.004
673.9	0.0044
674.161	0.0041
674.422	0.0043
674.682	0.0033
674.943	0.0037
675.203	0.0031
675.464	0.004
675.724	0.0029
675.985	0.0034
676.245	0.003
676.505	0.0016
676.765	0.0017
677.025	0.0026
677.285	0.0019
677.545	0.0014
677.805	0.0012
678.065	0.0022
678.325	0.0031
678.585	0.0049
678.844	0.0038
679.104	0.0055
679.363	0.0054
679.623	0.0048
679.882	0.006
680.142	0.0059
680.401	0.0059
680.66	0.0062
680.919	0.0045
681.178	0.0053
681.437	0.0048
681.696	0.0031
681.955	0.0056
682.214	0.005
682.473	0.0053
682.732	0.0043
682.99	0.0053
683.249	0.0055
683.508	0.0053
683.766	0.0046
684.024	0.0044
684.283	0.0031
684.541	0.0024
684.799	0.0025
685.058	0.0009
685.316	0.0002
685.574	-0.0011
685.832	0.0004
686.09	0.0004
686.348	0.0004
686.606	0.001
686.863	0.0008
687.121	0.0007
687.379	0
687.636	-0.0004
687.894	0.0001
688.151	-0.0001
688.409	0.0007
688.666	0.0012
688.923	0.0013
689.181	0.0013
689.438	0.0006
689.695	0.0006
689.952	0.0011
690.209	0.0004
690.466	0.0009
690.723	0.0011
690.979	0.0012
691.236	0.0002
691.493	-0.0014
691.75	-0.0004
692.006	-0.0005
692.263	-0.0011
692.519	-0.0012
692.775	-0.0019
693.032	-0.0018
693.288	-0.0017
693.544	-0.0007
693.8	0.0002
694.056	0.0004
694.313	0.0003
694.568	0.0008
694.824	0.0003
695.08	0.0009
695.336	0.0012
695.592	0.0009
695.847	0.0021
696.103	0.0034
696.359	0.0038
696.614	0.0029
696.869	0.0014
697.125	-0.001
697.38	0
697.635	0.0014
697.891	0.0024
698.146	0.002
698.401	0.0022
698.656	0.0013
698.911	0.0026
699.166	0.0025
699.42	0.003
699.675	0.0034
699.93	0.0035
700.185	0.0044
700.439	0.0032
700.694	0.003
700.948	0.0024
701.203	0.0026
701.457	0.002
701.711	0.0028
701.965	0.0012
702.22	0.0012
702.474	0.001
702.728	0.0011
702.982	0.0016
703.236	0.0017
703.49	0.0016
703.743	0.0014
703.997	0.001
704.251	0.0012
704.504	0.0012
704.758	0.0013
705.012	0.0027
705.265	0.0034
705.518	0.003
705.772	0.0041
706.025	0.0038
706.278	0.0031
706.531	0.003
706.785	0.0011
707.038	0.0001
707.291	0.0009
707.543	-0.0008
707.796	0.0006
708.049	0.0007
708.302	-0.0001
708.555	0.0004
708.807	0.001
709.06	0.0018
709.312	0.0028
709.565	0.0035
709.817	0.0041
710.069	0.0028
710.322	0.003
710.574	0.0025
710.826	0.0024
711.078	0.0023
711.33	0.0017
711.582	0.0024
711.834	0.0014
712.086	0.0015
712.338	0.0014
712.59	0.0008
712.841	-0.0014
713.093	0.0005
713.344	0.0014
713.596	0.0002
713.847	-0.0004
714.099	-0.0002
714.35	0.002
714.601	0.0004
714.853	0.0001
715.104	0.0007
715.355	-0.0009
715.606	0.0013
715.857	0.0015
716.108	0.0022
716.359	0.0029
716.609	0.0019
716.86	0.0029
717.111	0.0023
717.361	0.0014
717.612	0.0014
717.863	0.003
718.113	0.0029
718.363	0.0018
718.614	0.0032
718.864	0.003
719.114	0.0023
719.364	0.0004
719.614	0.0011
719.865	0.0014
720.114	0.0014
720.364	0.0016
720.614	0.0007
720.864	0.0013
721.114	0.0002
721.364	0.001
721.613	-0
721.863	0.0005
722.112	0.001
722.362	0.0002
722.611	0.002
722.86	0.002
723.11	0.0032
723.359	0.0032
723.608	0.0026
723.857	0.0033
724.106	0.0032
724.355	0.0028
724.604	0.0032
724.853	0.0014
725.102	-0.0001
725.351	-0.0013
725.599	-0.002
725.848	-0.0012
726.097	-0.0002
726.345	-0.0001
726.594	-0
726.842	0.0008
727.09	0.0002
727.339	-0.0008
727.587	-0.0006
727.835	-0.0014
728.083	-0.0012
728.331	-0.001
728.579	0.0008
728.827	-0.0016
729.075	-0.0012
729.323	-0.0021
729.571	-0.0023
729.818	-0.0024
730.066	-0.0016
730.314	-0.0006
730.561	-0.001
730.809	-0.0031
731.056	-0.0022
731.303	-0.0021
731.551	-0.001
731.798	-0.001
732.045	0.0001
732.292	0.0006
732.539	0.0005
732.786	-0.0006
733.033	-0.0017
733.28	-0.0002
733.527	-0.0012
733.774	-0.0024
734.021	-0.0021
734.267	-0.0013
734.514	-0.002
734.76	-0.0019
735.007	-0.0009
735.253	-0.0002
735.5	0.0006
735.746	0.0019
735.992	0.0013
736.238	0.002
736.485	0.0022
736.731	0.0024
736.977	0.0008
737.223	0.0003
737.469	0.0003
737.715	0.0024
737.96	0.0026
738.206	0.002
738.452	0.0024
738.697	0.001
738.943	0.0004
739.189	0.0002
739.434	-0.0001
739.679	0.0016
739.925	0.0035
740.17	0.0046
740.415	0.0026
740.66	0.0036
740.906	0.0024
741.151	0.0022
741.396	0.0013
741.641	0.0011
741.886	0.0012
742.13	0.001
742.375	0.0017
742.62	-0.0002
742.865	0.0002
743.109	0.0005
743.354	-0.0007
743.598	-0.0008
743.843	-0.0023
744.087	-0.0022
744.331	-0.0014
744.576	-0.0006
744.82	-0.0006
745.064	0.0007
745.308	0.0008
745.552	0.0006
745.796	-0.0002
746.04	0.0004
746.284	-0.0001
746.528	0.0005
746.771	0.0004
747.015	0.0001
747.259	-0.0009
747.502	-0.0003
747.746	0.0004
747.989	0.0014
748.233	0.0022
748.476	0.0022
748.719	0.0017
748.963	0.0021
749.206	0.0015
749.449	0.001
749.692	0.0011
749.935	0.001
750.178	0.0018
750.421	0.0005
750.664	0.0013
750.906	0.0018
751.149	0.0013
751.392	0.0013
751.635	0.0013
751.877	0.0012
752.12	0.0016
752.362	0.0028
752.604	0.0028
752.847	0.0018
753.089	0.0017
753.331	0.0022
753.573	0.0016
753.816	0.0025
754.058	0.0021
754.3	0.0029
754.542	0.0037
754.783	0.0031
755.025	0.0035
755.267	0.0028
755.509	0.0033
755.75	0.0011
755.992	0.0019
756.234	0.0024
756.475	0.0028
756.716	0.0015
756.958	0.0009
757.199	0.0017
757.44	0.0022
757.682	0.0008
757.923	0.0024
758.164	0.0034
758.405	0.0033
758.646	0.0034
758.887	0.0023
759.128	0.0025
759.369	0.0014
759.609	0.0014
759.85	0.0012
760.091	0.0015
760.331	0.0022
760.572	0.002
760.812	0.0005
761.053	0.0013
761.293	0.0026
761.533	0.0034
761.774	0.0034
762.014	0.0036
762.254	0.0029
762.494	0.0029
762.734	0.0025
762.974	0.0025
763.214	0.0021
763.454	0.003
763.694	0.0021
763.933	0.0036
764.173	0.0049
764.413	0.0048
764.652	0.0018
764.892	0.0025
765.131	0.001
765.371	0.0014
765.61	0.0008
765.849	-0.0005
766.089	-0.0007
766.328	0.0003
766.567	-0.0011
766.806	-0.0011
767.045	-0.002
767.284	-0.0002
767.523	-0.0002
767.762	-0.0008
768.001	-0.0006
768.239	-0.0009
768.478	-0.0015
768.717	-0.0011
768.955	-0.0013
769.194	-0.0003
769.432	0.0002
769.671	0.0003
769.909	0.0002
770.148	0.0002
770.386	-0.0003
770.624	-0.0005
770.862	-0.0012
771.1	-0.0005
771.338	-0.0012
771.576	0.0004
771.814	0.0012
772.052	0.0009
772.29	0.002
772.528	0.0012
772.765	0.0006
773.003	0.0009
773.24	0.0011
773.478	0.0016
773.716	0.0024
773.953	0.003
774.19	0.0029
774.428	0.0036
774.665	0.004
774.902	0.005
775.139	0.0039
775.376	0.0028
775.613	0.0041
775.85	0.0047
776.087	0.0049
776.324	0.0034
776.561	0.0027
776.798	0.0036
777.034	0.0031
777.271	0.0027
777.508	0.0024
777.744	0.0038
777.981	0.0035
778.217	0.003
778.454	0.0026
778.69	0.002
778.926	0.0031
779.162	0.002
779.399	0.0028
779.635	0.0021
779.871	0.0013
780.107	0.0016
780.343	0.0007
780.579	0.0019
780.814	0.0021
781.05	0.0013
781.286	0.0011
781.522	0.0007
781.757	0.0003
781.993	0.0011
782.228	-0
782.464	0.0013
782.699	0.0014
782.934	0.0008
783.17	0.0014
783.405	0.0017
783.64	0.0006
783.875	0.0001
784.11	0.001
784.345	0.0012
784.58	0.0018
784.815	0.0011
785.05	0.0004
785.285	0.0003
785.52	0.0014
785.754	0.0004
785.989	0.0008
786.223	0.0023
786.458	0.0029
786.692	0.0045
786.927	0.0057
787.161	0.005
787.396	0.006
787.63	0.0051
787.864	0.0045
788.098	0.0022
788.332	0.0016
788.566	0.0014
788.8	0.0012
789.034	0.0017
789.268	0.0016
789.502	0.0018
789.736	0.0019
789.969	0.0025
790.203	0.003
790.437	0.0026
790.67	0.0038
790.904	0.0044
791.137	0.0064
791.37	0.0056
791.604	0.0052
791.837	0.0068
792.07	0.0067
792.303	0.0069
792.537	0.0079
792.77	0.006
793.003	0.0048
793.236	0.0038
793.469	0.0045
793.701	0.0027
793.934	0.0025
794.167	0.0008
794.4	0
794.632	0.0008
794.865	-0.0001
795.097	-0.0002
795.33	0.0001
795.562	0.0001
795.795	0.0007
796.027	0.0011
796.259	0.0018
796.491	0.0007
796.724	0.0019
796.956	0.0022
797.188	0.0017
797.42	0.002
797.652	0.0016
797.883	0.0021
798.115	0.003
798.347	0.003
798.579	0.0026
798.81	0.0034
799.042	0.0028
799.274	0.0042
799.505	0.004
799.737	0.0033
799.968	0.0025
800.199	0.0022
800.431	0.003
800.662	0.0017
800.893	0.0031
801.124	0.0028
801.355	0.0032
801.586	0.0047
801.817	0.0065
802.048	0.0056
802.279	0.0063
802.51	0.0064
802.741	0.0074
802.971	0.0063
803.202	0.006
803.433	0.0048
803.663	0.004
803.894	0.0042
804.124	0.0046
804.354	0.0054
804.585	0.0062
804.815	0.0059
805.045	0.0063
805.275	0.0054
805.506	0.0334
805.736	-0.1264
805.966	-0.243
806.196	-0.1818
