Data from 03 0.4 mM K2Cr2O7 0.25 M BQDS 1 M H2SO4 5 min_Absorbance_0024.txt Node
Date: Tue Dec 14 19:30:12 EST 2021
User: kwabilab-user
Spectrometer: HDX00518
Trigger mode: 0
Integration Time (sec): 5.000000E-2
Scans to average: 50
Nonlinearity correction enabled: false
Boxcar width: 0
Storing dark spectrum: false
XAxis mode: Wavelengths
Number of Pixels in Spectrum: 2068
>>>>>Begin Spectral Data<<<<<
195.27	-0.2104
195.642	-0.0717
196.014	-0.329
196.386	-0.2527
196.758	-0.1696
197.129	-0.0494
197.501	-0.0806
197.872	-0.0211
198.244	-0.0129
198.615	0.0135
198.986	-0.0171
199.357	-0.0079
199.728	0.0141
200.099	-0.0145
200.47	-0.0345
200.841	-0.016
201.212	-0.0164
201.582	0.0022
201.953	-0.0017
202.323	-0.0032
202.694	-0.0032
203.064	-0.0209
203.434	-0.0437
203.804	-0.026
204.174	-0.0221
204.544	-0.0177
204.914	-0.0446
205.284	-0.0249
205.653	-0.0295
206.023	-0.0226
206.393	-0.0281
206.762	-0.0227
207.131	-0.0222
207.501	-0.0239
207.87	-0.0178
208.239	-0.0341
208.608	-0.0342
208.977	-0.0355
209.346	-0.0316
209.715	-0.0277
210.083	-0.031
210.452	-0.0435
210.82	-0.0201
211.189	-0.0493
211.557	-0.0266
211.925	-0.045
212.294	-0.0374
212.662	-0.0181
213.03	-0.0199
213.398	-0.0538
213.766	-0.0269
214.133	-0.0265
214.501	-0.0371
214.869	-0.0343
215.236	-0.0579
215.604	-0.0115
215.971	0.0102
216.338	-0.026
216.705	-0.0206
217.072	-0.0111
217.439	-0.0117
217.806	-0.0145
218.173	0.008
218.54	0.007
218.907	0.0167
219.273	0.0128
219.64	0.021
220.006	0.0336
220.373	0.0358
220.739	0.0594
221.105	0.0815
221.471	0.0961
221.837	0.1033
222.203	0.1291
222.569	0.1303
222.935	0.1405
223.3	0.1812
223.666	0.2036
224.031	0.2231
224.397	0.2559
224.762	0.2712
225.127	0.3135
225.493	0.3152
225.858	0.3534
226.223	0.3671
226.588	0.4012
226.952	0.402
227.317	0.452
227.682	0.4589
228.046	0.4535
228.411	0.4905
228.775	0.4963
229.14	0.5219
229.504	0.5173
229.868	0.5318
230.232	0.5601
230.596	0.5856
230.96	0.5773
231.324	0.5897
231.688	0.5866
232.052	0.6079
232.415	0.6014
232.779	0.6126
233.142	0.616
233.505	0.6376
233.869	0.6373
234.232	0.6361
234.595	0.6368
234.958	0.6325
235.321	0.6343
235.684	0.6356
236.047	0.639
236.409	0.638
236.772	0.6391
237.134	0.6391
237.497	0.644
237.859	0.6492
238.222	0.6483
238.584	0.6339
238.946	0.6321
239.308	0.6283
239.67	0.6353
240.032	0.6391
240.393	0.6278
240.755	0.6271
241.117	0.6296
241.478	0.629
241.84	0.6249
242.201	0.6246
242.562	0.6161
242.924	0.6189
243.285	0.6124
243.646	0.6094
244.007	0.6108
244.368	0.6047
244.728	0.6172
245.089	0.604
245.45	0.6052
245.81	0.6044
246.171	0.6
246.531	0.6032
246.891	0.6007
247.252	0.5949
247.612	0.6022
247.972	0.597
248.332	0.5946
248.692	0.6035
249.051	0.5952
249.411	0.5978
249.771	0.5992
250.13	0.5928
250.49	0.5988
250.849	0.5956
251.208	0.5992
251.568	0.5946
251.927	0.5956
252.286	0.6011
252.645	0.6006
253.004	0.596
253.363	0.5922
253.721	0.5966
254.08	0.6035
254.439	0.5926
254.797	0.5944
255.155	0.5979
255.514	0.6007
255.872	0.5963
256.23	0.5916
256.588	0.5985
256.946	0.5984
257.304	0.6011
257.662	0.6014
258.02	0.5967
258.377	0.5959
258.735	0.5933
259.093	0.5933
259.45	0.5948
259.807	0.5969
260.165	0.5971
260.522	0.5891
260.879	0.5903
261.236	0.5911
261.593	0.592
261.95	0.5853
262.306	0.5876
262.663	0.5858
263.02	0.5843
263.376	0.587
263.733	0.5819
264.089	0.5868
264.445	0.5834
264.802	0.5765
265.158	0.5754
265.514	0.5745
265.87	0.5736
266.226	0.5793
266.581	0.5688
266.937	0.5682
267.293	0.5689
267.648	0.5657
268.004	0.5678
268.359	0.5661
268.714	0.554
269.07	0.5561
269.425	0.5539
269.78	0.5492
270.135	0.5509
270.49	0.5523
270.844	0.5488
271.199	0.5456
271.554	0.5368
271.908	0.5368
272.263	0.5335
272.617	0.5334
272.972	0.5239
273.326	0.5254
273.68	0.5217
274.034	0.5177
274.388	0.5211
274.742	0.5132
275.096	0.5115
275.45	0.5077
275.803	0.5014
276.157	0.4994
276.51	0.4961
276.864	0.4915
277.217	0.493
277.571	0.486
277.924	0.4792
278.277	0.4795
278.63	0.4671
278.983	0.4716
279.336	0.4663
279.688	0.4633
280.041	0.4567
280.394	0.4519
280.746	0.4494
281.099	0.4421
281.451	0.4394
281.803	0.4392
282.156	0.4319
282.508	0.4266
282.86	0.4244
283.212	0.4213
283.564	0.4142
283.916	0.411
284.267	0.4072
284.619	0.4049
284.971	0.4006
285.322	0.3975
285.673	0.3918
286.025	0.3849
286.376	0.3843
286.727	0.38
287.078	0.3749
287.429	0.3741
287.78	0.3656
288.131	0.3627
288.482	0.3571
288.833	0.355
289.183	0.3517
289.534	0.3469
289.884	0.3428
290.235	0.3387
290.585	0.3359
290.935	0.3321
291.285	0.3288
291.635	0.3249
291.985	0.3199
292.335	0.3154
292.685	0.3136
293.035	0.3074
293.384	0.305
293.734	0.3016
294.083	0.2966
294.433	0.2943
294.782	0.2907
295.131	0.2863
295.48	0.2825
295.829	0.2784
296.179	0.2758
296.527	0.2712
296.876	0.2681
297.225	0.265
297.574	0.2605
297.922	0.2572
298.271	0.2542
298.619	0.2505
298.968	0.2483
299.316	0.2446
299.664	0.2428
300.012	0.2385
300.36	0.2354
300.708	0.2325
301.056	0.2289
301.404	0.2268
301.752	0.2241
302.099	0.2211
302.447	0.2188
302.794	0.2162
303.142	0.2123
303.489	0.2103
303.836	0.2074
304.183	0.206
304.531	0.2037
304.878	0.2018
305.224	0.1999
305.571	0.1982
305.918	0.1959
306.265	0.1927
306.611	0.1918
306.958	0.191
307.304	0.1886
307.651	0.1875
307.997	0.1855
308.343	0.1831
308.689	0.1833
309.035	0.1817
309.381	0.1801
309.727	0.1789
310.073	0.1782
310.419	0.1777
310.764	0.1762
311.11	0.1747
311.455	0.1745
311.801	0.1739
312.146	0.173
312.491	0.1729
312.837	0.1718
313.182	0.1708
313.527	0.1701
313.872	0.1701
314.216	0.1708
314.561	0.1695
314.906	0.1688
315.251	0.1697
315.595	0.1691
315.94	0.1692
316.284	0.1691
316.628	0.169
316.972	0.169
317.317	0.1697
317.661	0.1694
318.005	0.1694
318.348	0.1694
318.692	0.17
319.036	0.1705
319.38	0.1708
319.723	0.1704
320.067	0.1718
320.41	0.1726
320.754	0.1725
321.097	0.1719
321.44	0.1743
321.783	0.1742
322.126	0.1759
322.469	0.176
322.812	0.1771
323.155	0.1781
323.498	0.1787
323.84	0.179
324.183	0.1797
324.525	0.1817
324.868	0.1828
325.21	0.1832
325.552	0.1845
325.894	0.1859
326.236	0.1859
326.578	0.1868
326.92	0.1883
327.262	0.1888
327.604	0.1896
327.946	0.1914
328.287	0.1922
328.629	0.1934
328.97	0.1946
329.312	0.1956
329.653	0.1975
329.994	0.1986
330.335	0.1993
330.676	0.2015
331.017	0.2017
331.358	0.2028
331.699	0.205
332.04	0.2057
332.38	0.2071
332.721	0.2082
333.061	0.2089
333.402	0.2106
333.742	0.2112
334.083	0.2131
334.423	0.2137
334.763	0.2153
335.103	0.2162
335.443	0.2171
335.783	0.2184
336.123	0.2188
336.462	0.2199
336.802	0.221
337.141	0.2229
337.481	0.2233
337.82	0.224
338.16	0.225
338.499	0.2266
338.838	0.2281
339.177	0.229
339.516	0.2291
339.855	0.23
340.194	0.2307
340.533	0.2317
340.872	0.2317
341.21	0.2329
341.549	0.2339
341.887	0.235
342.226	0.2348
342.564	0.2355
342.902	0.2357
343.24	0.2367
343.578	0.2367
343.916	0.2362
344.254	0.2379
344.592	0.2381
344.93	0.2378
345.268	0.2376
345.605	0.2377
345.943	0.2382
346.28	0.2383
346.618	0.2376
346.955	0.2385
347.292	0.239
347.629	0.2385
347.966	0.2383
348.303	0.2385
348.64	0.2382
348.977	0.2383
349.314	0.239
349.65	0.2383
349.987	0.2388
350.324	0.2378
350.66	0.2384
350.996	0.238
351.333	0.2374
351.669	0.2362
352.005	0.2366
352.341	0.2345
352.677	0.2341
353.013	0.2325
353.349	0.2329
353.685	0.2312
354.02	0.2302
354.356	0.2298
354.691	0.2281
355.027	0.228
355.362	0.226
355.697	0.2262
356.033	0.2248
356.368	0.2239
356.703	0.2233
357.038	0.2227
357.373	0.2211
357.707	0.2206
358.042	0.2198
358.377	0.2188
358.711	0.218
359.046	0.2167
359.38	0.2162
359.715	0.215
360.049	0.2135
360.383	0.2117
360.717	0.2109
361.051	0.2102
361.385	0.2084
361.719	0.2075
362.053	0.2065
362.387	0.2041
362.72	0.2026
363.054	0.2013
363.387	0.1995
363.721	0.1978
364.054	0.1956
364.387	0.1941
364.721	0.1929
365.054	0.1912
365.387	0.1896
365.72	0.1884
366.053	0.1873
366.385	0.185
366.718	0.1846
367.051	0.1824
367.383	0.1822
367.716	0.1802
368.048	0.1787
368.381	0.1781
368.713	0.1755
369.045	0.1754
369.377	0.1737
369.709	0.1726
370.041	0.171
370.373	0.1701
370.705	0.1694
371.037	0.1671
371.368	0.167
371.7	0.1644
372.031	0.163
372.363	0.1613
372.694	0.1595
373.025	0.1581
373.356	0.1563
373.688	0.1545
374.019	0.1533
374.35	0.1509
374.68	0.149
375.011	0.1471
375.342	0.1458
375.673	0.1444
376.003	0.1415
376.334	0.1405
376.664	0.1394
376.995	0.1374
377.325	0.136
377.655	0.1342
377.985	0.1326
378.315	0.1313
378.645	0.1304
378.975	0.1292
379.305	0.1274
379.635	0.1272
379.964	0.126
380.294	0.1242
380.623	0.1227
380.953	0.1215
381.282	0.1208
381.611	0.1198
381.941	0.1183
382.27	0.1167
382.599	0.1165
382.928	0.1146
383.257	0.1138
383.585	0.1119
383.914	0.1101
384.243	0.1084
384.571	0.1074
384.9	0.1061
385.228	0.104
385.557	0.1031
385.885	0.1009
386.213	0.1002
386.541	0.0984
386.869	0.0962
387.197	0.0959
387.525	0.0948
387.853	0.0923
388.181	0.0914
388.508	0.0905
388.836	0.0886
389.164	0.0883
389.491	0.0861
389.818	0.0847
390.146	0.0842
390.473	0.0829
390.8	0.0825
391.127	0.0808
391.454	0.0793
391.781	0.0796
392.108	0.0785
392.435	0.0768
392.761	0.0761
393.088	0.0758
393.415	0.0752
393.741	0.0746
394.067	0.0741
394.394	0.0733
394.72	0.0715
395.046	0.0698
395.372	0.0702
395.698	0.0689
396.024	0.0677
396.35	0.0672
396.676	0.0661
397.001	0.0657
397.327	0.0647
397.653	0.0633
397.978	0.0634
398.303	0.0618
398.629	0.0616
398.954	0.0603
399.279	0.0603
399.604	0.0594
399.929	0.0589
400.254	0.0577
400.579	0.057
400.904	0.0561
401.229	0.056
401.553	0.0559
401.878	0.0553
402.202	0.0545
402.527	0.0535
402.851	0.0535
403.175	0.0521
403.5	0.0526
403.824	0.0516
404.148	0.0511
404.472	0.0511
404.796	0.0505
405.119	0.0507
405.443	0.0502
405.767	0.0498
406.09	0.05
406.414	0.0493
406.737	0.0498
407.061	0.0491
407.384	0.0484
407.707	0.0481
408.03	0.0479
408.353	0.0475
408.676	0.0475
408.999	0.0473
409.322	0.047
409.645	0.0464
409.968	0.0464
410.29	0.0463
410.613	0.047
410.935	0.0466
411.258	0.047
411.58	0.0451
411.902	0.0459
412.224	0.0451
412.546	0.0457
412.868	0.0464
413.19	0.045
413.512	0.0454
413.834	0.0454
414.156	0.0456
414.477	0.0445
414.799	0.045
415.121	0.0445
415.442	0.0449
415.763	0.0445
416.085	0.0446
416.406	0.0443
416.727	0.045
417.048	0.045
417.369	0.0447
417.69	0.044
418.011	0.0439
418.331	0.0446
418.652	0.0444
418.973	0.0437
419.293	0.0444
419.614	0.0438
419.934	0.0448
420.254	0.0445
420.574	0.0428
420.895	0.0439
421.215	0.0442
421.535	0.0445
421.855	0.044
422.174	0.0428
422.494	0.0433
422.814	0.0435
423.134	0.0441
423.453	0.0438
423.773	0.0443
424.092	0.0445
424.411	0.0441
424.731	0.0439
425.05	0.0437
425.369	0.0438
425.688	0.0439
426.007	0.0433
426.326	0.0443
426.644	0.0437
426.963	0.0437
427.282	0.0438
427.6	0.0435
427.919	0.0437
428.237	0.0437
428.556	0.0442
428.874	0.0436
429.192	0.0436
429.51	0.0434
429.828	0.0433
430.146	0.0438
430.464	0.0434
430.782	0.0434
431.1	0.043
431.418	0.0437
431.735	0.043
432.053	0.0436
432.37	0.0432
432.688	0.043
433.005	0.0426
433.322	0.0441
433.639	0.044
433.957	0.0431
434.274	0.0438
434.591	0.0438
434.907	0.043
435.224	0.0435
435.541	0.0436
435.858	0.0444
436.174	0.0441
436.491	0.0432
436.807	0.0429
437.124	0.0432
437.44	0.0431
437.756	0.0436
438.072	0.0425
438.388	0.0427
438.704	0.0433
439.02	0.0428
439.336	0.0427
439.652	0.0434
439.968	0.0428
440.283	0.0429
440.599	0.0425
440.914	0.0424
441.23	0.0424
441.545	0.043
441.86	0.0427
442.175	0.0433
442.491	0.0421
442.806	0.0422
443.121	0.0416
443.435	0.0412
443.75	0.0421
444.065	0.0418
444.38	0.0418
444.694	0.0414
445.009	0.0417
445.323	0.042
445.638	0.0418
445.952	0.0412
446.266	0.0412
446.58	0.0405
446.894	0.0411
447.208	0.0403
447.522	0.0401
447.836	0.0409
448.15	0.0406
448.464	0.0396
448.777	0.0408
449.091	0.0398
449.404	0.0402
449.718	0.0396
450.031	0.0392
450.345	0.0398
450.658	0.0395
450.971	0.0399
451.284	0.0392
451.597	0.0399
451.91	0.0392
452.223	0.0391
452.535	0.039
452.848	0.0389
453.161	0.0393
453.473	0.0389
453.786	0.0385
454.098	0.0386
454.411	0.0386
454.723	0.0386
455.035	0.0377
455.347	0.037
455.659	0.0381
455.971	0.0385
456.283	0.0381
456.595	0.0376
456.907	0.038
457.218	0.0384
457.53	0.0365
457.841	0.0369
458.153	0.0372
458.464	0.0364
458.776	0.0368
459.087	0.0367
459.398	0.0361
459.709	0.0354
460.02	0.036
460.331	0.0364
460.642	0.0358
460.953	0.0355
461.263	0.0358
461.574	0.0353
461.885	0.0354
462.195	0.034
462.506	0.0348
462.816	0.035
463.126	0.0345
463.437	0.0339
463.747	0.0338
464.057	0.0329
464.367	0.0325
464.677	0.0339
464.987	0.0335
465.296	0.0327
465.606	0.0328
465.916	0.0318
466.225	0.0332
466.535	0.0327
466.844	0.033
467.154	0.0329
467.463	0.0324
467.772	0.0314
468.081	0.0323
468.39	0.0319
468.699	0.0313
469.008	0.0312
469.317	0.0308
469.626	0.0307
469.935	0.0296
470.243	0.0303
470.552	0.0298
470.86	0.0301
471.169	0.0292
471.477	0.0289
471.785	0.0292
472.093	0.0286
472.402	0.0285
472.71	0.0283
473.018	0.028
473.326	0.0282
473.633	0.0282
473.941	0.0274
474.249	0.0279
474.556	0.0273
474.864	0.0284
475.171	0.0274
475.479	0.0267
475.786	0.0271
476.094	0.0264
476.401	0.0265
476.708	0.0264
477.015	0.026
477.322	0.0251
477.629	0.0246
477.936	0.0252
478.242	0.0252
478.549	0.025
478.856	0.0248
479.162	0.0246
479.469	0.024
479.775	0.0242
480.081	0.0234
480.388	0.0226
480.694	0.0238
481	0.023
481.306	0.0224
481.612	0.0234
481.918	0.0239
482.224	0.0227
482.53	0.0225
482.835	0.0228
483.141	0.0228
483.446	0.0225
483.752	0.0219
484.057	0.0212
484.363	0.0221
484.668	0.0223
484.973	0.0211
485.278	0.0207
485.583	0.0198
485.888	0.021
486.193	0.0203
486.498	0.0206
486.803	0.0201
487.107	0.0193
487.412	0.019
487.717	0.0198
488.021	0.0198
488.325	0.0191
488.63	0.019
488.934	0.0191
489.238	0.0186
489.542	0.0186
489.846	0.018
490.15	0.0176
490.454	0.0188
490.758	0.0181
491.062	0.0175
491.366	0.0172
491.669	0.017
491.973	0.0172
492.276	0.017
492.58	0.017
492.883	0.0167
493.186	0.0161
493.489	0.0174
493.792	0.0157
494.096	0.0153
494.399	0.0158
494.701	0.0156
495.004	0.0151
495.307	0.0149
495.61	0.0155
495.912	0.0155
496.215	0.0157
496.517	0.0159
496.82	0.0146
497.122	0.0142
497.424	0.014
497.727	0.0138
498.029	0.0132
498.331	0.0136
498.633	0.0138
498.935	0.0129
499.237	0.0139
499.538	0.0128
499.84	0.0126
500.142	0.0125
500.443	0.0132
500.745	0.0126
501.046	0.0124
501.348	0.0108
501.649	0.0114
501.95	0.0125
502.251	0.0121
502.552	0.0116
502.853	0.0126
503.154	0.0125
503.455	0.0119
503.756	0.0119
504.057	0.0106
504.357	0.0114
504.658	0.0114
504.958	0.0112
505.259	0.0107
505.559	0.0102
505.859	0.0091
506.16	0.0106
506.46	0.01
506.76	0.0103
507.06	0.0093
507.36	0.0083
507.66	0.0095
507.96	0.0112
508.259	0.0093
508.559	0.0097
508.859	0.0091
509.158	0.0092
509.457	0.0085
509.757	0.0084
510.056	0.0095
510.355	0.0087
510.655	0.0092
510.954	0.0089
511.253	0.0081
511.552	0.0088
511.851	0.0077
512.149	0.0084
512.448	0.0078
512.747	0.0075
513.045	0.0079
513.344	0.0075
513.642	0.0076
513.941	0.008
514.239	0.008
514.537	0.0076
514.836	0.0076
515.134	0.0074
515.432	0.0076
515.73	0.0075
516.028	0.0071
516.326	0.0064
516.623	0.0055
516.921	0.0064
517.219	0.0078
517.516	0.0058
517.814	0.0068
518.111	0.0066
518.409	0.0069
518.706	0.0072
519.003	0.0059
519.3	0.0061
519.597	0.0059
519.894	0.0056
520.191	0.0058
520.488	0.0073
520.785	0.0057
521.082	0.006
521.378	0.0056
521.675	0.0051
521.971	0.0049
522.268	0.0058
522.564	0.0065
522.861	0.0069
523.157	0.0056
523.453	0.0058
523.749	0.0049
524.045	0.0056
524.341	0.005
524.637	0.0048
524.933	0.0062
525.229	0.0054
525.524	0.005
525.82	0.0055
526.115	0.0052
526.411	0.0057
526.706	0.005
527.002	0.0054
527.297	0.005
527.592	0.0056
527.887	0.0051
528.182	0.0041
528.477	0.0048
528.772	0.0036
529.067	0.0049
529.362	0.0052
529.657	0.0047
529.951	0.0037
530.246	0.0032
530.54	0.0032
530.835	0.0039
531.129	0.0043
531.423	0.0037
531.718	0.0027
532.012	0.0036
532.306	0.0041
532.6	0.0028
532.894	0.0043
533.188	0.0026
533.482	0.0043
533.775	0.0035
534.069	0.0044
534.363	0.0031
534.656	0.0036
534.95	0.0038
535.243	0.0031
535.536	0.0034
535.83	0.0029
536.123	0.0028
536.416	0.0029
536.709	0.0043
537.002	0.0045
537.295	0.0036
537.588	0.0037
537.881	0.0033
538.173	0.0038
538.466	0.0035
538.759	0.0038
539.051	0.0031
539.344	0.0043
539.636	0.0027
539.928	0.0047
540.22	0.003
540.513	0.0039
540.805	0.0055
541.097	0.0042
541.389	0.0043
541.681	0.0039
541.972	0.0028
542.264	0.0043
542.556	0.0044
542.847	0.0033
543.139	0.0039
543.431	0.0039
543.722	0.0034
544.013	0.0035
544.305	0.0032
544.596	0.0039
544.887	0.0045
545.178	0.0051
545.469	0.0049
545.76	0.004
546.051	0.0046
546.342	0.0036
546.632	0.0034
546.923	0.0037
547.214	0.0029
547.504	0.0049
547.795	0.0032
548.085	0.0038
548.375	0.0037
548.666	0.0037
548.956	0.0035
549.246	0.0047
549.536	0.0034
549.826	0.0046
550.116	0.0039
550.406	0.0034
550.695	0.0039
550.985	0.0042
551.275	0.0042
551.564	0.0056
551.854	0.0046
552.143	0.0037
552.433	0.0044
552.722	0.0036
553.011	0.0042
553.3	0.0036
553.589	0.0048
553.879	0.0035
554.167	0.0028
554.456	0.0033
554.745	0.0032
555.034	0.0052
555.323	0.0036
555.611	0.0039
555.9	0.0038
556.188	0.0036
556.477	0.0023
556.765	0.0037
557.053	0.0032
557.342	0.0028
557.63	0.0026
557.918	0.0042
558.206	0.0039
558.494	0.0036
558.782	0.0044
559.069	0.0049
559.357	0.0039
559.645	0.0044
559.932	0.0033
560.22	0.0038
560.507	0.0027
560.795	0.0023
561.082	0.0029
561.37	0.0032
561.657	0.003
561.944	0.0029
562.231	0.0033
562.518	0.0031
562.805	0.0043
563.092	0.0036
563.379	0.0044
563.665	0.0035
563.952	0.0049
564.239	0.0049
564.525	0.0034
564.811	0.0041
565.098	0.0035
565.384	0.0036
565.67	0.0035
565.957	0.0036
566.243	0.0036
566.529	0.0034
566.815	0.0033
567.101	0.0038
567.387	0.0032
567.672	0.0036
567.958	0.003
568.244	0.0023
568.529	0.0029
568.815	0.0026
569.1	0.0028
569.386	0.0037
569.671	0.0033
569.956	0.0036
570.242	0.0038
570.527	0.0026
570.812	0.0024
571.097	0.0032
571.382	0.002
571.666	0.0028
571.951	0.0041
572.236	0.0036
572.521	0.003
572.805	0.0041
573.09	0.0033
573.374	0.003
573.659	0.003
573.943	0.0035
574.227	0.0036
574.511	0.0029
574.795	0.0036
575.079	0.004
575.363	0.0028
575.647	0.0029
575.931	0.0034
576.215	0.0031
576.499	0.0029
576.782	0.0025
577.066	0.0026
577.349	0.0035
577.633	0.0041
577.916	0.003
578.2	0.0036
578.483	0.0038
578.766	0.0043
579.049	0.0029
579.332	0.0038
579.615	0.0034
579.898	0.0031
580.181	0.0036
580.464	0.0042
580.746	0.0034
581.029	0.0033
581.312	0.0032
581.594	0.0023
581.877	0.0026
582.159	0.0046
582.441	0.0022
582.724	0.0034
583.006	0.0037
583.288	0.003
583.57	0.0028
583.852	0.0042
584.134	0.0042
584.416	0.0033
584.697	0.0037
584.979	0.0035
585.261	0.0031
585.542	0.0029
585.824	0.0042
586.105	0.003
586.387	0.0033
586.668	0.0038
586.949	0.0033
587.231	0.0036
587.512	0.0036
587.793	0.0031
588.074	0.0029
588.355	0.0035
588.636	0.0032
588.916	0.0038
589.197	0.0024
589.478	0.003
589.758	0.0033
590.039	0.0025
590.319	0.0026
590.6	0.0029
590.88	0.0024
591.16	0.0021
591.441	0.0035
591.721	0.0022
592.001	0.0017
592.281	0.0033
592.561	0.0033
592.841	0.003
593.12	0.0025
593.4	0.003
593.68	0.0028
593.959	0.0031
594.239	0.0032
594.518	0.0037
594.798	0.0035
595.077	0.0024
595.356	0.0033
595.636	0.0029
595.915	0.003
596.194	0.003
596.473	0.0029
596.752	0.0027
597.031	0.0032
597.31	0.0026
597.588	0.0023
597.867	0.0024
598.146	0.0018
598.424	0.0017
598.703	0.0028
598.981	0.0018
599.259	0.0022
599.538	0.0037
599.816	0.0037
600.094	0.0035
600.372	0.0027
600.65	0.0038
600.928	0.004
601.206	0.0027
601.484	0.003
601.762	0.0032
602.04	0.0037
602.317	0.0024
602.595	0.004
602.872	0.0032
603.15	0.0042
603.427	0.002
603.704	0.0023
603.982	0.0024
604.259	0.0023
604.536	0.0018
604.813	0.0029
605.09	0.0025
605.367	0.002
605.644	0.0021
605.921	0.002
606.197	0.0016
606.474	0.0028
606.751	0.0026
607.027	0.0026
607.304	0.003
607.58	0.0029
607.856	0.0038
608.133	0.0042
608.409	0.0039
608.685	0.0031
608.961	0.0034
609.237	0.0031
609.513	0.0043
609.789	0.0021
610.065	0.0025
610.341	0.0018
610.616	0.0019
610.892	0.0024
611.167	0.0027
611.443	0.0033
611.718	0.0031
611.994	0.0025
612.269	0.0022
612.544	0.0022
612.819	0.0026
613.095	0.0029
613.37	0.0022
613.645	0.0017
613.919	0.0026
614.194	0.0023
614.469	0.0034
614.744	0.003
615.019	0.0022
615.293	0.0024
615.568	0.0026
615.842	0.0013
616.116	0.0017
616.391	0.0015
616.665	0.0008
616.939	0.0008
617.213	0.0018
617.488	0.0025
617.762	0.0021
618.035	0.003
618.309	0.0025
618.583	0.0019
618.857	0.0024
619.131	0.002
619.404	0.0018
619.678	0.0027
619.951	0.0021
620.225	0.0013
620.498	0.0019
620.771	0.0014
621.045	0.0013
621.318	0.0019
621.591	0.0021
621.864	0.0016
622.137	0.0012
622.41	0.0015
622.683	0.0017
622.956	0.0012
623.228	0.0016
623.501	0.0017
623.774	0.002
624.046	0.0013
624.319	0.0016
624.591	0.001
624.863	0.0021
625.136	0.0017
625.408	0.0038
625.68	0.0021
625.952	0.0017
626.224	0.0024
626.496	0.0016
626.768	0.002
627.04	0.002
627.311	0.0009
627.583	0.0022
627.855	0.0021
628.126	0.0004
628.398	0.0006
628.669	0.0013
628.941	-0.0001
629.212	-0.0006
629.483	0.0013
629.755	-0.0003
630.026	0.0003
630.297	-0
630.568	0.0004
630.839	0.001
631.11	0.0008
631.38	0.0011
631.651	0.001
631.922	0.0019
632.192	0.0001
632.463	0.001
632.733	-0.0001
633.004	0.0009
633.274	0.0004
633.545	-0.0002
633.815	0.0018
634.085	0.0009
634.355	0.0007
634.625	0.0014
634.895	0.0006
635.165	0.0008
635.435	0.0016
635.705	0.0017
635.974	0.0007
636.244	0.0002
636.514	-0.0002
636.783	-0.0003
637.053	0.0003
637.322	-0.0007
637.591	-0.0006
637.861	-0.0018
638.13	-0.0008
638.399	0.0005
638.668	-0.0003
638.937	0.0008
639.206	0.0003
639.475	0.001
639.744	0.0006
640.013	0.0005
640.281	0.0006
640.55	0.0011
640.819	0.0008
641.087	0.0005
641.356	0.0006
641.624	0.0014
641.892	0.0008
642.161	0.0012
642.429	0.0002
642.697	0.0007
642.965	0.0005
643.233	-0.0006
643.501	-0.0008
643.769	-0.0002
644.037	-0.0007
644.305	-0.0015
644.572	-0.0005
644.84	-0.0011
645.108	0.0002
645.375	-0.0003
645.643	0.0009
645.91	0.0006
646.177	0.0007
646.445	0.0003
646.712	0.0007
646.979	0.0004
647.246	0.0014
647.513	0
647.78	0.0013
648.047	-0.0014
648.314	-0.0003
648.58	-0.0007
648.847	-0.001
649.114	-0.0024
649.38	-0.0005
649.647	-0.0014
649.913	-0.0014
650.18	0.0002
650.446	0.0013
650.712	0.0015
650.978	0.002
651.245	0.0032
651.511	0.0033
651.777	0.0029
652.043	0.0012
652.309	0.0013
652.574	0.0002
652.84	0.0015
653.106	0.0022
653.371	0.0028
653.637	0.0022
653.903	0.002
654.168	0.0017
654.433	0.0011
654.699	0.0009
654.964	-0.0003
655.229	0
655.494	0.0016
655.759	0.002
656.024	0.0003
656.289	-0
656.554	0.0036
656.819	0.0029
657.084	0.002
657.349	0.0019
657.613	0.0012
657.878	-0.0001
658.142	0.0004
658.407	0.0004
658.671	0.0005
658.936	-0.0004
659.2	0.0007
659.464	0.0004
659.728	0.0012
659.992	-0.0002
660.256	-0.0017
660.52	-0.0009
660.784	-0.0003
661.048	-0.0009
661.312	-0.0008
661.575	-0.0007
661.839	0.0001
662.103	-0.0012
662.366	0.0002
662.63	0.0001
662.893	-0.0002
663.156	0.0006
663.42	0.0015
663.683	-0.0001
663.946	0.0013
664.209	0.0017
664.472	0.0008
664.735	0.0014
664.998	0.002
665.261	0.0023
665.524	0.0018
665.786	0.0019
666.049	0.0019
666.312	0.0011
666.574	0.0008
666.837	0.0021
667.099	0.0018
667.361	0.0023
667.624	0.002
667.886	0.0026
668.148	0.0013
668.41	0.0016
668.672	0.0012
668.934	0.0016
669.196	0.0004
669.458	-0.0011
669.72	-0.0001
669.982	-0.0009
670.243	-0.0008
670.505	-0.0001
670.766	-0.0004
671.028	0.0003
671.289	0.001
671.551	0.0012
671.812	-0.0001
672.073	0.0004
672.334	0.0002
672.596	0.0003
672.857	0.0004
673.118	0.0011
673.379	0.0019
673.639	0.0018
673.9	0.0011
674.161	0.0007
674.422	0.0012
674.682	-0.0004
674.943	-0.0007
675.203	-0.0002
675.464	-0.0003
675.724	0.0005
675.985	0.0007
676.245	0.0004
676.505	-0.0005
676.765	-0.0002
677.025	0.001
677.285	-0.0006
677.545	-0.0002
677.805	-0.0003
678.065	0.0008
678.325	0.0015
678.585	0.0021
678.844	0.0024
679.104	0.0036
679.363	0.0029
679.623	0.0033
679.882	0.0032
680.142	0.004
680.401	0.0041
680.66	0.0037
680.919	0.0019
681.178	0.0032
681.437	0.0024
681.696	0.0018
681.955	0.0045
682.214	0.0045
682.473	0.0041
682.732	0.0016
682.99	0.0036
683.249	0.0034
683.508	0.0034
683.766	0.0031
684.024	0.0023
684.283	0.001
684.541	0.0007
684.799	0.0011
685.058	-0.001
685.316	-0.0004
685.574	-0.0008
685.832	-0.0002
686.09	0.0012
686.348	-0.0014
686.606	-0.0006
686.863	-0.0022
687.121	-0.0025
687.379	-0.0036
687.636	-0.0035
687.894	-0.003
688.151	-0.0034
688.409	-0.0023
688.666	-0.0021
688.923	-0.0015
689.181	-0.0013
689.438	-0.0024
689.695	-0.0011
689.952	-0.0001
690.209	-0.0008
690.466	-0.0009
690.723	-0.0004
690.979	-0.0014
691.236	-0.002
691.493	-0.0032
691.75	-0.002
692.006	-0.0019
692.263	-0.0012
692.519	-0.0013
692.775	-0.0023
693.032	-0.0024
693.288	-0.003
693.544	-0.0019
693.8	-0.0009
694.056	-0.002
694.313	-0.0027
694.568	-0.0016
694.824	-0.0022
695.08	-0.0014
695.336	-0.0009
695.592	-0.0011
695.847	-0
696.103	0.0008
696.359	0.0011
696.614	0.0012
696.869	-0.0001
697.125	-0.0006
697.38	-0.0004
697.635	-0.0002
697.891	0.0009
698.146	-0.0002
698.401	-0.0011
698.656	-0.0017
698.911	0.0006
699.166	-0.0012
699.42	0.0003
699.675	0.0011
699.93	0.0019
700.185	0.002
700.439	0.0009
700.694	0.0005
700.948	0.0002
701.203	0.0009
701.457	0.0005
701.711	0.0006
701.965	-0.0001
702.22	-0.0002
702.474	0.0002
702.728	-0.0006
702.982	0.0001
703.236	-0.0003
703.49	-0.0004
703.743	-0.0019
703.997	-0.0011
704.251	-0.0011
704.504	0.0014
704.758	0.001
705.012	0.0017
705.265	0.0016
705.518	-0.0002
705.772	0.0009
706.025	0.0013
706.278	0.0005
706.531	-0
706.785	-0.0013
707.038	-0.0013
707.291	-0.0002
707.543	-0.0002
707.796	0.0002
708.049	0.0007
708.302	0.0001
708.555	-0.0001
708.807	0.001
709.06	0.0003
709.312	0.0019
709.565	0.0009
709.817	0.003
710.069	0.0012
710.322	0.0027
710.574	0.0028
710.826	0.0024
711.078	0.0024
711.33	0.001
711.582	0.0014
711.834	0.0009
712.086	0.0011
712.338	0.0009
712.59	0.0002
712.841	-0.0004
713.093	-0.0001
713.344	0.0003
713.596	-0.001
713.847	-0.0018
714.099	-0.0019
714.35	-0.0015
714.601	-0.0032
714.853	-0.0027
715.104	-0.0027
715.355	-0.0024
715.606	-0.0003
715.857	-0.0005
716.108	-0.0002
716.359	0
716.609	-0.0012
716.86	0.0001
717.111	-0.0011
717.361	0.0003
717.612	-0.0011
717.863	-0.0001
718.113	0.0008
718.363	0.0008
718.614	0.0014
718.864	0.0016
719.114	0.0007
719.364	-0.0006
719.614	0.0001
719.865	0.0002
720.114	0.0002
720.364	-0.0001
720.614	-0.0006
720.864	-0.0008
721.114	-0.002
721.364	-0.0017
721.613	-0.0022
721.863	-0.0017
722.112	-0.0014
722.362	-0.0015
722.611	0.0001
722.86	-0.0004
723.11	0.0006
723.359	0.001
723.608	0.0012
723.857	0.0026
724.106	0.0015
724.355	0.0007
724.604	0.0006
724.853	-0.0006
725.102	-0.0012
725.351	-0.0023
725.599	-0.0033
725.848	-0.0018
726.097	-0.0014
726.345	-0.0021
726.594	-0.0019
726.842	-0.0006
727.09	-0.0014
727.339	-0.0017
727.587	-0.0011
727.835	-0.0035
728.083	-0.0029
728.331	-0.0029
728.579	-0.0024
728.827	-0.0018
729.075	-0.0031
729.323	-0.0031
729.571	-0.0027
729.818	-0.0034
730.066	-0.0024
730.314	-0.002
730.561	-0.0023
730.809	-0.0039
731.056	-0.0031
731.303	-0.0023
731.551	-0.0025
731.798	-0.0025
732.045	-0.0016
732.292	-0.003
732.539	-0.0026
732.786	-0.0035
733.033	-0.0025
733.28	-0.0018
733.527	-0.0023
733.774	-0.0027
734.021	-0.0027
734.267	-0.002
734.514	-0.0019
734.76	-0.0017
735.007	-0.0018
735.253	-0.002
735.5	0.0005
735.746	0.0013
735.992	0.0009
736.238	0.0012
736.485	0.0005
736.731	0.0013
736.977	-0.0003
737.223	-0.0004
737.469	-0.0008
737.715	0.0003
737.96	0.0004
738.206	-0.0004
738.452	0.0001
738.697	-0.001
738.943	-0.0014
739.189	-0.0008
739.434	-0.001
739.679	-0.0002
739.925	0.0017
740.17	0.0015
740.415	0.0005
740.66	0.0013
740.906	0.0009
741.151	0.0011
741.396	0
741.641	-0.0009
741.886	-0.0004
742.13	-0
742.375	0.0009
742.62	-0.0003
742.865	0.0007
743.109	0.0007
743.354	-0.0001
743.598	-0.0011
743.843	-0.0024
744.087	-0.0032
744.331	-0.0037
744.576	-0.0027
744.82	-0.0024
745.064	-0.002
745.308	-0.0014
745.552	-0.0015
745.796	-0.0024
746.04	-0.0013
746.284	-0.0026
746.528	-0.0016
746.771	-0.0018
747.015	-0.0015
747.259	-0.0023
747.502	-0.0023
747.746	-0.0027
747.989	-0.002
748.233	-0.0013
748.476	-0.0011
748.719	-0.0008
748.963	-0.0012
749.206	-0.0012
749.449	-0.0019
749.692	-0.0017
749.935	-0.0018
750.178	-0.0019
750.421	-0.0018
750.664	-0.0016
750.906	-0.0017
751.149	-0.0025
751.392	-0.0019
751.635	-0.001
751.877	-0.0019
752.12	-0.0026
752.362	-0.0008
752.604	-0.0009
752.847	-0.0017
753.089	-0.0015
753.331	-0.0024
753.573	-0.0026
753.816	-0.0007
754.058	-0.0014
754.3	-0.0011
754.542	-0.0003
754.783	0.0002
755.025	0.0008
755.267	0.0004
755.509	0
755.75	-0.0013
755.992	-0.0006
756.234	-0.0013
756.475	-0.0005
756.716	-0.0019
756.958	-0.0014
757.199	-0.0012
757.44	-0.0011
757.682	-0.0016
757.923	-0.0002
758.164	-0.0011
758.405	-0.0011
758.646	-0.001
758.887	-0.0024
759.128	-0.0026
759.369	-0.0035
759.609	-0.0023
759.85	-0.0014
760.091	-0.0014
760.331	-0.0006
760.572	-0.0007
760.812	-0.0012
761.053	-0.0009
761.293	-0.0005
761.533	0.0008
761.774	0.0002
762.014	-0.0002
762.254	0.0007
762.494	0.0005
762.734	0.0004
762.974	0.0012
763.214	0.0008
763.454	0.0008
763.694	0.0003
763.933	0.002
764.173	0.0028
764.413	0.0026
764.652	0.0013
764.892	0.0011
765.131	-0.0001
765.371	-0.0008
765.61	-0.0016
765.849	-0.0032
766.089	-0.0038
766.328	-0.0032
766.567	-0.0045
766.806	-0.0044
767.045	-0.0058
767.284	-0.0045
767.523	-0.0036
767.762	-0.0049
768.001	-0.0043
768.239	-0.0031
768.478	-0.0032
768.717	-0.0035
768.955	-0.004
769.194	-0.0039
769.432	-0.0032
769.671	-0.0025
769.909	-0.0026
770.148	-0.0028
770.386	-0.0029
770.624	-0.0024
770.862	-0.0031
771.1	-0.0036
771.338	-0.0036
771.576	-0.0018
771.814	-0.0011
772.052	-0.0019
772.29	-0.0003
772.528	-0.0017
772.765	-0.0024
773.003	-0.0019
773.24	-0.001
773.478	-0.0019
773.716	-0.0004
773.953	0
774.19	0.0008
774.428	0.0004
774.665	0.0019
774.902	0.0015
775.139	0.0017
775.376	-0.0001
775.613	0.0004
775.85	-0.0002
776.087	-0.0007
776.324	-0.0006
776.561	-0.0023
776.798	-0.0024
777.034	-0.0025
777.271	-0.0019
777.508	-0.002
777.744	-0.0012
777.981	-0.0013
778.217	-0.0026
778.454	-0.0036
778.69	-0.003
778.926	-0.0032
779.162	-0.0027
779.399	-0.0017
779.635	-0.0018
779.871	-0.0014
780.107	-0.0026
780.343	-0.0038
780.579	-0.0032
780.814	-0.0021
781.05	-0.0025
781.286	-0.0025
781.522	-0.0027
781.757	-0.0029
781.993	-0.0018
782.228	-0.003
782.464	-0.0014
782.699	-0.0022
782.934	-0.0019
783.17	-0.0014
783.405	-0.0016
783.64	-0.002
783.875	-0.0024
784.11	-0.0025
784.345	-0.0025
784.58	-0.0023
784.815	-0.0025
785.05	-0.0022
785.285	-0.0026
785.52	-0.001
785.754	-0.0013
785.989	-0.001
786.223	-0.0002
786.458	0
786.692	0.0009
786.927	0.0021
787.161	0.0013
787.396	0.0018
787.63	0.0009
787.864	0.0002
788.098	-0.0015
788.332	-0.0014
788.566	-0.0015
788.8	-0.0014
789.034	-0.0005
789.268	-0.002
789.502	-0.0019
789.736	-0.002
789.969	-0.0026
790.203	-0.0017
790.437	-0.0012
790.67	-0.002
790.904	-0.0001
791.137	-0.0002
791.37	-0.0008
791.604	-0.0003
791.837	0.0008
792.07	0.0018
792.303	0.0014
792.537	0.0033
792.77	0.0031
793.003	0.0028
793.236	0.0022
793.469	0.0015
793.701	0.0013
793.934	0.0015
794.167	0.0006
794.4	0.0006
794.632	0.0003
794.865	-0.001
795.097	-0.001
795.33	-0.0008
795.562	-0.0005
795.795	-0.001
796.027	-0.0003
796.259	0.0011
796.491	0.0008
796.724	0.0015
796.956	0.0016
797.188	0.0019
797.42	0.0013
797.652	0.0014
797.883	0.0014
798.115	0.002
798.347	0.0017
798.579	0.0007
798.81	0.0005
799.042	0.0008
799.274	0.0027
799.505	0.0022
799.737	0.0024
799.968	0.0021
800.199	0.001
800.431	0.0025
800.662	0.0008
800.893	0.0022
801.124	0.0016
801.355	0.0018
801.586	0.0029
801.817	0.004
802.048	0.0033
802.279	0.0028
802.51	0.0024
802.741	0.0033
802.971	0.0027
803.202	0.0021
803.433	0.002
803.663	0.0022
803.894	0.0019
804.124	0.0021
804.354	0.0032
804.585	0.0043
804.815	0.0049
805.045	0.0054
805.275	0.0036
805.506	0.0531
805.736	-0.1465
805.966	-0.3455
806.196	-0.1703
