Data from 03 0.2 mM BQDS 0.4 mM K2Cr2O7 1 M H2SO4 5 min_Absorbance_13-37-42-720.txt Node
Date: Wed Dec 08 13:37:42 EST 2021
User: kwabilab-user
Spectrometer: HDX00518
Trigger mode: 0
Integration Time (sec): 5.000000E-2
Scans to average: 50
Nonlinearity correction enabled: false
Boxcar width: 0
Storing dark spectrum: false
XAxis mode: Wavelengths
Number of Pixels in Spectrum: 2068
>>>>>Begin Spectral Data<<<<<
195.27	0.2031
195.642	0.1601
196.014	0.2278
196.386	0.0696
196.758	0.0513
197.129	0.0321
197.501	0.0512
197.872	0.109
198.244	0.1201
198.615	0.1236
198.986	0.1204
199.357	0.0923
199.728	0.1174
200.099	0.1152
200.47	0.1147
200.841	0.1065
201.212	0.1051
201.582	0.0999
201.953	0.1117
202.323	0.107
202.694	0.1044
203.064	0.1079
203.434	0.1001
203.804	0.1285
204.174	0.1184
204.544	0.1175
204.914	0.1245
205.284	0.1146
205.653	0.1169
206.023	0.1254
206.393	0.1258
206.762	0.1258
207.131	0.1339
207.501	0.1244
207.87	0.1359
208.239	0.1158
208.608	0.1158
208.977	0.1427
209.346	0.1395
209.715	0.1271
210.083	0.1407
210.452	0.1437
210.82	0.1431
211.189	0.1601
211.557	0.1421
211.925	0.1536
212.294	0.1676
212.662	0.1655
213.03	0.1734
213.398	0.1574
213.766	0.1802
214.133	0.1945
214.501	0.2022
214.869	0.205
215.236	0.2304
215.604	0.2093
215.971	0.2292
216.338	0.2647
216.705	0.2691
217.072	0.3027
217.439	0.3156
217.806	0.347
218.173	0.3734
218.54	0.4084
218.907	0.4565
219.273	0.4929
219.64	0.5161
220.006	0.5458
220.373	0.5825
220.739	0.6264
221.105	0.6587
221.471	0.6921
221.837	0.7343
222.203	0.7683
222.569	0.7992
222.935	0.8282
223.3	0.8523
223.666	0.8932
224.031	0.9081
224.397	0.9279
224.762	0.9463
225.127	0.9651
225.493	0.974
225.858	0.9813
226.223	1.0013
226.588	1.0087
226.952	1.0086
227.317	1.0103
227.682	1.0068
228.046	1.0035
228.411	1.0126
228.775	1.0032
229.14	1.0029
229.504	0.997
229.868	0.995
230.232	0.9827
230.596	0.97
230.96	0.9747
231.324	0.9614
231.688	0.9526
232.052	0.9476
232.415	0.9341
232.779	0.9341
233.142	0.9241
233.505	0.9122
233.869	0.9056
234.232	0.8918
234.595	0.8795
234.958	0.8746
235.321	0.8646
235.684	0.8558
236.047	0.8436
236.409	0.8331
236.772	0.8258
237.134	0.8195
237.497	0.8062
237.859	0.8005
238.222	0.7934
238.584	0.7844
238.946	0.7728
239.308	0.7704
239.67	0.7568
240.032	0.7517
240.393	0.7444
240.755	0.7367
241.117	0.7292
241.478	0.7266
241.84	0.7168
242.201	0.7089
242.562	0.704
242.924	0.6995
243.285	0.694
243.646	0.6833
244.007	0.6812
244.368	0.6751
244.728	0.6705
245.089	0.6654
245.45	0.6581
245.81	0.657
246.171	0.6497
246.531	0.6473
246.891	0.6398
247.252	0.6377
247.612	0.6349
247.972	0.632
248.332	0.6285
248.692	0.6248
249.051	0.6206
249.411	0.6186
249.771	0.6123
250.13	0.6123
250.49	0.6096
250.849	0.6077
251.208	0.6042
251.568	0.6014
251.927	0.6008
252.286	0.5978
252.645	0.5963
253.004	0.5917
253.363	0.5893
253.721	0.589
254.08	0.5864
254.439	0.5852
254.797	0.5823
255.155	0.5815
255.514	0.5785
255.872	0.5787
256.23	0.5737
256.588	0.5726
256.946	0.5712
257.304	0.5714
257.662	0.5687
258.02	0.5674
258.377	0.5647
258.735	0.5629
259.093	0.5616
259.45	0.5618
259.807	0.5578
260.165	0.5578
260.522	0.5549
260.879	0.5527
261.236	0.5514
261.593	0.5487
261.95	0.5462
262.306	0.5452
262.663	0.5432
263.02	0.5414
263.376	0.5402
263.733	0.537
264.089	0.5358
264.445	0.5335
264.802	0.5319
265.158	0.5295
265.514	0.5274
265.87	0.526
266.226	0.5219
266.581	0.5207
266.937	0.5182
267.293	0.5172
267.648	0.5159
268.004	0.5131
268.359	0.5105
268.714	0.5078
269.07	0.5037
269.425	0.5011
269.78	0.4994
270.135	0.4966
270.49	0.4961
270.844	0.494
271.199	0.49
271.554	0.4888
271.908	0.484
272.263	0.4819
272.617	0.4813
272.972	0.4769
273.326	0.4742
273.68	0.4713
274.034	0.468
274.388	0.4667
274.742	0.4618
275.096	0.4599
275.45	0.4566
275.803	0.4537
276.157	0.4495
276.51	0.446
276.864	0.4436
277.217	0.4411
277.571	0.4368
277.924	0.4343
278.277	0.4296
278.63	0.4276
278.983	0.423
279.336	0.4201
279.688	0.4176
280.041	0.4132
280.394	0.4091
280.746	0.4076
281.099	0.4027
281.451	0.3977
281.803	0.394
282.156	0.392
282.508	0.3875
282.86	0.3833
283.212	0.3795
283.564	0.3765
283.916	0.3727
284.267	0.3694
284.619	0.3654
284.971	0.3618
285.322	0.3583
285.673	0.3542
286.025	0.3517
286.376	0.347
286.727	0.3438
287.078	0.3394
287.429	0.3368
287.78	0.3317
288.131	0.3278
288.482	0.3246
288.833	0.3216
289.183	0.3171
289.534	0.3138
289.884	0.3095
290.235	0.3059
290.585	0.3015
290.935	0.2985
291.285	0.2939
291.635	0.2905
291.985	0.287
292.335	0.2833
292.685	0.2802
293.035	0.2759
293.384	0.2726
293.734	0.2686
294.083	0.2648
294.433	0.2615
294.782	0.2581
295.131	0.2542
295.48	0.2512
295.829	0.2484
296.179	0.244
296.527	0.2408
296.876	0.2382
297.225	0.2357
297.574	0.2315
297.922	0.2285
298.271	0.2256
298.619	0.2218
298.968	0.2194
299.316	0.2165
299.664	0.2138
300.012	0.211
300.36	0.2079
300.708	0.2046
301.056	0.202
301.404	0.2001
301.752	0.1978
302.099	0.1955
302.447	0.1936
302.794	0.1904
303.142	0.1886
303.489	0.1864
303.836	0.1841
304.183	0.1823
304.531	0.1806
304.878	0.1781
305.224	0.1764
305.571	0.1753
305.918	0.1732
306.265	0.1716
306.611	0.1701
306.958	0.1696
307.304	0.1678
307.651	0.1669
307.997	0.1651
308.343	0.164
308.689	0.1629
309.035	0.1621
309.381	0.1604
309.727	0.1594
310.073	0.1593
310.419	0.1585
310.764	0.1577
311.11	0.1572
311.455	0.1566
311.801	0.1559
312.146	0.1553
312.491	0.1546
312.837	0.1546
313.182	0.1543
313.527	0.1542
313.872	0.1531
314.216	0.1535
314.561	0.1533
314.906	0.1532
315.251	0.1537
315.595	0.1527
315.94	0.1534
316.284	0.1536
316.628	0.1526
316.972	0.1527
317.317	0.1533
317.661	0.1542
318.005	0.1542
318.348	0.1544
318.692	0.1551
319.036	0.1548
319.38	0.1559
319.723	0.1562
320.067	0.1563
320.41	0.1572
320.754	0.158
321.097	0.1592
321.44	0.1595
321.783	0.1598
322.126	0.1606
322.469	0.1618
322.812	0.1623
323.155	0.1634
323.498	0.1642
323.84	0.1652
324.183	0.1662
324.525	0.167
324.868	0.1682
325.21	0.1687
325.552	0.1702
325.894	0.1703
326.236	0.1716
326.578	0.1731
326.92	0.1738
327.262	0.1748
327.604	0.1759
327.946	0.1769
328.287	0.1784
328.629	0.1798
328.97	0.18
329.312	0.1822
329.653	0.1828
329.994	0.184
330.335	0.1853
330.676	0.1863
331.017	0.1874
331.358	0.1885
331.699	0.1902
332.04	0.1915
332.38	0.1922
332.721	0.1942
333.061	0.1946
333.402	0.1962
333.742	0.1977
334.083	0.1987
334.423	0.1994
334.763	0.2001
335.103	0.2014
335.443	0.2024
335.783	0.2037
336.123	0.2038
336.462	0.2055
336.802	0.2064
337.141	0.2073
337.481	0.2083
337.82	0.2082
338.16	0.2094
338.499	0.2103
338.838	0.2118
339.177	0.213
339.516	0.2137
339.855	0.2152
340.194	0.2159
340.533	0.2166
340.872	0.2173
341.21	0.2183
341.549	0.2186
341.887	0.2192
342.226	0.22
342.564	0.2196
342.902	0.2204
343.24	0.2208
343.578	0.2208
343.916	0.2211
344.254	0.2212
344.592	0.2217
344.93	0.2217
345.268	0.2219
345.605	0.2218
345.943	0.2221
346.28	0.2227
346.618	0.2228
346.955	0.2223
347.292	0.2231
347.629	0.223
347.966	0.2233
348.303	0.2229
348.64	0.2225
348.977	0.2227
349.314	0.2233
349.65	0.2229
349.987	0.2228
350.324	0.2229
350.66	0.2216
350.996	0.222
351.333	0.2208
351.669	0.2199
352.005	0.2196
352.341	0.2194
352.677	0.2187
353.013	0.2171
353.349	0.2175
353.685	0.215
354.02	0.2143
354.356	0.214
354.691	0.213
355.027	0.2124
355.362	0.2107
355.697	0.2097
356.033	0.2089
356.368	0.2079
356.703	0.2077
357.038	0.2069
357.373	0.206
357.707	0.2051
358.042	0.2039
358.377	0.2025
358.711	0.2023
359.046	0.2009
359.38	0.1997
359.715	0.1996
360.049	0.198
360.383	0.1974
360.717	0.1959
361.051	0.1941
361.385	0.1937
361.719	0.1913
362.053	0.1909
362.387	0.1883
362.72	0.1872
363.054	0.1853
363.387	0.1835
363.721	0.1826
364.054	0.1801
364.387	0.1783
364.721	0.1768
365.054	0.1757
365.387	0.1735
365.72	0.1724
366.053	0.1715
366.385	0.1688
366.718	0.1679
367.051	0.1667
367.383	0.1653
367.716	0.1645
368.048	0.1636
368.381	0.1609
368.713	0.1603
369.045	0.159
369.377	0.1574
369.709	0.1561
370.041	0.1551
370.373	0.1538
370.705	0.1523
371.037	0.1506
371.368	0.1492
371.7	0.1479
372.031	0.1466
372.363	0.144
372.694	0.143
373.025	0.1405
373.356	0.1387
373.688	0.1371
374.019	0.1347
374.35	0.1333
374.68	0.1318
375.011	0.129
375.342	0.1281
375.673	0.1261
376.003	0.1248
376.334	0.1228
376.664	0.1213
376.995	0.1201
377.325	0.1184
377.655	0.1176
377.985	0.1159
378.315	0.115
378.645	0.1136
378.975	0.1121
379.305	0.1111
379.635	0.1098
379.964	0.1086
380.294	0.1072
380.623	0.1065
380.953	0.1051
381.282	0.1039
381.611	0.1026
381.941	0.1015
382.27	0.1
382.599	0.0987
382.928	0.0972
383.257	0.0964
383.585	0.0952
383.914	0.0936
384.243	0.0925
384.571	0.09
384.9	0.0891
385.228	0.0876
385.557	0.0865
385.885	0.0847
386.213	0.0832
386.541	0.0818
386.869	0.0802
387.197	0.0783
387.525	0.0775
387.853	0.0757
388.181	0.0749
388.508	0.0742
388.836	0.0734
389.164	0.0714
389.491	0.0708
389.818	0.0696
390.146	0.0685
390.473	0.0668
390.8	0.0667
391.127	0.0649
391.454	0.0643
391.781	0.0637
392.108	0.0622
392.435	0.0611
392.761	0.0602
393.088	0.0591
393.415	0.0592
393.741	0.0592
394.067	0.0581
394.394	0.0578
394.72	0.0561
395.046	0.0553
395.372	0.0545
395.698	0.0541
396.024	0.0535
396.35	0.0526
396.676	0.052
397.001	0.0514
397.327	0.05
397.653	0.0491
397.978	0.0481
398.303	0.0475
398.629	0.0471
398.954	0.0462
399.279	0.0459
399.604	0.046
399.929	0.0448
400.254	0.0445
400.579	0.0439
400.904	0.0428
401.229	0.0427
401.553	0.0416
401.878	0.0406
402.202	0.0409
402.527	0.0403
402.851	0.0404
403.175	0.0399
403.5	0.0396
403.824	0.0398
404.148	0.0386
404.472	0.0392
404.796	0.038
405.119	0.0379
405.443	0.0373
405.767	0.0373
406.09	0.0369
406.414	0.0371
406.737	0.0365
407.061	0.037
407.384	0.037
407.707	0.0358
408.03	0.0367
408.353	0.037
408.676	0.0361
408.999	0.0357
409.322	0.036
409.645	0.0359
409.968	0.0357
410.29	0.0357
410.613	0.0354
410.935	0.0354
411.258	0.0359
411.58	0.0353
411.902	0.0353
412.224	0.0353
412.546	0.0356
412.868	0.035
413.19	0.0353
413.512	0.0353
413.834	0.0349
414.156	0.0357
414.477	0.0353
414.799	0.035
415.121	0.0351
415.442	0.0354
415.763	0.0354
416.085	0.0359
416.406	0.0352
416.727	0.0352
417.048	0.0349
417.369	0.0349
417.69	0.0346
418.011	0.035
418.331	0.0352
418.652	0.036
418.973	0.0357
419.293	0.0358
419.614	0.036
419.934	0.036
420.254	0.0362
420.574	0.0352
420.895	0.0357
421.215	0.0352
421.535	0.0349
421.855	0.0354
422.174	0.0358
422.494	0.0352
422.814	0.0362
423.134	0.0354
423.453	0.0356
423.773	0.0362
424.092	0.0361
424.411	0.036
424.731	0.0365
425.05	0.0362
425.369	0.0359
425.688	0.0365
426.007	0.0364
426.326	0.0366
426.644	0.0373
426.963	0.037
427.282	0.0376
427.6	0.0371
427.919	0.0366
428.237	0.0377
428.556	0.0379
428.874	0.0373
429.192	0.0366
429.51	0.0369
429.828	0.0375
430.146	0.0376
430.464	0.0372
430.782	0.037
431.1	0.0371
431.418	0.0367
431.735	0.0368
432.053	0.0382
432.37	0.0377
432.688	0.0373
433.005	0.0379
433.322	0.038
433.639	0.0371
433.957	0.0378
434.274	0.0382
434.591	0.0382
434.907	0.0384
435.224	0.0372
435.541	0.0383
435.858	0.0385
436.174	0.0384
436.491	0.0374
436.807	0.0378
437.124	0.0374
437.44	0.037
437.756	0.0373
438.072	0.0375
438.388	0.0382
438.704	0.0374
439.02	0.0382
439.336	0.0375
439.652	0.0384
439.968	0.0379
440.283	0.0379
440.599	0.0383
440.914	0.0379
441.23	0.0376
441.545	0.0377
441.86	0.0377
442.175	0.0379
442.491	0.0377
442.806	0.0375
443.121	0.0377
443.435	0.0367
443.75	0.0376
444.065	0.0376
444.38	0.0374
444.694	0.0376
445.009	0.0378
445.323	0.0379
445.638	0.0377
445.952	0.038
446.266	0.0369
446.58	0.0377
446.894	0.0376
447.208	0.038
447.522	0.037
447.836	0.0363
448.15	0.0369
448.464	0.0366
448.777	0.0368
449.091	0.0363
449.404	0.0373
449.718	0.0373
450.031	0.0364
450.345	0.036
450.658	0.0368
450.971	0.0363
451.284	0.0355
451.597	0.0365
451.91	0.0368
452.223	0.0355
452.535	0.0362
452.848	0.0358
453.161	0.0357
453.473	0.0365
453.786	0.0362
454.098	0.0356
454.411	0.0359
454.723	0.0348
455.035	0.0351
455.347	0.036
455.659	0.0355
455.971	0.0353
456.283	0.0357
456.595	0.035
456.907	0.0348
457.218	0.0357
457.53	0.035
457.841	0.0341
458.153	0.0342
458.464	0.0339
458.776	0.0333
459.087	0.033
459.398	0.034
459.709	0.0332
460.02	0.0331
460.331	0.0333
460.642	0.0325
460.953	0.0333
461.263	0.0321
461.574	0.0323
461.885	0.0321
462.195	0.0324
462.506	0.0328
462.816	0.0323
463.126	0.031
463.437	0.0316
463.747	0.0307
464.057	0.0314
464.367	0.0313
464.677	0.03
464.987	0.0309
465.296	0.0307
465.606	0.0299
465.916	0.03
466.225	0.0295
466.535	0.0299
466.844	0.0284
467.154	0.0298
467.463	0.0293
467.772	0.0293
468.081	0.0284
468.39	0.0285
468.699	0.0285
469.008	0.0287
469.317	0.0284
469.626	0.0289
469.935	0.0283
470.243	0.028
470.552	0.0292
470.86	0.0286
471.169	0.0274
471.477	0.028
471.785	0.0281
472.093	0.0278
472.402	0.0268
472.71	0.0268
473.018	0.0265
473.326	0.0256
473.633	0.0263
473.941	0.0261
474.249	0.0258
474.556	0.0266
474.864	0.0251
475.171	0.0246
475.479	0.0248
475.786	0.0256
476.094	0.0257
476.401	0.0248
476.708	0.0247
477.015	0.0252
477.322	0.0246
477.629	0.0247
477.936	0.0232
478.242	0.0243
478.549	0.0234
478.856	0.023
479.162	0.0234
479.469	0.0234
479.775	0.0238
480.081	0.0223
480.388	0.0229
480.694	0.0218
481	0.022
481.306	0.0218
481.612	0.0224
481.918	0.0213
482.224	0.0216
482.53	0.0212
482.835	0.0211
483.141	0.0206
483.446	0.0207
483.752	0.0201
484.057	0.0191
484.363	0.0198
484.668	0.0189
484.973	0.0191
485.278	0.0189
485.583	0.0188
485.888	0.0179
486.193	0.0179
486.498	0.0182
486.803	0.0186
487.107	0.0179
487.412	0.0171
487.717	0.0173
488.021	0.0172
488.325	0.0171
488.63	0.0166
488.934	0.0169
489.238	0.0173
489.542	0.0168
489.846	0.0153
490.15	0.0174
490.454	0.0167
490.758	0.0164
491.062	0.0162
491.366	0.0159
491.669	0.0161
491.973	0.0154
492.276	0.0155
492.58	0.0146
492.883	0.0157
493.186	0.015
493.489	0.0147
493.792	0.0151
494.096	0.0147
494.399	0.0154
494.701	0.0146
495.004	0.0143
495.307	0.0134
495.61	0.0141
495.912	0.0128
496.215	0.013
496.517	0.0127
496.82	0.0122
497.122	0.0131
497.424	0.0123
497.727	0.0125
498.029	0.0122
498.331	0.0134
498.633	0.0124
498.935	0.0123
499.237	0.0122
499.538	0.0116
499.84	0.012
500.142	0.0124
500.443	0.0121
500.745	0.0115
501.046	0.0123
501.348	0.0112
501.649	0.0112
501.95	0.0108
502.251	0.0113
502.552	0.0092
502.853	0.0102
503.154	0.0099
503.455	0.0097
503.756	0.0103
504.057	0.0099
504.357	0.0098
504.658	0.0094
504.958	0.0101
505.259	0.0099
505.559	0.0102
505.859	0.009
506.16	0.0097
506.46	0.0101
506.76	0.0099
507.06	0.009
507.36	0.0094
507.66	0.0094
507.96	0.0094
508.259	0.0091
508.559	0.0082
508.859	0.0088
509.158	0.0079
509.457	0.0077
509.757	0.0091
510.056	0.0087
510.355	0.0073
510.655	0.0064
510.954	0.0072
511.253	0.0079
511.552	0.0078
511.851	0.0068
512.149	0.007
512.448	0.007
512.747	0.0083
513.045	0.0056
513.344	0.0072
513.642	0.0072
513.941	0.0075
514.239	0.0062
514.537	0.0071
514.836	0.0074
515.134	0.0063
515.432	0.0071
515.73	0.0071
516.028	0.0059
516.326	0.0063
516.623	0.0058
516.921	0.0062
517.219	0.0067
517.516	0.0067
517.814	0.006
518.111	0.0067
518.409	0.0076
518.706	0.0058
519.003	0.006
519.3	0.0052
519.597	0.0055
519.894	0.0056
520.191	0.0067
520.488	0.0073
520.785	0.0049
521.082	0.0052
521.378	0.0055
521.675	0.0052
521.971	0.0056
522.268	0.0052
522.564	0.0063
522.861	0.0051
523.157	0.0051
523.453	0.0054
523.749	0.0056
524.045	0.0059
524.341	0.0053
524.637	0.0056
524.933	0.0045
525.229	0.0053
525.524	0.004
525.82	0.0049
526.115	0.0043
526.411	0.0049
526.706	0.0053
527.002	0.005
527.297	0.0032
527.592	0.0057
527.887	0.0046
528.182	0.0061
528.477	0.0059
528.772	0.0047
529.067	0.0051
529.362	0.0044
529.657	0.0042
529.951	0.0042
530.246	0.0042
530.54	0.0022
530.835	0.0026
531.129	0.0024
531.423	0.004
531.718	0.0031
532.012	0.004
532.306	0.0036
532.6	0.004
532.894	0.0031
533.188	0.0039
533.482	0.0038
533.775	0.003
534.069	0.0035
534.363	0.0023
534.656	0.0027
534.95	0.003
535.243	0.0035
535.536	0.0029
535.83	0.0034
536.123	0.0021
536.416	0.0022
536.709	0.0038
537.002	0.004
537.295	0.0034
537.588	0.0037
537.881	0.0027
538.173	0.0021
538.466	0.0022
538.759	0.0017
539.051	0.0018
539.344	0.002
539.636	0.0033
539.928	0.0025
540.22	0.0032
540.513	0.0026
540.805	0.0026
541.097	0.003
541.389	0.0026
541.681	0.0028
541.972	0.0025
542.264	0.0018
542.556	0.0027
542.847	0.0023
543.139	0.0028
543.431	0.0028
543.722	0.0027
544.013	0.0036
544.305	0.0035
544.596	0.0048
544.887	0.0023
545.178	0.0027
545.469	0.0025
545.76	0.0025
546.051	0.0025
546.342	0.0035
546.632	0.0012
546.923	0.0028
547.214	0.0032
547.504	0.0027
547.795	0.003
548.085	0.0034
548.375	0.0025
548.666	0.003
548.956	0.0025
549.246	0.0027
549.536	0.0014
549.826	0.0028
550.116	0.0038
550.406	0.0029
550.695	0.0039
550.985	0.0037
551.275	0.0047
551.564	0.0027
551.854	0.0031
552.143	0.003
552.433	0.0037
552.722	0.0038
553.011	0.0028
553.3	0.0034
553.589	0.0036
553.879	0.0031
554.167	0.0038
554.456	0.003
554.745	0.0025
555.034	0.0026
555.323	0.0012
555.611	0.0023
555.9	0.0032
556.188	0.0028
556.477	0.0031
556.765	0.0015
557.053	0.0026
557.342	0.0018
557.63	0.0038
557.918	0.0033
558.206	0.0027
558.494	0.004
558.782	0.0034
559.069	0.0034
559.357	0.0032
559.645	0.0025
559.932	0.0019
560.22	0.0031
560.507	0.0033
560.795	0.0025
561.082	0.0026
561.37	0.0023
561.657	0.0028
561.944	0.003
562.231	0.0026
562.518	0.0025
562.805	0.0035
563.092	0.0038
563.379	0.0032
563.665	0.0027
563.952	0.0033
564.239	0.0033
564.525	0.0036
564.811	0.004
565.098	0.0044
565.384	0.0036
565.67	0.0035
565.957	0.0044
566.243	0.0032
566.529	0.0053
566.815	0.0057
567.101	0.0032
567.387	0.0023
567.672	0.0028
567.958	0.0038
568.244	0.0033
568.529	0.0026
568.815	0.0026
569.1	0.0028
569.386	0.0027
569.671	0.0033
569.956	0.0022
570.242	0.0028
570.527	0.0039
570.812	0.0035
571.097	0.0027
571.382	0.0032
571.666	0.0027
571.951	0.002
572.236	0.0025
572.521	0.0024
572.805	0.0031
573.09	0.0027
573.374	0.0023
573.659	0.0021
573.943	0.0032
574.227	0.0024
574.511	0.0031
574.795	0.0026
575.079	0.002
575.363	0.0022
575.647	0.0029
575.931	0.0025
576.215	0.0032
576.499	0.0022
576.782	0.0019
577.066	0.0024
577.349	0.0028
577.633	0.0035
577.916	0.0032
578.2	0.0032
578.483	0.0028
578.766	0.0026
579.049	0.0035
579.332	0.0032
579.615	0.0024
579.898	0.0032
580.181	0.0033
580.464	0.003
580.746	0.0016
581.029	0.003
581.312	0.0016
581.594	0.0023
581.877	0.0023
582.159	0.0032
582.441	0.0028
582.724	0.0022
583.006	0.0024
583.288	0.0018
583.57	0.0021
583.852	0.0015
584.134	0.002
584.416	0.0031
584.697	0.0021
584.979	0.002
585.261	0.0019
585.542	0.0017
585.824	0.0028
586.105	0.0022
586.387	0.0016
586.668	0.0023
586.949	0.0027
587.231	0.0014
587.512	0.003
587.793	0.0021
588.074	0.0027
588.355	0.0031
588.636	0.0028
588.916	0.0027
589.197	0.003
589.478	0.0033
589.758	0.0028
590.039	0.0024
590.319	0.0026
590.6	0.003
590.88	0.0026
591.16	0.0029
591.441	0.0032
591.721	0.0032
592.001	0.0032
592.281	0.0025
592.561	0.0034
592.841	0.0031
593.12	0.0023
593.4	0.0018
593.68	0.0023
593.959	0.0026
594.239	0.004
594.518	0.0022
594.798	0.0034
595.077	0.0031
595.356	0.0029
595.636	0.0027
595.915	0.0031
596.194	0.0028
596.473	0.003
596.752	0.0022
597.031	0.0022
597.31	0.002
597.588	0.0022
597.867	0.0012
598.146	0.0026
598.424	0.0023
598.703	0.0017
598.981	0.0021
599.259	0.0023
599.538	0.003
599.816	0.0029
600.094	0.002
600.372	0.0026
600.65	0.0032
600.928	0.0027
601.206	0.0026
601.484	0.0031
601.762	0.0031
602.04	0.0027
602.317	0.0034
602.595	0.003
602.872	0.0031
603.15	0.0027
603.427	0.0021
603.704	0.0015
603.982	0.0023
604.259	0.0018
604.536	0.0024
604.813	0.0018
605.09	0.0028
605.367	0.0024
605.644	0.0017
605.921	0.0024
606.197	0.0025
606.474	0.0019
606.751	0.0019
607.027	0.0017
607.304	0.0018
607.58	0.0025
607.856	0.0014
608.133	0.0026
608.409	0.0033
608.685	0.0023
608.961	0.0033
609.237	0.003
609.513	0.0028
609.789	0.0033
610.065	0.0016
610.341	0.0021
610.616	0.0018
610.892	0.0032
611.167	0.0031
611.443	0.0014
611.718	0.0013
611.994	0.0014
612.269	0.0024
612.544	0.0019
612.819	0.0024
613.095	0.0026
613.37	0.0021
613.645	0.0018
613.919	0.001
614.194	0.003
614.469	0.0014
614.744	0.0009
615.019	0.0011
615.293	0.0006
615.568	0.0007
615.842	0.0008
616.116	0.001
616.391	0.0006
616.665	0.0019
616.939	0.0014
617.213	0.0021
617.488	0.0016
617.762	0.0023
618.035	0.0016
618.309	0.0021
618.583	0.0012
618.857	0.0024
619.131	0.0017
619.404	0.0004
619.678	0.0024
619.951	0.0006
620.225	0.0011
620.498	0.0017
620.771	0.0018
621.045	0.0029
621.318	0.0029
621.591	0.0022
621.864	0.0011
622.137	0.0005
622.41	0.0007
622.683	0.0005
622.956	0.0027
623.228	0.0021
623.501	0.0025
623.774	0.0032
624.046	0.0022
624.319	0.0014
624.591	0.0009
624.863	0.0022
625.136	0.0015
625.408	0.0029
625.68	0.002
625.952	0.0014
626.224	0.0027
626.496	0.0023
626.768	0.0009
627.04	0.0014
627.311	0.0011
627.583	0.002
627.855	0.0022
628.126	0.0023
628.398	0.0024
628.669	0.0026
628.941	0.0015
629.212	0.0008
629.483	0.0022
629.755	0.0017
630.026	0.0012
630.297	0.0008
630.568	0.0011
630.839	0.0002
631.11	0.0006
631.38	0.0005
631.651	0.0006
631.922	0.0005
632.192	-0.0006
632.463	0.0001
632.733	0.001
633.004	0.0006
633.274	0.0003
633.545	0.0019
633.815	0.0024
634.085	0.003
634.355	0.002
634.625	0.0035
634.895	0.0026
635.165	0.0003
635.435	0.0021
635.705	0.0014
635.974	0.0009
636.244	0.0018
636.514	0.0019
636.783	0.0018
637.053	0.0027
637.322	0.002
637.591	0.0023
637.861	0.0019
638.13	0.0023
638.399	0.0024
638.668	0.0025
638.937	0.0016
639.206	0.0014
639.475	0.002
639.744	0.0029
640.013	0.0024
640.281	0.0035
640.55	0.0036
640.819	0.0025
641.087	0.0026
641.356	0.0024
641.624	0.0026
641.892	0.0022
642.161	0.0023
642.429	0.0033
642.697	0.0024
642.965	0.0036
643.233	0.0038
643.501	0.0027
643.769	0.0013
644.037	0.0027
644.305	0.0016
644.572	0.0001
644.84	0.0011
645.108	0.0017
645.375	0.0005
645.643	0.0008
645.91	0.001
646.177	0.003
646.445	0.0043
646.712	0.0044
646.979	0.0046
647.246	0.0041
647.513	0.0039
647.78	0.0042
648.047	0.0042
648.314	0.0033
648.58	0.0029
648.847	0.0016
649.114	0.0006
649.38	0.0012
649.647	0.0008
649.913	0.0011
650.18	0.0022
650.446	0.0017
650.712	0.0018
650.978	0.0027
651.245	0.0038
651.511	0.0029
651.777	0.0028
652.043	0.0032
652.309	0.0023
652.574	0.0037
652.84	0.0033
653.106	0.0013
653.371	0.0011
653.637	0.0025
653.903	0.0027
654.168	0.0033
654.433	0.0035
654.699	0.0031
654.964	0.0033
655.229	0.003
655.494	0.0024
655.759	0.001
656.024	0.0006
656.289	-0
656.554	-0.0009
656.819	0.0013
657.084	0.0022
657.349	0.003
657.613	0.0039
657.878	0.003
658.142	0.0031
658.407	0.0036
658.671	0.0029
658.936	0.0021
659.2	0.0019
659.464	0.0015
659.728	0.0024
659.992	0.0024
660.256	0.0015
660.52	0.002
660.784	0.0016
661.048	0.0009
661.312	-0.0005
661.575	0.0003
661.839	-0.0014
662.103	-0.001
662.366	-0.0014
662.63	0.0001
662.893	0.0001
663.156	0.0002
663.42	-0.0007
663.683	0.0003
663.946	0.0014
664.209	0.0032
664.472	0.0027
664.735	0.0033
664.998	0.0017
665.261	0.0018
665.524	0.0018
665.786	0.0014
666.049	0.0012
666.312	0.0006
666.574	0.0017
666.837	0.002
667.099	-0.0002
667.361	-0.0002
667.624	0.0001
667.886	0.0001
668.148	0.0006
668.41	0.0021
668.672	0.0011
668.934	0.001
669.196	0.001
669.458	0.002
669.72	0.0021
669.982	0.0023
670.243	0.0029
670.505	0.0026
670.766	0.0027
671.028	0.003
671.289	0.0021
671.551	0.0014
671.812	0.0005
672.073	0.0012
672.334	0.0005
672.596	0.0016
672.857	0
673.118	0.0003
673.379	0.0004
673.639	0.0001
673.9	0.0001
674.161	-0.002
674.422	-0.0017
674.682	-0.0014
674.943	-0.0011
675.203	-0.0002
675.464	-0.0003
675.724	0.0011
675.985	0.0013
676.245	0.0014
676.505	0.003
676.765	0.0018
677.025	0.0024
677.285	0.0028
677.545	0.0033
677.805	0.0032
678.065	0.003
678.325	0.0032
678.585	0.0024
678.844	0.0026
679.104	0.0018
679.363	0.0031
679.623	0.0035
679.882	0.0036
680.142	0.0034
680.401	0.0043
680.66	0.0043
680.919	0.0039
681.178	0.0044
681.437	0.0042
681.696	0.0039
681.955	0.0043
682.214	0.0044
682.473	0.0045
682.732	0.0036
682.99	0.0029
683.249	0.0038
683.508	0.0032
683.766	0.003
684.024	0.0035
684.283	0.0042
684.541	0.0032
684.799	0.0037
685.058	0.0029
685.316	0.0024
685.574	0.0031
685.832	0.0038
686.09	0.0031
686.348	0.0043
686.606	0.0031
686.863	0.0043
687.121	0.0047
687.379	0.0039
687.636	0.0047
687.894	0.0047
688.151	0.0047
688.409	0.0044
688.666	0.0045
688.923	0.0049
689.181	0.0042
689.438	0.003
689.695	0.0037
689.952	0.0016
690.209	0.0026
690.466	0.0014
690.723	0.0035
690.979	0.0029
691.236	0.0028
691.493	0.0019
691.75	0.003
692.006	0.0037
692.263	0.004
692.519	0.0033
692.775	0.0025
693.032	0.0011
693.288	0.0023
693.544	0.0023
693.8	0.0031
694.056	0.003
694.313	0.0027
694.568	0.0022
694.824	0.0032
695.08	0.0036
695.336	0.0034
695.592	0.003
695.847	0.003
696.103	0.004
696.359	0.0038
696.614	0.0032
696.869	0.0017
697.125	0.0007
697.38	0.0001
697.635	0.0002
697.891	0.0008
698.146	0.0008
698.401	0.002
698.656	0.0017
698.911	0.003
699.166	0.0016
699.42	0.002
699.675	0.0015
699.93	0.0002
700.185	0.0017
700.439	0.0027
700.694	0.0022
700.948	0.0029
701.203	0.0032
701.457	0.002
701.711	0.0016
701.965	0.0002
702.22	0.0005
702.474	0.0009
702.728	-0.0001
702.982	-0.0007
703.236	0.0003
703.49	0.0005
703.743	0.0003
703.997	0.0003
704.251	0.0008
704.504	0.0017
704.758	0.0012
705.012	0.0004
705.265	0.0001
705.518	0.0008
705.772	0.0003
706.025	0.0005
706.278	0.0002
706.531	-0.0004
706.785	-0.0012
707.038	-0.0003
707.291	-0.0005
707.543	0.0002
707.796	0.0003
708.049	-0.0008
708.302	-0.0009
708.555	-0.0002
708.807	0.0005
709.06	-0.0004
709.312	-0.0023
709.565	-0.001
709.817	-0.0016
710.069	-0.0011
710.322	-0.0008
710.574	-0.0003
710.826	0.0002
711.078	0.001
711.33	0.0007
711.582	0.0001
711.834	0.0013
712.086	0.0017
712.338	0.0024
712.59	0.0025
712.841	0.0024
713.093	0.0018
713.344	0.0016
713.596	0.0022
713.847	0.0026
714.099	0.0026
714.35	0.0032
714.601	0.0037
714.853	0.0044
715.104	0.0031
715.355	0.0025
715.606	0.002
715.857	0.0026
716.108	0.0037
716.359	0.0034
716.609	0.0034
716.86	0.0028
717.111	0.0014
717.361	0.0008
717.612	0.0006
717.863	0.0002
718.113	0.0008
718.363	0.0003
718.614	0.0011
718.864	0.0016
719.114	0.0022
719.364	0.0008
719.614	0.0002
719.865	-0.0003
720.114	0.0001
720.364	0.0009
720.614	0.002
720.864	0.0031
721.114	0.0023
721.364	0.0031
721.613	0.0036
721.863	0.0038
722.112	0.0038
722.362	0.0044
722.611	0.0037
722.86	0.0032
723.11	0.002
723.359	0.002
723.608	0.0029
723.857	0.0042
724.106	0.0054
724.355	0.0056
724.604	0.0063
724.853	0.0048
725.102	0.0041
725.351	0.003
725.599	0.0023
725.848	0.003
726.097	0.0026
726.345	0.003
726.594	0.0022
726.842	0.0018
727.09	0.002
727.339	0.0019
727.587	0.0006
727.835	0.0005
728.083	0.0003
728.331	-0
728.579	-0.001
728.827	0.0004
729.075	0.0004
729.323	0.0022
729.571	0.0021
729.818	0.0023
730.066	0.0023
730.314	0.0023
730.561	0.001
730.809	0.0008
731.056	-0.0001
731.303	-0.001
731.551	0.0009
731.798	0.0002
732.045	0.0006
732.292	0.0011
732.539	0.0008
732.786	0.0014
733.033	0.0019
733.28	0.0025
733.527	0.004
733.774	0.0024
734.021	0.003
734.267	0.0042
734.514	0.004
734.76	0.0037
735.007	0.0053
735.253	0.0052
735.5	0.0056
735.746	0.006
735.992	0.0048
736.238	0.0054
736.485	0.0063
736.731	0.0054
736.977	0.0055
737.223	0.0045
737.469	0.0054
737.715	0.0056
737.96	0.0075
738.206	0.0069
738.452	0.009
738.697	0.0088
738.943	0.0072
739.189	0.0059
739.434	0.003
739.679	0.0025
739.925	0.0023
740.17	0.0018
740.415	0.0023
740.66	0.0032
740.906	0.0037
741.151	0.0035
741.396	0.0033
741.641	0.0059
741.886	0.0054
742.13	0.0058
742.375	0.0055
742.62	0.0074
742.865	0.0055
743.109	0.0053
743.354	0.0051
743.598	0.0054
743.843	0.0055
744.087	0.0053
744.331	0.0051
744.576	0.0053
744.82	0.0051
745.064	0.0034
745.308	0.0034
745.552	0.0038
745.796	0.0041
746.04	0.0035
746.284	0.0023
746.528	0.0006
746.771	0.0017
747.015	0.0014
747.259	0.0012
747.502	0.0007
747.746	0.0025
747.989	0.0022
748.233	0.0039
748.476	0.0034
748.719	0.0043
748.963	0.005
749.206	0.0039
749.449	0.004
749.692	0.0036
749.935	0.0049
750.178	0.0043
750.421	0.0037
750.664	0.005
750.906	0.0038
751.149	0.0036
751.392	0.0026
751.635	0.0017
751.877	0.0001
752.12	0.0002
752.362	0.001
752.604	0.0008
752.847	0.0016
753.089	0.0026
753.331	0.0021
753.573	0.0024
753.816	0.003
754.058	0.0032
754.3	0.0037
754.542	0.0054
754.783	0.0041
755.025	0.0034
755.267	0.0012
755.509	0.0012
755.75	0.0015
755.992	0.0021
756.234	0.002
756.475	0.0004
756.716	0.0001
756.958	0.0001
757.199	0.0002
757.44	0.002
757.682	0.0005
757.923	0.0002
758.164	-0.0003
758.405	-0.0004
758.646	0.001
758.887	0.0002
759.128	0.0007
759.369	0.0006
759.609	-0.0004
759.85	-0.0006
760.091	0.0009
760.331	0.0005
760.572	-0.0001
760.812	-0.0003
761.053	-0.0002
761.293	0.0004
761.533	0.0011
761.774	0.0011
762.014	0.0012
762.254	0.0014
762.494	0.0008
762.734	0.0005
762.974	0.0004
763.214	-0.0001
763.454	-0.0006
763.694	-0.0005
763.933	-0.0007
764.173	0.0009
764.413	0.0005
764.652	0.0008
764.892	0.0004
765.131	0.0012
765.371	0.0006
765.61	0.0024
765.849	0.0017
766.089	0.0025
766.328	0.003
766.567	0.003
766.806	0.0037
767.045	0.0034
767.284	0.004
767.523	0.004
767.762	0.0042
768.001	0.003
768.239	0.0028
768.478	0.0019
768.717	0.0022
768.955	0.0026
769.194	0.0024
769.432	0.0029
769.671	0.003
769.909	0.0027
770.148	0.0031
770.386	0.0035
770.624	0.0026
770.862	0.0029
771.1	0.0027
771.338	0.0021
771.576	0.0024
771.814	0.0025
772.052	0.0028
772.29	0.0032
772.528	0.0038
772.765	0.003
773.003	0.0038
773.24	0.0032
773.478	0.003
773.716	0.0049
773.953	0.0039
774.19	0.0049
774.428	0.005
774.665	0.0053
774.902	0.0048
775.139	0.0031
775.376	0.0043
775.613	0.003
775.85	0.0035
776.087	0.0036
776.324	0.0025
776.561	0.0041
776.798	0.0055
777.034	0.0058
777.271	0.007
777.508	0.0074
777.744	0.0069
777.981	0.0072
778.217	0.0061
778.454	0.0057
778.69	0.0048
778.926	0.0045
779.162	0.0049
779.399	0.0047
779.635	0.0041
779.871	0.004
780.107	0.0047
780.343	0.0049
780.579	0.0056
780.814	0.0055
781.05	0.0054
781.286	0.0049
781.522	0.0043
781.757	0.0058
781.993	0.0057
782.228	0.0059
782.464	0.006
782.699	0.0055
782.934	0.0038
783.17	0.0046
783.405	0.0038
783.64	0.0037
783.875	0.0029
784.11	0.0042
784.345	0.0041
784.58	0.0037
784.815	0.0045
785.05	0.0042
785.285	0.0032
785.52	0.0019
785.754	0.003
785.989	0.0021
786.223	0.0017
786.458	0.0018
786.692	0.0022
786.927	0.0008
787.161	0.0024
787.396	0.0012
787.63	0.0011
787.864	0.0007
788.098	0.0007
788.332	0.0012
788.566	0.0009
788.8	0.0003
789.034	0.0006
789.268	0.0014
789.502	0.0018
789.736	0.0033
789.969	0.0026
790.203	0.0029
790.437	0.0026
790.67	0.0025
790.904	0.0024
791.137	0.0011
791.37	0.0012
791.604	0.0002
791.837	0.001
792.07	0.0001
792.303	0.0008
792.537	0.0004
792.77	0.0004
793.003	0.0005
793.236	-0.0009
793.469	-0.0002
793.701	-0.0002
793.934	-0.0003
794.167	0.0004
794.4	0.0002
794.632	0.0008
794.865	0.0003
795.097	0.0005
795.33	0.0016
795.562	0.0003
795.795	0.0009
796.027	0.0014
796.259	0.0018
796.491	0.0016
796.724	0.0006
796.956	0.0011
797.188	0.0018
797.42	0.0012
797.652	0.0013
797.883	0.0007
798.115	-0.0003
798.347	0.0005
798.579	-0.0005
798.81	-0.0017
799.042	-0.0012
799.274	-0.002
799.505	-0.0008
799.737	-0.0023
799.968	-0.001
800.199	-0.0003
800.431	-0.001
800.662	0.001
800.893	0.0011
801.124	0.001
801.355	0.0005
801.586	0.0011
801.817	0.0012
802.048	0.0007
802.279	0.0005
802.51	0.0015
802.741	-0.0002
802.971	-0.0001
803.202	-0.0005
803.433	-0.0011
803.663	-0.0011
803.894	0
804.124	0.0008
804.354	0.0001
804.585	-0.0002
804.815	0.0007
805.045	-0.0001
805.275	-0.0021
805.506	-0.0587
805.736	0.0924
805.966	0.0175
806.196	0.1737
