Data from 03 0.2 mM BQDS 0.4 mM K2Cr2O7 1 M H2SO4 5 min_Absorbance_07-37-42-519.txt Node
Date: Wed Dec 08 07:37:42 EST 2021
User: kwabilab-user
Spectrometer: HDX00518
Trigger mode: 0
Integration Time (sec): 5.000000E-2
Scans to average: 50
Nonlinearity correction enabled: false
Boxcar width: 0
Storing dark spectrum: false
XAxis mode: Wavelengths
Number of Pixels in Spectrum: 2068
>>>>>Begin Spectral Data<<<<<
195.27	0.1282
195.642	0.0792
196.014	0.0717
196.386	0.1424
196.758	0.0425
197.129	0.0254
197.501	0.061
197.872	0.0987
198.244	0.1136
198.615	0.1104
198.986	0.1152
199.357	0.0947
199.728	0.1188
200.099	0.1082
200.47	0.1179
200.841	0.1084
201.212	0.1277
201.582	0.1127
201.953	0.1295
202.323	0.1192
202.694	0.1124
203.064	0.129
203.434	0.1071
203.804	0.1367
204.174	0.1284
204.544	0.1153
204.914	0.1267
205.284	0.1274
205.653	0.1324
206.023	0.1136
206.393	0.121
206.762	0.1373
207.131	0.135
207.501	0.1482
207.87	0.133
208.239	0.1288
208.608	0.1341
208.977	0.1339
209.346	0.1479
209.715	0.1432
210.083	0.1419
210.452	0.1557
210.82	0.1478
211.189	0.1608
211.557	0.1496
211.925	0.1653
212.294	0.174
212.662	0.1719
213.03	0.1741
213.398	0.1673
213.766	0.1987
214.133	0.1866
214.501	0.2178
214.869	0.2073
215.236	0.2448
215.604	0.2313
215.971	0.2503
216.338	0.2799
216.705	0.285
217.072	0.3279
217.439	0.3188
217.806	0.3623
218.173	0.3942
218.54	0.4188
218.907	0.4603
219.273	0.4775
219.64	0.5271
220.006	0.5637
220.373	0.5875
220.739	0.6351
221.105	0.6643
221.471	0.6995
221.837	0.7342
222.203	0.7706
222.569	0.8054
222.935	0.829
223.3	0.8492
223.666	0.8788
224.031	0.9034
224.397	0.9231
224.762	0.946
225.127	0.9619
225.493	0.9593
225.858	0.9772
226.223	0.9903
226.588	0.995
226.952	1.0017
227.317	1.0084
227.682	0.9956
228.046	0.9981
228.411	1.0031
228.775	0.9964
229.14	0.9962
229.504	0.9874
229.868	0.9862
230.232	0.9758
230.596	0.9656
230.96	0.9616
231.324	0.9529
231.688	0.9405
232.052	0.9392
232.415	0.9298
232.779	0.9189
233.142	0.9081
233.505	0.9018
233.869	0.8915
234.232	0.883
234.595	0.8686
234.958	0.8614
235.321	0.8512
235.684	0.8425
236.047	0.8344
236.409	0.8254
236.772	0.8146
237.134	0.8084
237.497	0.7967
237.859	0.7902
238.222	0.7812
238.584	0.7764
238.946	0.7639
239.308	0.7583
239.67	0.7502
240.032	0.7412
240.393	0.7341
240.755	0.7258
241.117	0.7214
241.478	0.7149
241.84	0.7092
242.201	0.701
242.562	0.6958
242.924	0.6914
243.285	0.6844
243.646	0.6803
244.007	0.6728
244.368	0.6711
244.728	0.6641
245.089	0.6621
245.45	0.6562
245.81	0.6532
246.171	0.6485
246.531	0.6444
246.891	0.6385
247.252	0.6351
247.612	0.6319
247.972	0.6294
248.332	0.6295
248.692	0.6216
249.051	0.6213
249.411	0.6183
249.771	0.6138
250.13	0.6104
250.49	0.6099
250.849	0.6081
251.208	0.6063
251.568	0.6045
251.927	0.6016
252.286	0.6021
252.645	0.599
253.004	0.597
253.363	0.5939
253.721	0.5966
254.08	0.5903
254.439	0.5907
254.797	0.5883
255.155	0.5871
255.514	0.5858
255.872	0.5855
256.23	0.5817
256.588	0.5806
256.946	0.5786
257.304	0.5795
257.662	0.5777
258.02	0.5772
258.377	0.5734
258.735	0.5723
259.093	0.5737
259.45	0.5702
259.807	0.5695
260.165	0.5675
260.522	0.5668
260.879	0.5655
261.236	0.5636
261.593	0.5621
261.95	0.559
262.306	0.5608
262.663	0.5552
263.02	0.555
263.376	0.5516
263.733	0.5494
264.089	0.5486
264.445	0.5473
264.802	0.5455
265.158	0.5437
265.514	0.5418
265.87	0.5387
266.226	0.5371
266.581	0.5352
266.937	0.5315
267.293	0.5313
267.648	0.5281
268.004	0.5265
268.359	0.5231
268.714	0.5201
269.07	0.5185
269.425	0.5151
269.78	0.5141
270.135	0.5104
270.49	0.5096
270.844	0.5071
271.199	0.5047
271.554	0.5
271.908	0.496
272.263	0.4943
272.617	0.4923
272.972	0.4885
273.326	0.486
273.68	0.4819
274.034	0.4799
274.388	0.4778
274.742	0.472
275.096	0.4695
275.45	0.4667
275.803	0.4628
276.157	0.4605
276.51	0.4571
276.864	0.4537
277.217	0.4494
277.571	0.4453
277.924	0.4415
278.277	0.4386
278.63	0.435
278.983	0.4307
279.336	0.4276
279.688	0.424
280.041	0.4197
280.394	0.4154
280.746	0.413
281.099	0.4083
281.451	0.4037
281.803	0.4006
282.156	0.3965
282.508	0.3937
282.86	0.3886
283.212	0.3858
283.564	0.3824
283.916	0.3768
284.267	0.3741
284.619	0.3711
284.971	0.366
285.322	0.3622
285.673	0.3598
286.025	0.3561
286.376	0.3506
286.727	0.3467
287.078	0.3422
287.429	0.3405
287.78	0.3348
288.131	0.3317
288.482	0.3276
288.833	0.3244
289.183	0.3202
289.534	0.3157
289.884	0.312
290.235	0.3084
290.585	0.304
290.935	0.3013
291.285	0.2976
291.635	0.2941
291.985	0.2909
292.335	0.2859
292.685	0.2823
293.035	0.2791
293.384	0.275
293.734	0.2712
294.083	0.2673
294.433	0.2639
294.782	0.2609
295.131	0.2567
295.48	0.2536
295.829	0.2515
296.179	0.2468
296.527	0.2437
296.876	0.2409
297.225	0.2373
297.574	0.2331
297.922	0.2306
298.271	0.2279
298.619	0.224
298.968	0.2219
299.316	0.2188
299.664	0.2159
300.012	0.213
300.36	0.2097
300.708	0.2075
301.056	0.2048
301.404	0.2022
301.752	0.1998
302.099	0.1971
302.447	0.1956
302.794	0.1925
303.142	0.1903
303.489	0.1887
303.836	0.1857
304.183	0.1843
304.531	0.1823
304.878	0.1808
305.224	0.1783
305.571	0.1768
305.918	0.1758
306.265	0.1735
306.611	0.1726
306.958	0.1712
307.304	0.17
307.651	0.1685
307.997	0.1669
308.343	0.1658
308.689	0.1651
309.035	0.164
309.381	0.1638
309.727	0.1617
310.073	0.1616
310.419	0.1607
310.764	0.1603
311.11	0.1598
311.455	0.1589
311.801	0.1582
312.146	0.1578
312.491	0.1572
312.837	0.1575
313.182	0.1569
313.527	0.1568
313.872	0.1559
314.216	0.1559
314.561	0.156
314.906	0.1562
315.251	0.1562
315.595	0.156
315.94	0.1563
316.284	0.156
316.628	0.1563
316.972	0.156
317.317	0.1563
317.661	0.1572
318.005	0.1578
318.348	0.1575
318.692	0.1583
319.036	0.1588
319.38	0.1584
319.723	0.1598
320.067	0.1594
320.41	0.1605
320.754	0.1613
321.097	0.1618
321.44	0.163
321.783	0.164
322.126	0.1641
322.469	0.1656
322.812	0.1663
323.155	0.1674
323.498	0.1686
323.84	0.1692
324.183	0.1704
324.525	0.1716
324.868	0.1717
325.21	0.1732
325.552	0.1744
325.894	0.1752
326.236	0.177
326.578	0.1774
326.92	0.1788
327.262	0.18
327.604	0.1809
327.946	0.1826
328.287	0.1833
328.629	0.1848
328.97	0.1858
329.312	0.187
329.653	0.1885
329.994	0.1896
330.335	0.1912
330.676	0.1918
331.017	0.1925
331.358	0.1947
331.699	0.1959
332.04	0.197
332.38	0.1984
332.721	0.2003
333.061	0.2008
333.402	0.2027
333.742	0.2037
334.083	0.2056
334.423	0.2056
334.763	0.2063
335.103	0.2081
335.443	0.2085
335.783	0.2098
336.123	0.2102
336.462	0.2124
336.802	0.2135
337.141	0.2138
337.481	0.2147
337.82	0.2153
338.16	0.2163
338.499	0.2179
338.838	0.2188
339.177	0.2198
339.516	0.2204
339.855	0.222
340.194	0.2228
340.533	0.2232
340.872	0.2246
341.21	0.2258
341.549	0.2259
341.887	0.2269
342.226	0.2274
342.564	0.2274
342.902	0.2284
343.24	0.2286
343.578	0.2277
343.916	0.2289
344.254	0.2293
344.592	0.2295
344.93	0.2295
345.268	0.2297
345.605	0.2299
345.943	0.2309
346.28	0.2305
346.618	0.2303
346.955	0.2305
347.292	0.231
347.629	0.2312
347.966	0.2311
348.303	0.2308
348.64	0.2316
348.977	0.2313
349.314	0.231
349.65	0.2319
349.987	0.2323
350.324	0.2299
350.66	0.2301
350.996	0.2303
351.333	0.2281
351.669	0.228
352.005	0.2283
352.341	0.2273
352.677	0.2269
353.013	0.2253
353.349	0.2252
353.685	0.2241
354.02	0.2233
354.356	0.2223
354.691	0.2215
355.027	0.2202
355.362	0.2184
355.697	0.2182
356.033	0.2172
356.368	0.2156
356.703	0.2157
357.038	0.2149
357.373	0.2138
357.707	0.2137
358.042	0.2128
358.377	0.2109
358.711	0.2102
359.046	0.2095
359.38	0.2079
359.715	0.2077
360.049	0.2066
360.383	0.2055
360.717	0.2038
361.051	0.2017
361.385	0.2008
361.719	0.1991
362.053	0.1987
362.387	0.1954
362.72	0.1946
363.054	0.1926
363.387	0.1907
363.721	0.1896
364.054	0.1879
364.387	0.1858
364.721	0.1843
365.054	0.1827
365.387	0.1813
365.72	0.1794
366.053	0.1781
366.385	0.1765
366.718	0.1753
367.051	0.1741
367.383	0.172
367.716	0.1713
368.048	0.1699
368.381	0.1681
368.713	0.1674
369.045	0.1665
369.377	0.1643
369.709	0.1632
370.041	0.1621
370.373	0.1612
370.705	0.1595
371.037	0.1572
371.368	0.1558
371.7	0.1553
372.031	0.153
372.363	0.1513
372.694	0.1497
373.025	0.1478
373.356	0.1458
373.688	0.1443
374.019	0.1413
374.35	0.1397
374.68	0.138
375.011	0.1363
375.342	0.134
375.673	0.132
376.003	0.1306
376.334	0.1288
376.664	0.1271
376.995	0.1258
377.325	0.1247
377.655	0.1233
377.985	0.1215
378.315	0.1206
378.645	0.1193
378.975	0.1176
379.305	0.1167
379.635	0.1157
379.964	0.114
380.294	0.1134
380.623	0.1118
380.953	0.1108
381.282	0.109
381.611	0.1079
381.941	0.1065
382.27	0.1054
382.599	0.1036
382.928	0.1024
383.257	0.1012
383.585	0.1
383.914	0.0983
384.243	0.0972
384.571	0.0952
384.9	0.0939
385.228	0.0925
385.557	0.091
385.885	0.0896
386.213	0.0878
386.541	0.0862
386.869	0.0847
387.197	0.083
387.525	0.0817
387.853	0.0802
388.181	0.0796
388.508	0.0781
388.836	0.0769
389.164	0.0758
389.491	0.0754
389.818	0.0738
390.146	0.0726
390.473	0.0708
390.8	0.0704
391.127	0.0695
391.454	0.069
391.781	0.0674
392.108	0.0666
392.435	0.0648
392.761	0.0638
393.088	0.0634
393.415	0.0628
393.741	0.0628
394.067	0.0613
394.394	0.0611
394.72	0.06
395.046	0.0591
395.372	0.0576
395.698	0.0568
396.024	0.0572
396.35	0.056
396.676	0.0553
397.001	0.0547
397.327	0.0532
397.653	0.0521
397.978	0.0518
398.303	0.0506
398.629	0.0501
398.954	0.0503
399.279	0.0493
399.604	0.0488
399.929	0.048
400.254	0.0475
400.579	0.0472
400.904	0.0456
401.229	0.0454
401.553	0.0443
401.878	0.0442
402.202	0.0443
402.527	0.0432
402.851	0.0431
403.175	0.0425
403.5	0.0419
403.824	0.0421
404.148	0.0418
404.472	0.0413
404.796	0.0405
405.119	0.0401
405.443	0.0405
405.767	0.0397
406.09	0.0393
406.414	0.04
406.737	0.0395
407.061	0.0396
407.384	0.0393
407.707	0.0388
408.03	0.039
408.353	0.0392
408.676	0.0382
408.999	0.0381
409.322	0.0387
409.645	0.0384
409.968	0.0375
410.29	0.0381
410.613	0.0377
410.935	0.0377
411.258	0.038
411.58	0.0371
411.902	0.0381
412.224	0.0376
412.546	0.0375
412.868	0.0372
413.19	0.0376
413.512	0.0373
413.834	0.0375
414.156	0.0379
414.477	0.0374
414.799	0.0373
415.121	0.038
415.442	0.0374
415.763	0.0375
416.085	0.0377
416.406	0.038
416.727	0.0377
417.048	0.0376
417.369	0.0376
417.69	0.0373
418.011	0.0376
418.331	0.0379
418.652	0.0375
418.973	0.0379
419.293	0.0381
419.614	0.0381
419.934	0.0377
420.254	0.0382
420.574	0.0379
420.895	0.038
421.215	0.0375
421.535	0.0371
421.855	0.0378
422.174	0.0374
422.494	0.0377
422.814	0.0388
423.134	0.038
423.453	0.0384
423.773	0.0379
424.092	0.0376
424.411	0.0384
424.731	0.0386
425.05	0.0379
425.369	0.0385
425.688	0.0381
426.007	0.0388
426.326	0.0387
426.644	0.0399
426.963	0.0394
427.282	0.04
427.6	0.0392
427.919	0.0392
428.237	0.0395
428.556	0.0399
428.874	0.0392
429.192	0.0388
429.51	0.0393
429.828	0.0393
430.146	0.0396
430.464	0.0392
430.782	0.0396
431.1	0.0398
431.418	0.0391
431.735	0.039
432.053	0.0399
432.37	0.0394
432.688	0.0395
433.005	0.0397
433.322	0.0398
433.639	0.0396
433.957	0.04
434.274	0.0406
434.591	0.0397
434.907	0.0402
435.224	0.04
435.541	0.0399
435.858	0.041
436.174	0.0406
436.491	0.0408
436.807	0.0404
437.124	0.0397
437.44	0.0392
437.756	0.0396
438.072	0.0397
438.388	0.0405
438.704	0.04
439.02	0.0405
439.336	0.0393
439.652	0.0401
439.968	0.0399
440.283	0.0399
440.599	0.0398
440.914	0.0398
441.23	0.0392
441.545	0.0397
441.86	0.0391
442.175	0.04
442.491	0.039
442.806	0.0396
443.121	0.0396
443.435	0.0394
443.75	0.0395
444.065	0.0393
444.38	0.0397
444.694	0.0393
445.009	0.0396
445.323	0.0397
445.638	0.0392
445.952	0.0397
446.266	0.0396
446.58	0.04
446.894	0.0393
447.208	0.0402
447.522	0.0396
447.836	0.0382
448.15	0.038
448.464	0.0383
448.777	0.0386
449.091	0.0381
449.404	0.0388
449.718	0.0396
450.031	0.0385
450.345	0.0381
450.658	0.0386
450.971	0.0378
451.284	0.0379
451.597	0.0384
451.91	0.0386
452.223	0.0379
452.535	0.0388
452.848	0.038
453.161	0.0379
453.473	0.0382
453.786	0.0382
454.098	0.0366
454.411	0.0371
454.723	0.0372
455.035	0.0369
455.347	0.0374
455.659	0.0373
455.971	0.0377
456.283	0.0372
456.595	0.037
456.907	0.0371
457.218	0.0373
457.53	0.0367
457.841	0.0359
458.153	0.0361
458.464	0.0355
458.776	0.0353
459.087	0.0348
459.398	0.0356
459.709	0.0351
460.02	0.0343
460.331	0.0352
460.642	0.0343
460.953	0.0349
461.263	0.0346
461.574	0.0347
461.885	0.0342
462.195	0.0341
462.506	0.0342
462.816	0.0339
463.126	0.0331
463.437	0.0327
463.747	0.0332
464.057	0.0332
464.367	0.0328
464.677	0.032
464.987	0.033
465.296	0.0328
465.606	0.0321
465.916	0.0319
466.225	0.0314
466.535	0.0315
466.844	0.0312
467.154	0.031
467.463	0.0309
467.772	0.031
468.081	0.0301
468.39	0.0303
468.699	0.0303
469.008	0.0307
469.317	0.0301
469.626	0.0302
469.935	0.0302
470.243	0.0301
470.552	0.0302
470.86	0.0299
471.169	0.0292
471.477	0.0294
471.785	0.0294
472.093	0.0287
472.402	0.0282
472.71	0.0289
473.018	0.0287
473.326	0.0277
473.633	0.0277
473.941	0.0281
474.249	0.0269
474.556	0.0269
474.864	0.027
475.171	0.0263
475.479	0.0267
475.786	0.0265
476.094	0.027
476.401	0.0261
476.708	0.0257
477.015	0.0264
477.322	0.0259
477.629	0.0255
477.936	0.0254
478.242	0.0248
478.549	0.0249
478.856	0.0242
479.162	0.0247
479.469	0.0248
479.775	0.0249
480.081	0.0232
480.388	0.0243
480.694	0.0238
481	0.0239
481.306	0.0238
481.612	0.0236
481.918	0.0227
482.224	0.0236
482.53	0.0232
482.835	0.0227
483.141	0.0215
483.446	0.0216
483.752	0.0215
484.057	0.0206
484.363	0.0208
484.668	0.0207
484.973	0.0203
485.278	0.0202
485.583	0.0196
485.888	0.0192
486.193	0.0194
486.498	0.0197
486.803	0.0204
487.107	0.0194
487.412	0.0191
487.717	0.0188
488.021	0.0189
488.325	0.0182
488.63	0.0178
488.934	0.0181
489.238	0.0185
489.542	0.0181
489.846	0.0173
490.15	0.0194
490.454	0.018
490.758	0.018
491.062	0.0174
491.366	0.0164
491.669	0.0171
491.973	0.0171
492.276	0.0168
492.58	0.0159
492.883	0.0164
493.186	0.0166
493.489	0.0161
493.792	0.0167
494.096	0.0166
494.399	0.0169
494.701	0.0162
495.004	0.016
495.307	0.015
495.61	0.0147
495.912	0.0146
496.215	0.0142
496.517	0.014
496.82	0.0137
497.122	0.0144
497.424	0.0132
497.727	0.0141
498.029	0.0139
498.331	0.0139
498.633	0.0136
498.935	0.0131
499.237	0.0133
499.538	0.0127
499.84	0.0132
500.142	0.0138
500.443	0.0127
500.745	0.0122
501.046	0.0121
501.348	0.0122
501.649	0.0125
501.95	0.0115
502.251	0.011
502.552	0.0108
502.853	0.0108
503.154	0.011
503.455	0.0111
503.756	0.0105
504.057	0.0112
504.357	0.0108
504.658	0.01
504.958	0.0109
505.259	0.0107
505.559	0.0113
505.859	0.0103
506.16	0.0105
506.46	0.0103
506.76	0.0104
507.06	0.009
507.36	0.0099
507.66	0.0098
507.96	0.0096
508.259	0.009
508.559	0.0086
508.859	0.0098
509.158	0.0091
509.457	0.0087
509.757	0.0097
510.056	0.0087
510.355	0.0088
510.655	0.0078
510.954	0.0085
511.253	0.0092
511.552	0.0088
511.851	0.0082
512.149	0.0077
512.448	0.0071
512.747	0.0089
513.045	0.0068
513.344	0.0077
513.642	0.0087
513.941	0.0077
514.239	0.0076
514.537	0.0076
514.836	0.0073
515.134	0.0075
515.432	0.0074
515.73	0.0078
516.028	0.0066
516.326	0.0072
516.623	0.0066
516.921	0.0064
517.219	0.0077
517.516	0.0074
517.814	0.007
518.111	0.0076
518.409	0.0077
518.706	0.0078
519.003	0.0069
519.3	0.006
519.597	0.0066
519.894	0.0064
520.191	0.0072
520.488	0.0062
520.785	0.0059
521.082	0.0068
521.378	0.0066
521.675	0.0048
521.971	0.005
522.268	0.0054
522.564	0.0052
522.861	0.0062
523.157	0.0048
523.453	0.0055
523.749	0.0061
524.045	0.0067
524.341	0.0057
524.637	0.0042
524.933	0.0053
525.229	0.0049
525.524	0.005
525.82	0.0062
526.115	0.0046
526.411	0.0052
526.706	0.0053
527.002	0.0055
527.297	0.0041
527.592	0.0069
527.887	0.0057
528.182	0.0061
528.477	0.0059
528.772	0.0048
529.067	0.0054
529.362	0.006
529.657	0.0053
529.951	0.0046
530.246	0.0049
530.54	0.0034
530.835	0.0035
531.129	0.0034
531.423	0.0047
531.718	0.0043
532.012	0.0042
532.306	0.0045
532.6	0.0034
532.894	0.004
533.188	0.0048
533.482	0.0042
533.775	0.0042
534.069	0.0042
534.363	0.003
534.656	0.0037
534.95	0.0024
535.243	0.003
535.536	0.0039
535.83	0.004
536.123	0.003
536.416	0.0033
536.709	0.0038
537.002	0.0048
537.295	0.0037
537.588	0.0043
537.881	0.0039
538.173	0.0033
538.466	0.0034
538.759	0.0031
539.051	0.0029
539.344	0.0023
539.636	0.003
539.928	0.0027
540.22	0.003
540.513	0.0032
540.805	0.0034
541.097	0.0038
541.389	0.0033
541.681	0.0032
541.972	0.0041
542.264	0.0026
542.556	0.0039
542.847	0.0033
543.139	0.004
543.431	0.0048
543.722	0.0028
544.013	0.0045
544.305	0.0053
544.596	0.0056
544.887	0.0033
545.178	0.004
545.469	0.0029
545.76	0.0034
546.051	0.0038
546.342	0.004
546.632	0.003
546.923	0.0034
547.214	0.0038
547.504	0.0035
547.795	0.0038
548.085	0.0033
548.375	0.0021
548.666	0.0037
548.956	0.0027
549.246	0.0032
549.536	0.0028
549.826	0.0034
550.116	0.0039
550.406	0.0037
550.695	0.0048
550.985	0.0038
551.275	0.0042
551.564	0.003
551.854	0.0043
552.143	0.0034
552.433	0.0039
552.722	0.0039
553.011	0.0041
553.3	0.0048
553.589	0.0041
553.879	0.0043
554.167	0.0037
554.456	0.0036
554.745	0.0028
555.034	0.0039
555.323	0.0019
555.611	0.0024
555.9	0.0045
556.188	0.003
556.477	0.0027
556.765	0.0024
557.053	0.0027
557.342	0.0026
557.63	0.0044
557.918	0.0028
558.206	0.0029
558.494	0.0044
558.782	0.0035
559.069	0.0038
559.357	0.0022
559.645	0.0032
559.932	0.0035
560.22	0.0041
560.507	0.004
560.795	0.0034
561.082	0.0037
561.37	0.0025
561.657	0.0032
561.944	0.0041
562.231	0.0036
562.518	0.0024
562.805	0.0033
563.092	0.0042
563.379	0.0037
563.665	0.0026
563.952	0.0041
564.239	0.0043
564.525	0.0036
564.811	0.0051
565.098	0.0039
565.384	0.0043
565.67	0.004
565.957	0.0041
566.243	0.0036
566.529	0.0039
566.815	0.0056
567.101	0.0039
567.387	0.0029
567.672	0.0034
567.958	0.0039
568.244	0.003
568.529	0.0033
568.815	0.0037
569.1	0.0034
569.386	0.0038
569.671	0.0033
569.956	0.0035
570.242	0.0037
570.527	0.004
570.812	0.004
571.097	0.0037
571.382	0.0033
571.666	0.0035
571.951	0.0034
572.236	0.0036
572.521	0.0031
572.805	0.0038
573.09	0.0029
573.374	0.0037
573.659	0.0024
573.943	0.0035
574.227	0.0032
574.511	0.0036
574.795	0.0036
575.079	0.0031
575.363	0.0028
575.647	0.0037
575.931	0.0037
576.215	0.0035
576.499	0.0026
576.782	0.0039
577.066	0.0032
577.349	0.0023
577.633	0.0036
577.916	0.0038
578.2	0.004
578.483	0.0037
578.766	0.0032
579.049	0.0041
579.332	0.0036
579.615	0.0036
579.898	0.0036
580.181	0.0034
580.464	0.0025
580.746	0.0028
581.029	0.0034
581.312	0.0025
581.594	0.0028
581.877	0.003
582.159	0.0036
582.441	0.0037
582.724	0.0025
583.006	0.0024
583.288	0.0024
583.57	0.0026
583.852	0.0024
584.134	0.002
584.416	0.0039
584.697	0.0024
584.979	0.0035
585.261	0.0031
585.542	0.0026
585.824	0.003
586.105	0.0031
586.387	0.0027
586.668	0.0035
586.949	0.0033
587.231	0.0022
587.512	0.0028
587.793	0.0028
588.074	0.0035
588.355	0.0025
588.636	0.004
588.916	0.0037
589.197	0.0035
589.478	0.0039
589.758	0.0034
590.039	0.0028
590.319	0.0031
590.6	0.0027
590.88	0.003
591.16	0.0033
591.441	0.0028
591.721	0.0033
592.001	0.0033
592.281	0.0026
592.561	0.0033
592.841	0.0032
593.12	0.003
593.4	0.0025
593.68	0.0032
593.959	0.0027
594.239	0.0038
594.518	0.0032
594.798	0.0031
595.077	0.0037
595.356	0.0034
595.636	0.0031
595.915	0.0036
596.194	0.0036
596.473	0.0038
596.752	0.0033
597.031	0.0033
597.31	0.0029
597.588	0.0025
597.867	0.0022
598.146	0.0027
598.424	0.0024
598.703	0.0029
598.981	0.0032
599.259	0.0031
599.538	0.0033
599.816	0.0037
600.094	0.0035
600.372	0.0035
600.65	0.0029
600.928	0.0034
601.206	0.0032
601.484	0.0032
601.762	0.004
602.04	0.0024
602.317	0.0037
602.595	0.0029
602.872	0.0032
603.15	0.0028
603.427	0.0022
603.704	0.0023
603.982	0.0025
604.259	0.0019
604.536	0.003
604.813	0.0028
605.09	0.0023
605.367	0.0024
605.644	0.0022
605.921	0.003
606.197	0.0025
606.474	0.0024
606.751	0.0024
607.027	0.0027
607.304	0.0018
607.58	0.0024
607.856	0.0022
608.133	0.0031
608.409	0.0031
608.685	0.0025
608.961	0.003
609.237	0.0028
609.513	0.0024
609.789	0.0028
610.065	0.0025
610.341	0.0029
610.616	0.0024
610.892	0.004
611.167	0.0029
611.443	0.0038
611.718	0.0022
611.994	0.0028
612.269	0.0036
612.544	0.0031
612.819	0.0029
613.095	0.0033
613.37	0.0025
613.645	0.0026
613.919	0.0023
614.194	0.0028
614.469	0.002
614.744	0.0009
615.019	0.0019
615.293	0.0007
615.568	0.0006
615.842	0.0009
616.116	0.001
616.391	0.0014
616.665	0.0021
616.939	0.0014
617.213	0.002
617.488	0.0018
617.762	0.0024
618.035	0.0026
618.309	0.0024
618.583	0.0017
618.857	0.0023
619.131	0.0024
619.404	0.0018
619.678	0.0016
619.951	0.0013
620.225	0.0015
620.498	0.0014
620.771	0.0023
621.045	0.0027
621.318	0.0029
621.591	0.0028
621.864	0.0012
622.137	0.0018
622.41	0.001
622.683	0.0011
622.956	0.0027
623.228	0.0024
623.501	0.0032
623.774	0.0036
624.046	0.0032
624.319	0.0021
624.591	0.0013
624.863	0.0023
625.136	0.002
625.408	0.0022
625.68	0.0018
625.952	0.0022
626.224	0.0021
626.496	0.0024
626.768	0.0006
627.04	0.0018
627.311	0.0021
627.583	0.0018
627.855	0.002
628.126	0.0022
628.398	0.0033
628.669	0.0028
628.941	0.0018
629.212	0.001
629.483	0.0015
629.755	0.0011
630.026	0.0009
630.297	0.0007
630.568	0.0005
630.839	0.0005
631.11	0.0001
631.38	0.0005
631.651	0.0009
631.922	0.0006
632.192	0.0003
632.463	0.0007
632.733	0.0007
633.004	0.001
633.274	0.0007
633.545	0.0016
633.815	0.0034
634.085	0.0035
634.355	0.0024
634.625	0.0042
634.895	0.0021
635.165	0.0011
635.435	0.0021
635.705	0.0023
635.974	0.001
636.244	0.0022
636.514	0.0019
636.783	0.0022
637.053	0.0024
637.322	0.0006
637.591	0.0028
637.861	0.0023
638.13	0.0026
638.399	0.0017
638.668	0.0034
638.937	0.0012
639.206	0.002
639.475	0.0019
639.744	0.0016
640.013	0.0023
640.281	0.0031
640.55	0.003
640.819	0.0036
641.087	0.0034
641.356	0.003
641.624	0.0025
641.892	0.0022
642.161	0.0024
642.429	0.0035
642.697	0.0028
642.965	0.0039
643.233	0.0036
643.501	0.0026
643.769	0.0023
644.037	0.0013
644.305	0.0014
644.572	-0.0003
644.84	0.0008
645.108	0.0011
645.375	0.0002
645.643	0.0016
645.91	0.0005
646.177	0.0025
646.445	0.0049
646.712	0.0047
646.979	0.0044
647.246	0.0044
647.513	0.0038
647.78	0.0039
648.047	0.0047
648.314	0.0031
648.58	0.0028
648.847	0.0017
649.114	0.0018
649.38	0.0012
649.647	0.0014
649.913	0.0016
650.18	0.002
650.446	0.002
650.712	0.0023
650.978	0.0025
651.245	0.0029
651.511	0.0028
651.777	0.0027
652.043	0.0032
652.309	0.0028
652.574	0.0031
652.84	0.0028
653.106	0.0022
653.371	0.0012
653.637	0.0017
653.903	0.0032
654.168	0.0033
654.433	0.0036
654.699	0.0026
654.964	0.0036
655.229	0.0028
655.494	0.0025
655.759	0.0011
656.024	0.0005
656.289	-0
656.554	-0.0008
656.819	0.0007
657.084	0.0026
657.349	0.003
657.613	0.0041
657.878	0.0034
658.142	0.0037
658.407	0.0038
658.671	0.0028
658.936	0.003
659.2	0.0018
659.464	0.0023
659.728	0.0013
659.992	0.0022
660.256	0.0012
660.52	0.0007
660.784	0.0006
661.048	0.0004
661.312	-0.0006
661.575	-0.0002
661.839	-0.0012
662.103	-0.0007
662.366	-0.0012
662.63	0.0011
662.893	0.0002
663.156	0.0005
663.42	-0.0002
663.683	0.0005
663.946	0.0023
664.209	0.0041
664.472	0.0025
664.735	0.0032
664.998	0.0025
665.261	0.002
665.524	0.0013
665.786	0.0012
666.049	0.0016
666.312	0.0023
666.574	0.0015
666.837	0.0017
667.099	0.0008
667.361	0.0007
667.624	-0
667.886	0.0008
668.148	0.0008
668.41	0.0028
668.672	0.001
668.934	0.0011
669.196	0.0015
669.458	0.0023
669.72	0.0022
669.982	0.0025
670.243	0.0033
670.505	0.0032
670.766	0.0021
671.028	0.0034
671.289	0.0026
671.551	0.0017
671.812	0.0007
672.073	0.0015
672.334	0.0004
672.596	0.0013
672.857	0.0007
673.118	0.0003
673.379	0.0003
673.639	-0.0008
673.9	0.0001
674.161	-0.0011
674.422	-0.0021
674.682	-0.0015
674.943	-0.0018
675.203	-0.0001
675.464	-0.0002
675.724	0.001
675.985	0.0007
676.245	0.0019
676.505	0.0021
676.765	0.0019
677.025	0.002
677.285	0.0016
677.545	0.0031
677.805	0.0036
678.065	0.0032
678.325	0.0027
678.585	0.0028
678.844	0.0024
679.104	0.0028
679.363	0.0021
679.623	0.003
679.882	0.0033
680.142	0.004
680.401	0.004
680.66	0.0047
680.919	0.0034
681.178	0.0041
681.437	0.0047
681.696	0.004
681.955	0.0038
682.214	0.0043
682.473	0.0047
682.732	0.0032
682.99	0.0026
683.249	0.0032
683.508	0.0034
683.766	0.0036
684.024	0.0041
684.283	0.0043
684.541	0.0039
684.799	0.004
685.058	0.0028
685.316	0.0034
685.574	0.0036
685.832	0.0038
686.09	0.0036
686.348	0.004
686.606	0.0031
686.863	0.0044
687.121	0.0042
687.379	0.0046
687.636	0.0043
687.894	0.0042
688.151	0.0053
688.409	0.0044
688.666	0.0045
688.923	0.0047
689.181	0.0038
689.438	0.0031
689.695	0.0026
689.952	0.0013
690.209	0.0021
690.466	0.0015
690.723	0.0038
690.979	0.0031
691.236	0.0025
691.493	0.0026
691.75	0.0032
692.006	0.0034
692.263	0.0042
692.519	0.0029
692.775	0.0024
693.032	0.001
693.288	0.0024
693.544	0.0031
693.8	0.0023
694.056	0.0022
694.313	0.0026
694.568	0.0026
694.824	0.0029
695.08	0.0036
695.336	0.0036
695.592	0.003
695.847	0.0036
696.103	0.0032
696.359	0.0032
696.614	0.0027
696.869	0.0026
697.125	0.0013
697.38	0.0008
697.635	0.0002
697.891	0.0008
698.146	0.0014
698.401	0.0036
698.656	0.0025
698.911	0.0032
699.166	0.0027
699.42	0.0024
699.675	0.0026
699.93	0.0008
700.185	0.002
700.439	0.0031
700.694	0.0025
700.948	0.0026
701.203	0.0036
701.457	0.0028
701.711	0.0016
701.965	0.0008
702.22	0.0003
702.474	0.0005
702.728	-0.0002
702.982	-0.0011
703.236	-0.0003
703.49	-0.0001
703.743	-0
703.997	0.0011
704.251	0.0012
704.504	0.0018
704.758	0.0009
705.012	0.0004
705.265	0.0005
705.518	0.0008
705.772	0.0005
706.025	0.0003
706.278	-0.0005
706.531	-0.0012
706.785	-0.0011
707.038	-0
707.291	0.0005
707.543	0.0007
707.796	0.0006
708.049	0.0007
708.302	-0.0004
708.555	0.001
708.807	0.0006
709.06	-0.0003
709.312	-0.0009
709.565	-0.0007
709.817	-0.0014
710.069	-0.0007
710.322	-0.0002
710.574	0.0002
710.826	-0.0002
711.078	0.0007
711.33	0.0009
711.582	0.0001
711.834	0.0015
712.086	0.0017
712.338	0.0025
712.59	0.0029
712.841	0.0028
713.093	0.0024
713.344	0.0028
713.596	0.0026
713.847	0.0031
714.099	0.0026
714.35	0.0026
714.601	0.0036
714.853	0.0041
715.104	0.004
715.355	0.003
715.606	0.0027
715.857	0.0029
716.108	0.0034
716.359	0.0033
716.609	0.0036
716.86	0.003
717.111	0.0018
717.361	0.0012
717.612	0.0013
717.863	0.0011
718.113	0.0011
718.363	0.0008
718.614	0.0008
718.864	0.0019
719.114	0.0012
719.364	0.0011
719.614	0.0001
719.865	-0.0005
720.114	0.0007
720.364	0.0003
720.614	0.0023
720.864	0.0035
721.114	0.0026
721.364	0.0028
721.613	0.0035
721.863	0.0041
722.112	0.0034
722.362	0.0038
722.611	0.0036
722.86	0.0022
723.11	0.0017
723.359	0.002
723.608	0.0033
723.857	0.0031
724.106	0.0049
724.355	0.005
724.604	0.006
724.853	0.0046
725.102	0.0037
725.351	0.0031
725.599	0.0029
725.848	0.0028
726.097	0.0024
726.345	0.002
726.594	0.002
726.842	0.0016
727.09	0.0019
727.339	0.0016
727.587	0.0011
727.835	0.0004
728.083	0.0002
728.331	-0.0003
728.579	-0.0011
728.827	0.0002
729.075	0.0012
729.323	0.0018
729.571	0.0029
729.818	0.0026
730.066	0.0033
730.314	0.0031
730.561	0.0012
730.809	0.0005
731.056	0.0004
731.303	-0.0003
731.551	0.0009
731.798	0.0015
732.045	0.0009
732.292	0.0019
732.539	0.001
732.786	0.0017
733.033	0.0021
733.28	0.0024
733.527	0.0041
733.774	0.0033
734.021	0.0044
734.267	0.004
734.514	0.0046
734.76	0.004
735.007	0.0051
735.253	0.0059
735.5	0.0049
735.746	0.0059
735.992	0.0054
736.238	0.0048
736.485	0.0059
736.731	0.0058
736.977	0.0057
737.223	0.0048
737.469	0.0052
737.715	0.0051
737.96	0.0071
738.206	0.0066
738.452	0.0086
738.697	0.0089
738.943	0.0076
739.189	0.0064
739.434	0.004
739.679	0.0036
739.925	0.0031
740.17	0.0026
740.415	0.0025
740.66	0.0032
740.906	0.0042
741.151	0.0031
741.396	0.0038
741.641	0.0058
741.886	0.0062
742.13	0.0062
742.375	0.0065
742.62	0.0073
742.865	0.0061
743.109	0.0055
743.354	0.0052
743.598	0.005
743.843	0.0059
744.087	0.0056
744.331	0.0056
744.576	0.0059
744.82	0.0052
745.064	0.005
745.308	0.0031
745.552	0.0039
745.796	0.0041
746.04	0.0037
746.284	0.002
746.528	0.001
746.771	0.0018
747.015	0.0022
747.259	0.0025
747.502	0.0014
747.746	0.0021
747.989	0.0022
748.233	0.0041
748.476	0.0036
748.719	0.0046
748.963	0.0052
749.206	0.0049
749.449	0.0048
749.692	0.0039
749.935	0.0057
750.178	0.0046
750.421	0.0046
750.664	0.0044
750.906	0.0048
751.149	0.0034
751.392	0.0027
751.635	0.0013
751.877	0.0004
752.12	0.0007
752.362	0.0014
752.604	0.0008
752.847	0.0016
753.089	0.0017
753.331	0.0025
753.573	0.0019
753.816	0.0031
754.058	0.0039
754.3	0.0044
754.542	0.0047
754.783	0.0047
755.025	0.0036
755.267	0.0022
755.509	0.0017
755.75	0.0015
755.992	0.0019
756.234	0.0017
756.475	0.0005
756.716	0.0004
756.958	0.0005
757.199	0.0008
757.44	0.0019
757.682	0.0013
757.923	0.0005
758.164	0.0005
758.405	0.0007
758.646	0.0012
758.887	0.0007
759.128	0.0013
759.369	0.0003
759.609	0.0004
759.85	0
760.091	0.0006
760.331	0.0004
760.572	-0.0002
760.812	-0.0002
761.053	0.0003
761.293	0.0008
761.533	0.0017
761.774	0.0018
762.014	0.0019
762.254	0.0023
762.494	0.0008
762.734	0.0013
762.974	0.0012
763.214	0.0004
763.454	0.0001
763.694	-0.0005
763.933	-0.0008
764.173	0.0011
764.413	0.0006
764.652	0.0009
764.892	0.0015
765.131	0.0016
765.371	0.0015
765.61	0.0021
765.849	0.0016
766.089	0.0023
766.328	0.0033
766.567	0.0028
766.806	0.0041
767.045	0.0037
767.284	0.004
767.523	0.004
767.762	0.0049
768.001	0.0037
768.239	0.0036
768.478	0.0026
768.717	0.0028
768.955	0.0034
769.194	0.0024
769.432	0.0027
769.671	0.0035
769.909	0.0031
770.148	0.0038
770.386	0.0033
770.624	0.0027
770.862	0.0032
771.1	0.0029
771.338	0.0028
771.576	0.0032
771.814	0.003
772.052	0.0026
772.29	0.0035
772.528	0.0041
772.765	0.0032
773.003	0.0045
773.24	0.0037
773.478	0.0033
773.716	0.0043
773.953	0.0036
774.19	0.0048
774.428	0.0038
774.665	0.0042
774.902	0.0043
775.139	0.003
775.376	0.0033
775.613	0.0026
775.85	0.0033
776.087	0.0028
776.324	0.0035
776.561	0.0045
776.798	0.0055
777.034	0.0063
777.271	0.0073
777.508	0.0074
777.744	0.0062
777.981	0.0058
778.217	0.006
778.454	0.0055
778.69	0.0053
778.926	0.0046
779.162	0.005
779.399	0.0045
779.635	0.0044
779.871	0.0039
780.107	0.0053
780.343	0.0052
780.579	0.0063
780.814	0.0052
781.05	0.0052
781.286	0.0054
781.522	0.0046
781.757	0.0065
781.993	0.0059
782.228	0.0066
782.464	0.0063
782.699	0.0049
782.934	0.0051
783.17	0.0051
783.405	0.0046
783.64	0.0042
783.875	0.0036
784.11	0.0042
784.345	0.0045
784.58	0.0045
784.815	0.0045
785.05	0.0052
785.285	0.0036
785.52	0.0028
785.754	0.0037
785.989	0.0026
786.223	0.0022
786.458	0.0028
786.692	0.0026
786.927	0.0021
787.161	0.003
787.396	0.0021
787.63	0.0021
787.864	0.0009
788.098	0.001
788.332	0.0013
788.566	0.001
788.8	0.0012
789.034	0.0015
789.268	0.0015
789.502	0.0023
789.736	0.0029
789.969	0.0029
790.203	0.0027
790.437	0.0023
790.67	0.0023
790.904	0.0023
791.137	0.002
791.37	0.0013
791.604	0.0008
791.837	0.0012
792.07	0.0007
792.303	0.0012
792.537	0.0011
792.77	-0.0001
793.003	0.0011
793.236	-0.0007
793.469	-0.0006
793.701	0.001
793.934	0.0011
794.167	0.0008
794.4	0.0008
794.632	0.0005
794.865	-0.0001
795.097	0.0021
795.33	0.0019
795.562	0.0014
795.795	0.002
796.027	0.0019
796.259	0.0019
796.491	0.001
796.724	0.0013
796.956	0.0017
797.188	0.0017
797.42	0.0009
797.652	0.0017
797.883	0.0008
798.115	0.0005
798.347	0.0002
798.579	-0.0008
798.81	-0.0013
799.042	-0.001
799.274	-0.0015
799.505	-0.0012
799.737	-0.0014
799.968	-0.0013
800.199	-0.0003
800.431	-0.0008
800.662	0.0001
800.893	-0.0003
801.124	0.0005
801.355	0.0003
801.586	0.0003
801.817	0.0003
802.048	0.0012
802.279	0
802.51	0.0014
802.741	-0.0014
802.971	0.0001
803.202	-0.0007
803.433	-0.0016
803.663	-0.0011
803.894	-0.0001
804.124	0.0009
804.354	0.0004
804.585	0.0005
804.815	0.0009
805.045	0.0001
805.275	-0.0015
805.506	-0.0353
805.736	0.0861
805.966	0.0613
806.196	0.1123
