Data from 03 0.2 mM BQDS 0.4 mM K2Cr2O7 1 M H2SO4 5 min_Absorbance_16-02-42-932.txt Node
Date: Wed Dec 08 16:02:42 EST 2021
User: kwabilab-user
Spectrometer: HDX00518
Trigger mode: 0
Integration Time (sec): 5.000000E-2
Scans to average: 50
Nonlinearity correction enabled: false
Boxcar width: 0
Storing dark spectrum: false
XAxis mode: Wavelengths
Number of Pixels in Spectrum: 2068
>>>>>Begin Spectral Data<<<<<
195.27	0.0772
195.642	0.1816
196.014	0.1091
196.386	0.1063
196.758	0.0427
197.129	0.0268
197.501	0.0597
197.872	0.1097
198.244	0.1298
198.615	0.1197
198.986	0.1185
199.357	0.0983
199.728	0.1218
200.099	0.0988
200.47	0.1186
200.841	0.111
201.212	0.1223
201.582	0.1063
201.953	0.1207
202.323	0.1027
202.694	0.1043
203.064	0.1311
203.434	0.1146
203.804	0.1297
204.174	0.1153
204.544	0.1184
204.914	0.1204
205.284	0.1379
205.653	0.1205
206.023	0.123
206.393	0.1095
206.762	0.1191
207.131	0.1286
207.501	0.1282
207.87	0.1251
208.239	0.1081
208.608	0.1177
208.977	0.1431
209.346	0.145
209.715	0.1378
210.083	0.1498
210.452	0.1478
210.82	0.1657
211.189	0.146
211.557	0.1426
211.925	0.1674
212.294	0.1743
212.662	0.1677
213.03	0.1782
213.398	0.1641
213.766	0.1839
214.133	0.2058
214.501	0.2129
214.869	0.1988
215.236	0.2542
215.604	0.2321
215.971	0.2572
216.338	0.2596
216.705	0.2936
217.072	0.3073
217.439	0.3108
217.806	0.3517
218.173	0.3807
218.54	0.42
218.907	0.4367
219.273	0.4821
219.64	0.5081
220.006	0.5589
220.373	0.5867
220.739	0.6222
221.105	0.6575
221.471	0.6821
221.837	0.7243
222.203	0.7704
222.569	0.8029
222.935	0.834
223.3	0.8566
223.666	0.8869
224.031	0.9299
224.397	0.935
224.762	0.9543
225.127	0.9724
225.493	0.9872
225.858	0.9938
226.223	0.9998
226.588	1.0138
226.952	1.0074
227.317	1.0231
227.682	1.0149
228.046	1.0172
228.411	1.0184
228.775	1.0091
229.14	1.0111
229.504	1.0054
229.868	0.9992
230.232	0.9868
230.596	0.9806
230.96	0.9777
231.324	0.9702
231.688	0.9611
232.052	0.9561
232.415	0.9439
232.779	0.9382
233.142	0.9264
233.505	0.9198
233.869	0.9102
234.232	0.9002
234.595	0.8875
234.958	0.8847
235.321	0.8742
235.684	0.8647
236.047	0.8535
236.409	0.8432
236.772	0.8342
237.134	0.8263
237.497	0.8149
237.859	0.8112
238.222	0.7997
238.584	0.79
238.946	0.783
239.308	0.7746
239.67	0.768
240.032	0.759
240.393	0.7524
240.755	0.7416
241.117	0.7372
241.478	0.7306
241.84	0.7241
242.201	0.7156
242.562	0.7106
242.924	0.7024
243.285	0.6972
243.646	0.6904
244.007	0.686
244.368	0.6806
244.728	0.6743
245.089	0.6678
245.45	0.6652
245.81	0.6614
246.171	0.6584
246.531	0.6489
246.891	0.6471
247.252	0.641
247.612	0.6388
247.972	0.6354
248.332	0.6326
248.692	0.6291
249.051	0.623
249.411	0.6213
249.771	0.6167
250.13	0.6156
250.49	0.612
250.849	0.6096
251.208	0.6073
251.568	0.6028
251.927	0.601
252.286	0.602
252.645	0.5962
253.004	0.5923
253.363	0.59
253.721	0.5904
254.08	0.5863
254.439	0.5845
254.797	0.5837
255.155	0.5807
255.514	0.5795
255.872	0.5784
256.23	0.5743
256.588	0.5716
256.946	0.5711
257.304	0.5692
257.662	0.5683
258.02	0.565
258.377	0.5627
258.735	0.5623
259.093	0.5591
259.45	0.5581
259.807	0.5561
260.165	0.5562
260.522	0.5525
260.879	0.5506
261.236	0.5492
261.593	0.5465
261.95	0.5444
262.306	0.545
262.663	0.5395
263.02	0.542
263.376	0.5364
263.733	0.5341
264.089	0.534
264.445	0.5298
264.802	0.5295
265.158	0.5277
265.514	0.5264
265.87	0.5223
266.226	0.521
266.581	0.518
266.937	0.516
267.293	0.5131
267.648	0.5127
268.004	0.5103
268.359	0.5062
268.714	0.5031
269.07	0.501
269.425	0.4982
269.78	0.4991
270.135	0.4954
270.49	0.4945
270.844	0.4903
271.199	0.4868
271.554	0.4861
271.908	0.4828
272.263	0.4785
272.617	0.4799
272.972	0.4738
273.326	0.4714
273.68	0.4699
274.034	0.4673
274.388	0.465
274.742	0.4595
275.096	0.4568
275.45	0.4558
275.803	0.4524
276.157	0.4473
276.51	0.4452
276.864	0.4425
277.217	0.4394
277.571	0.4351
277.924	0.4316
278.277	0.4284
278.63	0.426
278.983	0.4235
279.336	0.4193
279.688	0.415
280.041	0.4126
280.394	0.4086
280.746	0.4062
281.099	0.4009
281.451	0.3982
281.803	0.3936
282.156	0.3909
282.508	0.388
282.86	0.3842
283.212	0.3794
283.564	0.3767
283.916	0.3716
284.267	0.3689
284.619	0.3662
284.971	0.3618
285.322	0.3585
285.673	0.3553
286.025	0.3524
286.376	0.3469
286.727	0.3433
287.078	0.3392
287.429	0.3378
287.78	0.332
288.131	0.3278
288.482	0.324
288.833	0.3217
289.183	0.3173
289.534	0.314
289.884	0.3097
290.235	0.3057
290.585	0.3011
290.935	0.2993
291.285	0.2945
291.635	0.2912
291.985	0.2872
292.335	0.284
292.685	0.2806
293.035	0.2766
293.384	0.2724
293.734	0.2687
294.083	0.265
294.433	0.2612
294.782	0.258
295.131	0.2545
295.48	0.2518
295.829	0.2476
296.179	0.2443
296.527	0.241
296.876	0.2383
297.225	0.2367
297.574	0.2319
297.922	0.2288
298.271	0.2258
298.619	0.2224
298.968	0.2196
299.316	0.2166
299.664	0.2141
300.012	0.2116
300.36	0.2072
300.708	0.205
301.056	0.2031
301.404	0.2006
301.752	0.1976
302.099	0.1956
302.447	0.1936
302.794	0.1905
303.142	0.1882
303.489	0.1861
303.836	0.184
304.183	0.1819
304.531	0.1801
304.878	0.1791
305.224	0.1768
305.571	0.1754
305.918	0.1738
306.265	0.1718
306.611	0.171
306.958	0.1687
307.304	0.1677
307.651	0.1664
307.997	0.1656
308.343	0.164
308.689	0.1627
309.035	0.1618
309.381	0.1609
309.727	0.1595
310.073	0.1589
310.419	0.1581
310.764	0.1578
311.11	0.1569
311.455	0.1564
311.801	0.1553
312.146	0.1553
312.491	0.1543
312.837	0.1542
313.182	0.1546
313.527	0.1536
313.872	0.1535
314.216	0.1531
314.561	0.1528
314.906	0.1533
315.251	0.1528
315.595	0.1526
315.94	0.1526
316.284	0.1532
316.628	0.1528
316.972	0.1526
317.317	0.1533
317.661	0.1537
318.005	0.1536
318.348	0.1544
318.692	0.1541
319.036	0.1544
319.38	0.1553
319.723	0.1554
320.067	0.1561
320.41	0.1564
320.754	0.1572
321.097	0.158
321.44	0.1581
321.783	0.1585
322.126	0.1597
322.469	0.161
322.812	0.1617
323.155	0.1625
323.498	0.1633
323.84	0.1641
324.183	0.1652
324.525	0.166
324.868	0.1675
325.21	0.1683
325.552	0.1687
325.894	0.1694
326.236	0.171
326.578	0.1716
326.92	0.1731
327.262	0.1734
327.604	0.1747
327.946	0.1761
328.287	0.1772
328.629	0.1777
328.97	0.1793
329.312	0.1805
329.653	0.1814
329.994	0.1828
330.335	0.1843
330.676	0.1847
331.017	0.1857
331.358	0.187
331.699	0.1883
332.04	0.1895
332.38	0.1906
332.721	0.1927
333.061	0.193
333.402	0.1946
333.742	0.1964
334.083	0.1974
334.423	0.1977
334.763	0.1983
335.103	0.2001
335.443	0.2003
335.783	0.202
336.123	0.2021
336.462	0.2036
336.802	0.2047
337.141	0.2053
337.481	0.2062
337.82	0.2066
338.16	0.2076
338.499	0.2085
338.838	0.2093
339.177	0.2116
339.516	0.2115
339.855	0.2128
340.194	0.2134
340.533	0.2138
340.872	0.2153
341.21	0.2162
341.549	0.2162
341.887	0.2171
342.226	0.2176
342.564	0.2171
342.902	0.2184
343.24	0.2185
343.578	0.2184
343.916	0.2191
344.254	0.2197
344.592	0.2192
344.93	0.2196
345.268	0.2195
345.605	0.2197
345.943	0.22
346.28	0.2197
346.618	0.2199
346.955	0.2201
347.292	0.2203
347.629	0.2208
347.966	0.2208
348.303	0.2217
348.64	0.2207
348.977	0.2204
349.314	0.2201
349.65	0.2209
349.987	0.2205
350.324	0.2195
350.66	0.2195
350.996	0.2194
351.333	0.2187
351.669	0.2176
352.005	0.2171
352.341	0.2171
352.677	0.2161
353.013	0.2144
353.349	0.2145
353.685	0.2132
354.02	0.2124
354.356	0.2115
354.691	0.2102
355.027	0.2096
355.362	0.2087
355.697	0.2078
356.033	0.2071
356.368	0.2058
356.703	0.2057
357.038	0.2047
357.373	0.2034
357.707	0.2028
358.042	0.2019
358.377	0.201
358.711	0.1997
359.046	0.199
359.38	0.198
359.715	0.1973
360.049	0.1962
360.383	0.1951
360.717	0.1933
361.051	0.1918
361.385	0.1912
361.719	0.1892
362.053	0.1892
362.387	0.1861
362.72	0.1847
363.054	0.1826
363.387	0.1811
363.721	0.1797
364.054	0.1783
364.387	0.1761
364.721	0.1753
365.054	0.1728
365.387	0.1716
365.72	0.1704
366.053	0.1687
366.385	0.167
366.718	0.166
367.051	0.1642
367.383	0.1632
367.716	0.1615
368.048	0.1606
368.381	0.1592
368.713	0.1582
369.045	0.157
369.377	0.1557
369.709	0.1543
370.041	0.1531
370.373	0.1523
370.705	0.1505
371.037	0.1484
371.368	0.1474
371.7	0.1468
372.031	0.144
372.363	0.1427
372.694	0.141
373.025	0.139
373.356	0.1381
373.688	0.1357
374.019	0.1329
374.35	0.1312
374.68	0.13
375.011	0.1277
375.342	0.1262
375.673	0.1243
376.003	0.1229
376.334	0.1212
376.664	0.1196
376.995	0.1176
377.325	0.1168
377.655	0.1161
377.985	0.1144
378.315	0.1135
378.645	0.1115
378.975	0.1105
379.305	0.1093
379.635	0.1087
379.964	0.1066
380.294	0.1058
380.623	0.1045
380.953	0.1035
381.282	0.1027
381.611	0.1008
381.941	0.0997
382.27	0.099
382.599	0.0965
382.928	0.0958
383.257	0.0948
383.585	0.094
383.914	0.0919
384.243	0.0905
384.571	0.0887
384.9	0.0873
385.228	0.086
385.557	0.0845
385.885	0.0833
386.213	0.0819
386.541	0.0807
386.869	0.0789
387.197	0.0773
387.525	0.0751
387.853	0.0745
388.181	0.0736
388.508	0.0727
388.836	0.0716
389.164	0.0705
389.491	0.0693
389.818	0.0684
390.146	0.0678
390.473	0.0658
390.8	0.0654
391.127	0.064
391.454	0.0634
391.781	0.0622
392.108	0.0611
392.435	0.06
392.761	0.0591
393.088	0.0588
393.415	0.058
393.741	0.0578
394.067	0.0565
394.394	0.0565
394.72	0.0555
395.046	0.0543
395.372	0.0531
395.698	0.0523
396.024	0.052
396.35	0.051
396.676	0.0513
397.001	0.0505
397.327	0.049
397.653	0.0481
397.978	0.0471
398.303	0.0462
398.629	0.0453
398.954	0.0456
399.279	0.0452
399.604	0.0446
399.929	0.0437
400.254	0.0431
400.579	0.0428
400.904	0.042
401.229	0.0411
401.553	0.0404
401.878	0.04
402.202	0.0399
402.527	0.0393
402.851	0.0397
403.175	0.0389
403.5	0.0387
403.824	0.039
404.148	0.0381
404.472	0.038
404.796	0.0372
405.119	0.0371
405.443	0.0367
405.767	0.036
406.09	0.0364
406.414	0.0369
406.737	0.0357
407.061	0.0358
407.384	0.036
407.707	0.0349
408.03	0.036
408.353	0.036
408.676	0.0354
408.999	0.035
409.322	0.0349
409.645	0.0354
409.968	0.0345
410.29	0.0354
410.613	0.0342
410.935	0.0342
411.258	0.035
411.58	0.0341
411.902	0.0347
412.224	0.0346
412.546	0.0344
412.868	0.0335
413.19	0.0347
413.512	0.0346
413.834	0.0338
414.156	0.0351
414.477	0.0347
414.799	0.0345
415.121	0.035
415.442	0.0348
415.763	0.0348
416.085	0.0346
416.406	0.0351
416.727	0.0351
417.048	0.0347
417.369	0.035
417.69	0.0343
418.011	0.0345
418.331	0.0353
418.652	0.0351
418.973	0.0349
419.293	0.035
419.614	0.0352
419.934	0.0348
420.254	0.035
420.574	0.0351
420.895	0.0352
421.215	0.0345
421.535	0.0345
421.855	0.0349
422.174	0.0349
422.494	0.0348
422.814	0.0357
423.134	0.0355
423.453	0.0354
423.773	0.0357
424.092	0.035
424.411	0.0352
424.731	0.0357
425.05	0.0359
425.369	0.0362
425.688	0.0358
426.007	0.0363
426.326	0.0368
426.644	0.0367
426.963	0.0366
427.282	0.0369
427.6	0.0366
427.919	0.0365
428.237	0.0368
428.556	0.0369
428.874	0.0364
429.192	0.036
429.51	0.0366
429.828	0.0371
430.146	0.037
430.464	0.037
430.782	0.0367
431.1	0.0373
431.418	0.0368
431.735	0.0367
432.053	0.0375
432.37	0.0376
432.688	0.0368
433.005	0.0368
433.322	0.0376
433.639	0.0373
433.957	0.0374
434.274	0.0377
434.591	0.0371
434.907	0.0382
435.224	0.0375
435.541	0.0373
435.858	0.038
436.174	0.0377
436.491	0.0374
436.807	0.0376
437.124	0.0371
437.44	0.0368
437.756	0.0371
438.072	0.0366
438.388	0.0379
438.704	0.0374
439.02	0.038
439.336	0.0367
439.652	0.0376
439.968	0.0375
440.283	0.0372
440.599	0.0374
440.914	0.0372
441.23	0.0371
441.545	0.0374
441.86	0.0367
442.175	0.0376
442.491	0.0375
442.806	0.0365
443.121	0.0368
443.435	0.0369
443.75	0.0363
444.065	0.0368
444.38	0.0366
444.694	0.0371
445.009	0.0366
445.323	0.0369
445.638	0.0366
445.952	0.0371
446.266	0.0371
446.58	0.0371
446.894	0.0369
447.208	0.0375
447.522	0.0369
447.836	0.0353
448.15	0.0363
448.464	0.0356
448.777	0.036
449.091	0.035
449.404	0.0362
449.718	0.0361
450.031	0.0362
450.345	0.0357
450.658	0.0357
450.971	0.0359
451.284	0.0348
451.597	0.0359
451.91	0.0361
452.223	0.0347
452.535	0.0359
452.848	0.0352
453.161	0.0355
453.473	0.0356
453.786	0.0357
454.098	0.0355
454.411	0.0345
454.723	0.0347
455.035	0.0349
455.347	0.0356
455.659	0.035
455.971	0.0346
456.283	0.0352
456.595	0.0348
456.907	0.0348
457.218	0.0346
457.53	0.0337
457.841	0.0335
458.153	0.0335
458.464	0.0334
458.776	0.0321
459.087	0.0323
459.398	0.033
459.709	0.0323
460.02	0.0329
460.331	0.0322
460.642	0.0322
460.953	0.0321
461.263	0.0324
461.574	0.0325
461.885	0.0315
462.195	0.0319
462.506	0.0322
462.816	0.0315
463.126	0.0308
463.437	0.0316
463.747	0.0299
464.057	0.0307
464.367	0.0309
464.677	0.0302
464.987	0.0304
465.296	0.0294
465.606	0.0292
465.916	0.029
466.225	0.0289
466.535	0.0292
466.844	0.029
467.154	0.0284
467.463	0.0282
467.772	0.029
468.081	0.0277
468.39	0.0285
468.699	0.0278
469.008	0.0285
469.317	0.0281
469.626	0.0281
469.935	0.0277
470.243	0.0284
470.552	0.0281
470.86	0.0271
471.169	0.0271
471.477	0.0277
471.785	0.0274
472.093	0.027
472.402	0.0266
472.71	0.0267
473.018	0.0261
473.326	0.0255
473.633	0.0252
473.941	0.0259
474.249	0.0255
474.556	0.0253
474.864	0.0243
475.171	0.0246
475.479	0.0247
475.786	0.0255
476.094	0.025
476.401	0.0244
476.708	0.0244
477.015	0.0246
477.322	0.024
477.629	0.0244
477.936	0.0234
478.242	0.0232
478.549	0.0232
478.856	0.0221
479.162	0.0223
479.469	0.0232
479.775	0.0229
480.081	0.0223
480.388	0.0221
480.694	0.0217
481	0.0215
481.306	0.0218
481.612	0.0216
481.918	0.0208
482.224	0.0214
482.53	0.0209
482.835	0.021
483.141	0.0196
483.446	0.0196
483.752	0.0197
484.057	0.0189
484.363	0.0192
484.668	0.0189
484.973	0.0184
485.278	0.0179
485.583	0.0179
485.888	0.0176
486.193	0.0168
486.498	0.0176
486.803	0.0186
487.107	0.0178
487.412	0.0166
487.717	0.0172
488.021	0.0179
488.325	0.0159
488.63	0.0159
488.934	0.0169
489.238	0.0174
489.542	0.017
489.846	0.0151
490.15	0.0168
490.454	0.016
490.758	0.0172
491.062	0.0159
491.366	0.0155
491.669	0.0147
491.973	0.0156
492.276	0.0152
492.58	0.0139
492.883	0.0155
493.186	0.0149
493.489	0.0143
493.792	0.0147
494.096	0.0144
494.399	0.0148
494.701	0.0146
495.004	0.0141
495.307	0.0133
495.61	0.0125
495.912	0.0126
496.215	0.0118
496.517	0.013
496.82	0.0124
497.122	0.0121
497.424	0.012
497.727	0.0124
498.029	0.0128
498.331	0.0132
498.633	0.0124
498.935	0.0119
499.237	0.0115
499.538	0.0113
499.84	0.0111
500.142	0.0132
500.443	0.0117
500.745	0.0117
501.046	0.0116
501.348	0.0099
501.649	0.011
501.95	0.01
502.251	0.0114
502.552	0.0096
502.853	0.01
503.154	0.0097
503.455	0.0093
503.756	0.0092
504.057	0.0097
504.357	0.0095
504.658	0.01
504.958	0.009
505.259	0.0097
505.559	0.0103
505.859	0.0085
506.16	0.0087
506.46	0.0094
506.76	0.0094
507.06	0.0085
507.36	0.0095
507.66	0.0088
507.96	0.0092
508.259	0.0079
508.559	0.0075
508.859	0.0077
509.158	0.0083
509.457	0.0086
509.757	0.0084
510.056	0.0073
510.355	0.0075
510.655	0.0064
510.954	0.0072
511.253	0.0072
511.552	0.0074
511.851	0.0069
512.149	0.0059
512.448	0.0061
512.747	0.0076
513.045	0.0051
513.344	0.0075
513.642	0.0072
513.941	0.0062
514.239	0.007
514.537	0.007
514.836	0.0067
515.134	0.005
515.432	0.007
515.73	0.0077
516.028	0.0059
516.326	0.0073
516.623	0.0056
516.921	0.0061
517.219	0.0073
517.516	0.0061
517.814	0.006
518.111	0.0068
518.409	0.0071
518.706	0.007
519.003	0.0066
519.3	0.0054
519.597	0.0051
519.894	0.0062
520.191	0.0066
520.488	0.0059
520.785	0.0053
521.082	0.0063
521.378	0.0063
521.675	0.0042
521.971	0.0052
522.268	0.0049
522.564	0.0052
522.861	0.0052
523.157	0.0045
523.453	0.0044
523.749	0.0051
524.045	0.0057
524.341	0.0047
524.637	0.0052
524.933	0.0051
525.229	0.0047
525.524	0.0041
525.82	0.0047
526.115	0.004
526.411	0.0043
526.706	0.0047
527.002	0.0052
527.297	0.003
527.592	0.0053
527.887	0.0049
528.182	0.0054
528.477	0.0059
528.772	0.0038
529.067	0.0052
529.362	0.004
529.657	0.0045
529.951	0.0037
530.246	0.0039
530.54	0.0028
530.835	0.0029
531.129	0.0035
531.423	0.0042
531.718	0.0032
532.012	0.0042
532.306	0.0031
532.6	0.0037
532.894	0.0032
533.188	0.0045
533.482	0.0028
533.775	0.0033
534.069	0.0024
534.363	0.0019
534.656	0.0025
534.95	0.0019
535.243	0.0031
535.536	0.0034
535.83	0.0037
536.123	0.0024
536.416	0.0032
536.709	0.0038
537.002	0.0043
537.295	0.003
537.588	0.0037
537.881	0.003
538.173	0.0019
538.466	0.0016
538.759	0.0021
539.051	0.0017
539.344	0.0021
539.636	0.0023
539.928	0.0024
540.22	0.0034
540.513	0.0034
540.805	0.0028
541.097	0.0033
541.389	0.003
541.681	0.0028
541.972	0.0027
542.264	0.002
542.556	0.0023
542.847	0.0027
543.139	0.0024
543.431	0.0042
543.722	0.0034
544.013	0.0039
544.305	0.0037
544.596	0.0044
544.887	0.0038
545.178	0.0031
545.469	0.0023
545.76	0.0019
546.051	0.003
546.342	0.0035
546.632	0.0018
546.923	0.003
547.214	0.003
547.504	0.0032
547.795	0.0023
548.085	0.0037
548.375	0.0017
548.666	0.0031
548.956	0.0021
549.246	0.0031
549.536	0.0025
549.826	0.0035
550.116	0.0038
550.406	0.0031
550.695	0.003
550.985	0.0034
551.275	0.0044
551.564	0.0031
551.854	0.0034
552.143	0.0041
552.433	0.0031
552.722	0.0021
553.011	0.0026
553.3	0.0025
553.589	0.0027
553.879	0.002
554.167	0.0033
554.456	0.003
554.745	0.0024
555.034	0.0021
555.323	0.0014
555.611	0.0026
555.9	0.0023
556.188	0.0025
556.477	0.0029
556.765	0.0034
557.053	0.0021
557.342	0.0014
557.63	0.0031
557.918	0.0027
558.206	0.003
558.494	0.0035
558.782	0.003
559.069	0.0027
559.357	0.0036
559.645	0.0024
559.932	0.0032
560.22	0.0042
560.507	0.0031
560.795	0.0035
561.082	0.0029
561.37	0.0035
561.657	0.0032
561.944	0.0032
562.231	0.0034
562.518	0.0023
562.805	0.0038
563.092	0.0027
563.379	0.0033
563.665	0.0027
563.952	0.0034
564.239	0.0043
564.525	0.0044
564.811	0.0046
565.098	0.0041
565.384	0.0039
565.67	0.0035
565.957	0.0039
566.243	0.0033
566.529	0.0041
566.815	0.0044
567.101	0.003
567.387	0.0026
567.672	0.0027
567.958	0.004
568.244	0.0032
568.529	0.0036
568.815	0.0032
569.1	0.0035
569.386	0.0026
569.671	0.0027
569.956	0.0032
570.242	0.002
570.527	0.0031
570.812	0.0027
571.097	0.0029
571.382	0.0024
571.666	0.0022
571.951	0.0024
572.236	0.0024
572.521	0.0021
572.805	0.0038
573.09	0.0025
573.374	0.0025
573.659	0.002
573.943	0.0025
574.227	0.0028
574.511	0.0028
574.795	0.0022
575.079	0.002
575.363	0.0024
575.647	0.0027
575.931	0.0029
576.215	0.0025
576.499	0.002
576.782	0.0027
577.066	0.0027
577.349	0.0025
577.633	0.0028
577.916	0.0025
578.2	0.0032
578.483	0.003
578.766	0.0026
579.049	0.0031
579.332	0.0034
579.615	0.0022
579.898	0.0028
580.181	0.0024
580.464	0.003
580.746	0.0016
581.029	0.0028
581.312	0.0012
581.594	0.0012
581.877	0.0024
582.159	0.0029
582.441	0.003
582.724	0.0024
583.006	0.0024
583.288	0.0016
583.57	0.0015
583.852	0.002
584.134	0.0021
584.416	0.0025
584.697	0.0025
584.979	0.0016
585.261	0.0026
585.542	0.0026
585.824	0.0031
586.105	0.0032
586.387	0.0021
586.668	0.0026
586.949	0.0029
587.231	0.0015
587.512	0.0027
587.793	0.0024
588.074	0.0028
588.355	0.0024
588.636	0.0031
588.916	0.0032
589.197	0.0034
589.478	0.003
589.758	0.0025
590.039	0.003
590.319	0.0022
590.6	0.0029
590.88	0.0023
591.16	0.0026
591.441	0.0034
591.721	0.0034
592.001	0.0026
592.281	0.0037
592.561	0.0023
592.841	0.0023
593.12	0.0021
593.4	0.0019
593.68	0.0024
593.959	0.0024
594.239	0.0041
594.518	0.0023
594.798	0.0024
595.077	0.0033
595.356	0.0024
595.636	0.0032
595.915	0.0034
596.194	0.0026
596.473	0.0036
596.752	0.0031
597.031	0.0026
597.31	0.0016
597.588	0.0022
597.867	0.0014
598.146	0.0029
598.424	0.002
598.703	0.0022
598.981	0.0016
599.259	0.0022
599.538	0.003
599.816	0.0025
600.094	0.0017
600.372	0.003
600.65	0.0038
600.928	0.0027
601.206	0.0027
601.484	0.003
601.762	0.003
602.04	0.0027
602.317	0.0026
602.595	0.0023
602.872	0.0028
603.15	0.0025
603.427	0.0008
603.704	0.0018
603.982	0.0024
604.259	0.0019
604.536	0.0014
604.813	0.0022
605.09	0.0023
605.367	0.0016
605.644	0.002
605.921	0.0022
606.197	0.0017
606.474	0.0026
606.751	0.002
607.027	0.0023
607.304	0.0013
607.58	0.0018
607.856	0.0014
608.133	0.0027
608.409	0.0028
608.685	0.0022
608.961	0.0037
609.237	0.0038
609.513	0.0034
609.789	0.0026
610.065	0.0015
610.341	0.0022
610.616	0.0026
610.892	0.0031
611.167	0.0023
611.443	0.0022
611.718	0.0013
611.994	0.0022
612.269	0.0026
612.544	0.0025
612.819	0.0013
613.095	0.0034
613.37	0.0021
613.645	0.0017
613.919	0.002
614.194	0.0025
614.469	0.002
614.744	0.0009
615.019	0.001
615.293	0.0006
615.568	0.0012
615.842	0.0014
616.116	0.0016
616.391	0.0013
616.665	0.0024
616.939	0.002
617.213	0.0022
617.488	0.0009
617.762	0.0021
618.035	0.0023
618.309	0.0019
618.583	0.0018
618.857	0.0027
619.131	0.002
619.404	0.0019
619.678	0.0019
619.951	0.0008
620.225	0.0014
620.498	0.0021
620.771	0.0023
621.045	0.0032
621.318	0.0024
621.591	0.0018
621.864	0.0012
622.137	0.0003
622.41	0.0016
622.683	0.0013
622.956	0.0024
623.228	0.0025
623.501	0.0033
623.774	0.0032
624.046	0.0032
624.319	0.0021
624.591	0.0012
624.863	0.0026
625.136	0.0027
625.408	0.003
625.68	0.0025
625.952	0.0024
626.224	0.0028
626.496	0.0027
626.768	0.0025
627.04	0.0022
627.311	0.003
627.583	0.0026
627.855	0.003
628.126	0.003
628.398	0.0034
628.669	0.0028
628.941	0.0024
629.212	0.0016
629.483	0.0018
629.755	0.0019
630.026	0.002
630.297	0.0013
630.568	0.0014
630.839	0.001
631.11	0.0008
631.38	0.0011
631.651	0.0002
631.922	0.0003
632.192	0.0005
632.463	-0.0006
632.733	0.0001
633.004	0.0001
633.274	-0.0006
633.545	0.003
633.815	0.0035
634.085	0.0022
634.355	0.0018
634.625	0.003
634.895	0.0018
635.165	0.0009
635.435	0.0016
635.705	0.0016
635.974	0.001
636.244	0.0017
636.514	0.0016
636.783	0.0012
637.053	0.0032
637.322	0.0019
637.591	0.0027
637.861	0.0018
638.13	0.0018
638.399	0.0021
638.668	0.0028
638.937	0.0016
639.206	0.0023
639.475	0.0023
639.744	0.0023
640.013	0.0029
640.281	0.0041
640.55	0.0035
640.819	0.0029
641.087	0.0034
641.356	0.0033
641.624	0.0021
641.892	0.0033
642.161	0.0024
642.429	0.0039
642.697	0.0029
642.965	0.0038
643.233	0.0046
643.501	0.0025
643.769	0.0028
644.037	0.0024
644.305	0.0022
644.572	0.0008
644.84	0.0005
645.108	0.0016
645.375	0.0013
645.643	0.0018
645.91	0.0018
646.177	0.0032
646.445	0.0049
646.712	0.0048
646.979	0.0051
647.246	0.0051
647.513	0.0052
647.78	0.0038
648.047	0.0044
648.314	0.0028
648.58	0.0037
648.847	0.0021
649.114	0.0018
649.38	0.0013
649.647	0.0016
649.913	0.0018
650.18	0.002
650.446	0.0021
650.712	0.0026
650.978	0.0032
651.245	0.0033
651.511	0.0038
651.777	0.0023
652.043	0.0037
652.309	0.0031
652.574	0.0038
652.84	0.0018
653.106	0.002
653.371	0.001
653.637	0.0022
653.903	0.0021
654.168	0.0033
654.433	0.0033
654.699	0.0041
654.964	0.0039
655.229	0.003
655.494	0.0023
655.759	-0.0013
656.024	0.0006
656.289	-0
656.554	0.0006
656.819	0.0012
657.084	0.0024
657.349	0.0038
657.613	0.0036
657.878	0.0035
658.142	0.0031
658.407	0.0032
658.671	0.0029
658.936	0.0021
659.2	0.001
659.464	0.0022
659.728	0.0008
659.992	0.0022
660.256	0.0019
660.52	0.0015
660.784	0.0015
661.048	0.0009
661.312	0.0006
661.575	0
661.839	-0.0011
662.103	0.0001
662.366	-0.0006
662.63	-0.0001
662.893	0.0013
663.156	0.0017
663.42	0.0008
663.683	0.0001
663.946	0.0016
664.209	0.0033
664.472	0.0029
664.735	0.0028
664.998	0.0022
665.261	0.0015
665.524	0.0009
665.786	0.0009
666.049	0.0009
666.312	0.0015
666.574	0.0014
666.837	0.0008
667.099	-0.0002
667.361	0.0003
667.624	-0.0006
667.886	0.0004
668.148	0.0007
668.41	0.0028
668.672	0.0016
668.934	0.0013
669.196	0.0017
669.458	0.0012
669.72	0.0026
669.982	0.0019
670.243	0.0028
670.505	0.0026
670.766	0.0024
671.028	0.0038
671.289	0.0021
671.551	0.0011
671.812	0
672.073	0.0012
672.334	0.0002
672.596	0.0006
672.857	0.0008
673.118	0.0006
673.379	0.0006
673.639	0.0001
673.9	0
674.161	-0.0006
674.422	-0.0012
674.682	-0.0007
674.943	-0.0014
675.203	0.0003
675.464	0.0005
675.724	0.0013
675.985	0.0011
676.245	0.0019
676.505	0.0027
676.765	0.0024
677.025	0.0025
677.285	0.0019
677.545	0.0037
677.805	0.0029
678.065	0.003
678.325	0.0042
678.585	0.0031
678.844	0.0027
679.104	0.002
679.363	0.0025
679.623	0.0035
679.882	0.0031
680.142	0.004
680.401	0.0044
680.66	0.0049
680.919	0.0044
681.178	0.0053
681.437	0.0045
681.696	0.0048
681.955	0.0045
682.214	0.005
682.473	0.0048
682.732	0.0037
682.99	0.0035
683.249	0.0038
683.508	0.0032
683.766	0.0038
684.024	0.0033
684.283	0.0041
684.541	0.0028
684.799	0.0036
685.058	0.003
685.316	0.0022
685.574	0.0032
685.832	0.0037
686.09	0.0035
686.348	0.0044
686.606	0.0045
686.863	0.0047
687.121	0.0054
687.379	0.005
687.636	0.0042
687.894	0.0049
688.151	0.0057
688.409	0.005
688.666	0.0047
688.923	0.0045
689.181	0.0043
689.438	0.0039
689.695	0.0039
689.952	0.0016
690.209	0.002
690.466	0.0015
690.723	0.003
690.979	0.0031
691.236	0.0026
691.493	0.0017
691.75	0.0037
692.006	0.0038
692.263	0.004
692.519	0.0041
692.775	0.0032
693.032	0.0015
693.288	0.0031
693.544	0.0032
693.8	0.0034
694.056	0.0035
694.313	0.0036
694.568	0.003
694.824	0.003
695.08	0.0042
695.336	0.0043
695.592	0.0033
695.847	0.0037
696.103	0.0043
696.359	0.0036
696.614	0.0037
696.869	0.0022
697.125	0.0006
697.38	0.0011
697.635	0.0008
697.891	0.0016
698.146	0.0017
698.401	0.0025
698.656	0.0014
698.911	0.0025
699.166	0.0014
699.42	0.0015
699.675	0.0016
699.93	0.0001
700.185	0.0011
700.439	0.0023
700.694	0.0019
700.948	0.0017
701.203	0.003
701.457	0.002
701.711	0.0022
701.965	0.0003
702.22	0.0002
702.474	0.0009
702.728	0.0004
702.982	-0.0007
703.236	0.0006
703.49	0.0005
703.743	0.0005
703.997	0.0011
704.251	0.0022
704.504	0.0023
704.758	0.0006
705.012	0.0012
705.265	0.0011
705.518	0.001
705.772	0.0005
706.025	0.0008
706.278	0.0012
706.531	0.0002
706.785	-0.0007
707.038	-0.0002
707.291	-0.0001
707.543	0.0003
707.796	0.0003
708.049	-0.0015
708.302	-0.0017
708.555	-0
708.807	0.0005
709.06	-0.0005
709.312	-0.0019
709.565	-0.0014
709.817	-0.0027
710.069	-0.0006
710.322	-0.0009
710.574	-0.0003
710.826	-0.0006
711.078	0.0003
711.33	-0.0001
711.582	-0.0003
711.834	0.0014
712.086	0.0013
712.338	0.0023
712.59	0.0021
712.841	0.0015
713.093	0.0013
713.344	0.0016
713.596	0.002
713.847	0.0025
714.099	0.0022
714.35	0.0021
714.601	0.0023
714.853	0.004
715.104	0.0035
715.355	0.0024
715.606	0.0022
715.857	0.0029
716.108	0.003
716.359	0.0039
716.609	0.0037
716.86	0.002
717.111	0.0009
717.361	0.0003
717.612	0.0003
717.863	0.0005
718.113	0.0003
718.363	0.0004
718.614	0.0014
718.864	0.0013
719.114	0.0021
719.364	0.0012
719.614	0.0003
719.865	-0.0008
720.114	0.0004
720.364	0.0013
720.614	0.002
720.864	0.003
721.114	0.0025
721.364	0.0036
721.613	0.0034
721.863	0.0036
722.112	0.0037
722.362	0.0044
722.611	0.0035
722.86	0.0022
723.11	0.0022
723.359	0.0022
723.608	0.0035
723.857	0.0043
724.106	0.0059
724.355	0.0059
724.604	0.0066
724.853	0.0057
725.102	0.0042
725.351	0.0028
725.599	0.0025
725.848	0.0031
726.097	0.003
726.345	0.0029
726.594	0.0027
726.842	0.0027
727.09	0.0025
727.339	0.0024
727.587	0.0025
727.835	0.0006
728.083	0.0007
728.331	-0.0007
728.579	-0.0009
728.827	-0.0003
729.075	0.0002
729.323	0.0012
729.571	0.0016
729.818	0.0021
730.066	0.0019
730.314	0.0021
730.561	0.0008
730.809	-0.0002
731.056	-0.0003
731.303	-0.0008
731.551	0.001
731.798	0.0011
732.045	0.0006
732.292	0.0013
732.539	0.001
732.786	0.0013
733.033	0.0017
733.28	0.0027
733.527	0.0044
733.774	0.002
734.021	0.0034
734.267	0.0041
734.514	0.004
734.76	0.0042
735.007	0.0062
735.253	0.0069
735.5	0.0057
735.746	0.0057
735.992	0.0056
736.238	0.0051
736.485	0.007
736.731	0.0064
736.977	0.0054
737.223	0.0045
737.469	0.0062
737.715	0.006
737.96	0.0077
738.206	0.007
738.452	0.008
738.697	0.0082
738.943	0.0072
739.189	0.0052
739.434	0.0023
739.679	0.0026
739.925	0.0018
740.17	0.0015
740.415	0.0018
740.66	0.0026
740.906	0.0035
741.151	0.0033
741.396	0.0032
741.641	0.0052
741.886	0.0059
742.13	0.0062
742.375	0.0065
742.62	0.0063
742.865	0.0053
743.109	0.0056
743.354	0.005
743.598	0.0048
743.843	0.0051
744.087	0.0048
744.331	0.0054
744.576	0.0048
744.82	0.0045
745.064	0.0043
745.308	0.0035
745.552	0.0036
745.796	0.0041
746.04	0.0036
746.284	0.0019
746.528	0.0012
746.771	0.0012
747.015	0.0012
747.259	0.0009
747.502	0.0012
747.746	0.0026
747.989	0.0027
748.233	0.0031
748.476	0.0034
748.719	0.0041
748.963	0.0045
749.206	0.0032
749.449	0.0043
749.692	0.003
749.935	0.0043
750.178	0.0034
750.421	0.004
750.664	0.0045
750.906	0.0046
751.149	0.004
751.392	0.0028
751.635	0.0013
751.877	0.0009
752.12	-0.0002
752.362	0.0011
752.604	0.0011
752.847	0.0022
753.089	0.0024
753.331	0.0022
753.573	0.0018
753.816	0.0027
754.058	0.0031
754.3	0.0035
754.542	0.0043
754.783	0.0035
755.025	0.0032
755.267	0.0013
755.509	0.001
755.75	0.0007
755.992	0.0015
756.234	0.0014
756.475	-0.0001
756.716	0.0005
756.958	-0.0002
757.199	0.0002
757.44	0.0016
757.682	0.001
757.923	0.0001
758.164	0.0003
758.405	0.0002
758.646	0.0007
758.887	0.0009
759.128	0.0011
759.369	-0.0007
759.609	-0.0001
759.85	-0.0006
760.091	0.0012
760.331	0.0006
760.572	-0
760.812	-0.0006
761.053	-0.0008
761.293	0.0001
761.533	0.0005
761.774	0.0005
762.014	0.0014
762.254	0.0006
762.494	0.0004
762.734	-0.0007
762.974	-0.0004
763.214	-0.0001
763.454	-0.0005
763.694	0.0002
763.933	-0.0009
764.173	0.001
764.413	0.0005
764.652	-0
764.892	0.0005
765.131	0.0016
765.371	0.0012
765.61	0.003
765.849	0.0018
766.089	0.0026
766.328	0.0037
766.567	0.0033
766.806	0.0035
767.045	0.0037
767.284	0.0033
767.523	0.0041
767.762	0.0039
768.001	0.0035
768.239	0.0034
768.478	0.0023
768.717	0.0022
768.955	0.0027
769.194	0.0021
769.432	0.0024
769.671	0.003
769.909	0.0028
770.148	0.0027
770.386	0.0031
770.624	0.0026
770.862	0.0032
771.1	0.002
771.338	0.0018
771.576	0.0022
771.814	0.0027
772.052	0.0021
772.29	0.003
772.528	0.0037
772.765	0.0024
773.003	0.0037
773.24	0.0038
773.478	0.0039
773.716	0.0044
773.953	0.0041
774.19	0.0048
774.428	0.0053
774.665	0.005
774.902	0.0047
775.139	0.0034
775.376	0.0033
775.613	0.0024
775.85	0.0039
776.087	0.0027
776.324	0.0029
776.561	0.0036
776.798	0.0047
777.034	0.0061
777.271	0.0068
777.508	0.0079
777.744	0.0069
777.981	0.0058
778.217	0.0061
778.454	0.0057
778.69	0.0039
778.926	0.0048
779.162	0.0045
779.399	0.0047
779.635	0.0047
779.871	0.004
780.107	0.0044
780.343	0.0042
780.579	0.0057
780.814	0.0047
781.05	0.0051
781.286	0.0047
781.522	0.0039
781.757	0.006
781.993	0.0059
782.228	0.0065
782.464	0.005
782.699	0.0043
782.934	0.0037
783.17	0.0042
783.405	0.0037
783.64	0.0037
783.875	0.0031
784.11	0.0037
784.345	0.004
784.58	0.0039
784.815	0.0043
785.05	0.0041
785.285	0.0027
785.52	0.0014
785.754	0.0028
785.989	0.0028
786.223	0.0013
786.458	0.0013
786.692	0.0013
786.927	0.0007
787.161	0.001
787.396	0.0006
787.63	-0.0004
787.864	-0.0013
788.098	-0.0001
788.332	0.0004
788.566	0.0005
788.8	-0.0001
789.034	0.0002
789.268	0.001
789.502	0.0019
789.736	0.0026
789.969	0.0029
790.203	0.0029
790.437	0.0032
790.67	0.003
790.904	0.0031
791.137	0.0012
791.37	0.001
791.604	0.0009
791.837	0.0008
792.07	-0.0003
792.303	0.0015
792.537	0.0008
792.77	0.0006
793.003	0.0006
793.236	-0.0007
793.469	-0.0006
793.701	0.0001
793.934	0.0005
794.167	0.0002
794.4	-0.0005
794.632	0.0008
794.865	-0.0005
795.097	0.0008
795.33	0.0018
795.562	0.0008
795.795	0.0015
796.027	0.0015
796.259	0.0013
796.491	0.001
796.724	0.001
796.956	0.0023
797.188	0.0023
797.42	0.0015
797.652	0.0012
797.883	0.0003
798.115	0.0002
798.347	-0.0006
798.579	-0.0007
798.81	-0.0021
799.042	-0.0016
799.274	-0.0023
799.505	-0.0011
799.737	-0.0022
799.968	-0.0012
800.199	-0.0006
800.431	-0.001
800.662	-0.0001
800.893	0.0005
801.124	0.0007
801.355	0.001
801.586	0.0018
801.817	0.0014
802.048	0.001
802.279	0.0014
802.51	0.0013
802.741	0.0003
802.971	0.0011
803.202	-0.0003
803.433	-0.0008
803.663	-0.0003
803.894	0.0003
804.124	0.0003
804.354	-0.0001
804.585	0.0003
804.815	-0
805.045	-0
805.275	-0.0003
805.506	-0.0259
805.736	0.0879
805.966	-0.0223
806.196	0.0754
