Data from 03 0.2 mM BQDS 0.4 mM K2Cr2O7 1 M H2SO4 5 min_Absorbance_08-27-42-466.txt Node
Date: Wed Dec 08 08:27:42 EST 2021
User: kwabilab-user
Spectrometer: HDX00518
Trigger mode: 0
Integration Time (sec): 5.000000E-2
Scans to average: 50
Nonlinearity correction enabled: false
Boxcar width: 0
Storing dark spectrum: false
XAxis mode: Wavelengths
Number of Pixels in Spectrum: 2068
>>>>>Begin Spectral Data<<<<<
195.27	0.2866
195.642	0.1515
196.014	0.0894
196.386	0.0342
196.758	0.0614
197.129	0.0245
197.501	0.0871
197.872	0.0991
198.244	0.1346
198.615	0.1361
198.986	0.1373
199.357	0.1119
199.728	0.1302
200.099	0.1189
200.47	0.1274
200.841	0.1259
201.212	0.1259
201.582	0.1268
201.953	0.1278
202.323	0.123
202.694	0.1244
203.064	0.1285
203.434	0.1231
203.804	0.1482
204.174	0.1221
204.544	0.1351
204.914	0.1308
205.284	0.1256
205.653	0.1416
206.023	0.1312
206.393	0.1389
206.762	0.1319
207.131	0.1563
207.501	0.147
207.87	0.1602
208.239	0.1305
208.608	0.1408
208.977	0.1531
209.346	0.1591
209.715	0.1521
210.083	0.1624
210.452	0.1631
210.82	0.1647
211.189	0.1629
211.557	0.1587
211.925	0.1747
212.294	0.1957
212.662	0.182
213.03	0.1961
213.398	0.1726
213.766	0.1955
214.133	0.2141
214.501	0.2322
214.869	0.2194
215.236	0.2611
215.604	0.242
215.971	0.2584
216.338	0.281
216.705	0.3086
217.072	0.3379
217.439	0.3399
217.806	0.3764
218.173	0.3929
218.54	0.4146
218.907	0.4473
219.273	0.5045
219.64	0.5321
220.006	0.5681
220.373	0.5987
220.739	0.63
221.105	0.6826
221.471	0.6978
221.837	0.7402
222.203	0.7929
222.569	0.7967
222.935	0.8341
223.3	0.8602
223.666	0.8869
224.031	0.9229
224.397	0.9287
224.762	0.9417
225.127	0.9733
225.493	0.975
225.858	0.9914
226.223	1.001
226.588	1.0005
226.952	1.0056
227.317	1.0121
227.682	1.0059
228.046	1.0007
228.411	1.0025
228.775	0.9974
229.14	0.996
229.504	0.9897
229.868	0.9833
230.232	0.9805
230.596	0.969
230.96	0.9671
231.324	0.9523
231.688	0.9433
232.052	0.9379
232.415	0.9241
232.779	0.9196
233.142	0.9145
233.505	0.9038
233.869	0.8923
234.232	0.8867
234.595	0.8721
234.958	0.8652
235.321	0.8547
235.684	0.8437
236.047	0.8388
236.409	0.825
236.772	0.8199
237.134	0.8081
237.497	0.7981
237.859	0.794
238.222	0.7837
238.584	0.7743
238.946	0.7666
239.308	0.7583
239.67	0.751
240.032	0.7438
240.393	0.7372
240.755	0.7279
241.117	0.7249
241.478	0.7176
241.84	0.7103
242.201	0.7008
242.562	0.6951
242.924	0.6907
243.285	0.6856
243.646	0.6791
244.007	0.6751
244.368	0.6691
244.728	0.6643
245.089	0.6609
245.45	0.6562
245.81	0.6551
246.171	0.6482
246.531	0.6423
246.891	0.6365
247.252	0.6356
247.612	0.6316
247.972	0.6296
248.332	0.6259
248.692	0.623
249.051	0.6199
249.411	0.6187
249.771	0.6137
250.13	0.6138
250.49	0.6097
250.849	0.6065
251.208	0.6058
251.568	0.6023
251.927	0.6016
252.286	0.6001
252.645	0.5973
253.004	0.5958
253.363	0.5925
253.721	0.5932
254.08	0.5915
254.439	0.5882
254.797	0.5875
255.155	0.5854
255.514	0.585
255.872	0.5841
256.23	0.5835
256.588	0.5799
256.946	0.5785
257.304	0.5774
257.662	0.577
258.02	0.5755
258.377	0.5736
258.735	0.571
259.093	0.5701
259.45	0.5682
259.807	0.5678
260.165	0.5646
260.522	0.5656
260.879	0.5629
261.236	0.5615
261.593	0.5587
261.95	0.5562
262.306	0.5555
262.663	0.5534
263.02	0.5542
263.376	0.5498
263.733	0.5488
264.089	0.5488
264.445	0.545
264.802	0.5437
265.158	0.5415
265.514	0.5383
265.87	0.5377
266.226	0.5354
266.581	0.5357
266.937	0.5303
267.293	0.5281
267.648	0.5273
268.004	0.523
268.359	0.5207
268.714	0.5182
269.07	0.5157
269.425	0.5128
269.78	0.5115
270.135	0.5098
270.49	0.5083
270.844	0.504
271.199	0.501
271.554	0.4999
271.908	0.4966
272.263	0.4925
272.617	0.4903
272.972	0.4864
273.326	0.4832
273.68	0.4813
274.034	0.4778
274.388	0.4754
274.742	0.4707
275.096	0.4683
275.45	0.465
275.803	0.4615
276.157	0.4575
276.51	0.4549
276.864	0.4513
277.217	0.4474
277.571	0.4444
277.924	0.4404
278.277	0.4369
278.63	0.4344
278.983	0.4304
279.336	0.4271
279.688	0.4224
280.041	0.4188
280.394	0.4145
280.746	0.4116
281.099	0.4078
281.451	0.4036
281.803	0.3989
282.156	0.3961
282.508	0.3916
282.86	0.388
283.212	0.3838
283.564	0.3805
283.916	0.3762
284.267	0.3733
284.619	0.37
284.971	0.3655
285.322	0.3619
285.673	0.3578
286.025	0.3549
286.376	0.3497
286.727	0.3468
287.078	0.3415
287.429	0.3395
287.78	0.3348
288.131	0.3305
288.482	0.3256
288.833	0.3232
289.183	0.3193
289.534	0.3151
289.884	0.3113
290.235	0.3078
290.585	0.3038
290.935	0.3013
291.285	0.2965
291.635	0.2925
291.985	0.2893
292.335	0.2847
292.685	0.2819
293.035	0.2779
293.384	0.2753
293.734	0.2705
294.083	0.2669
294.433	0.2627
294.782	0.2602
295.131	0.2568
295.48	0.2533
295.829	0.2504
296.179	0.2453
296.527	0.2435
296.876	0.2397
297.225	0.2373
297.574	0.2327
297.922	0.2305
298.271	0.2274
298.619	0.2232
298.968	0.2214
299.316	0.2185
299.664	0.2155
300.012	0.2128
300.36	0.2091
300.708	0.2067
301.056	0.2046
301.404	0.2023
301.752	0.1989
302.099	0.1968
302.447	0.1952
302.794	0.1921
303.142	0.1901
303.489	0.1871
303.836	0.1855
304.183	0.1842
304.531	0.1824
304.878	0.1801
305.224	0.1779
305.571	0.1767
305.918	0.1747
306.265	0.1731
306.611	0.1717
306.958	0.1707
307.304	0.1689
307.651	0.1679
307.997	0.1664
308.343	0.1657
308.689	0.1649
309.035	0.164
309.381	0.1627
309.727	0.161
310.073	0.1611
310.419	0.1604
310.764	0.1593
311.11	0.1586
311.455	0.1588
311.801	0.1572
312.146	0.1571
312.491	0.1568
312.837	0.1567
313.182	0.1567
313.527	0.1562
313.872	0.1557
314.216	0.1556
314.561	0.1555
314.906	0.1557
315.251	0.1554
315.595	0.1551
315.94	0.1552
316.284	0.1557
316.628	0.1552
316.972	0.1554
317.317	0.1558
317.661	0.1564
318.005	0.1565
318.348	0.1572
318.692	0.1573
319.036	0.1576
319.38	0.1584
319.723	0.159
320.067	0.159
320.41	0.1602
320.754	0.1611
321.097	0.1616
321.44	0.1626
321.783	0.1629
322.126	0.1639
322.469	0.1649
322.812	0.1655
323.155	0.1668
323.498	0.1671
323.84	0.1685
324.183	0.1696
324.525	0.1701
324.868	0.171
325.21	0.1723
325.552	0.174
325.894	0.1747
326.236	0.1757
326.578	0.1771
326.92	0.1779
327.262	0.1789
327.604	0.1803
327.946	0.1815
328.287	0.1825
328.629	0.1836
328.97	0.1847
329.312	0.1863
329.653	0.1868
329.994	0.1887
330.335	0.1901
330.676	0.1907
331.017	0.1918
331.358	0.193
331.699	0.1948
332.04	0.1956
332.38	0.1971
332.721	0.1991
333.061	0.1997
333.402	0.2012
333.742	0.2027
334.083	0.2045
334.423	0.2043
334.763	0.2056
335.103	0.2072
335.443	0.2078
335.783	0.2084
336.123	0.2095
336.462	0.2108
336.802	0.212
337.141	0.2132
337.481	0.2137
337.82	0.2144
338.16	0.2158
338.499	0.2169
338.838	0.2177
339.177	0.2192
339.516	0.2199
339.855	0.2212
340.194	0.2222
340.533	0.2233
340.872	0.2233
341.21	0.2244
341.549	0.2254
341.887	0.2258
342.226	0.2262
342.564	0.2262
342.902	0.2272
343.24	0.2273
343.578	0.2275
343.916	0.2276
344.254	0.228
344.592	0.2282
344.93	0.2278
345.268	0.2286
345.605	0.229
345.943	0.2285
346.28	0.2286
346.618	0.229
346.955	0.2296
347.292	0.2295
347.629	0.2301
347.966	0.2301
348.303	0.2304
348.64	0.2304
348.977	0.2296
349.314	0.2298
349.65	0.2304
349.987	0.2301
350.324	0.2289
350.66	0.2285
350.996	0.2289
351.333	0.228
351.669	0.2268
352.005	0.2268
352.341	0.2266
352.677	0.2258
353.013	0.2242
353.349	0.224
353.685	0.2228
354.02	0.2216
354.356	0.2216
354.691	0.2205
355.027	0.219
355.362	0.2176
355.697	0.2164
356.033	0.2164
356.368	0.2149
356.703	0.2148
357.038	0.213
357.373	0.2128
357.707	0.2119
358.042	0.2106
358.377	0.2098
358.711	0.209
359.046	0.2082
359.38	0.2068
359.715	0.2055
360.049	0.2048
360.383	0.2041
360.717	0.2034
361.051	0.2002
361.385	0.1999
361.719	0.1976
362.053	0.1971
362.387	0.1947
362.72	0.193
363.054	0.1916
363.387	0.1898
363.721	0.1883
364.054	0.1868
364.387	0.1842
364.721	0.1832
365.054	0.1814
365.387	0.1803
365.72	0.1785
366.053	0.1765
366.385	0.1752
366.718	0.1746
367.051	0.1723
367.383	0.1715
367.716	0.1701
368.048	0.1693
368.381	0.1677
368.713	0.1665
369.045	0.1651
369.377	0.1632
369.709	0.1625
370.041	0.1603
370.373	0.1594
370.705	0.1578
371.037	0.1565
371.368	0.1542
371.7	0.1539
372.031	0.1521
372.363	0.1504
372.694	0.1487
373.025	0.146
373.356	0.1448
373.688	0.1426
374.019	0.1399
374.35	0.1389
374.68	0.1372
375.011	0.1349
375.342	0.1335
375.673	0.1314
376.003	0.1295
376.334	0.128
376.664	0.1263
376.995	0.1249
377.325	0.1234
377.655	0.1223
377.985	0.1213
378.315	0.1198
378.645	0.1181
378.975	0.1167
379.305	0.1156
379.635	0.1151
379.964	0.1135
380.294	0.1122
380.623	0.111
380.953	0.1099
381.282	0.1086
381.611	0.107
381.941	0.1056
382.27	0.1042
382.599	0.1031
382.928	0.1015
383.257	0.1006
383.585	0.0992
383.914	0.0979
384.243	0.096
384.571	0.0941
384.9	0.0927
385.228	0.0911
385.557	0.0906
385.885	0.0889
386.213	0.087
386.541	0.0857
386.869	0.0843
387.197	0.0822
387.525	0.0809
387.853	0.0791
388.181	0.0785
388.508	0.0777
388.836	0.0763
389.164	0.0755
389.491	0.0743
389.818	0.0727
390.146	0.072
390.473	0.0703
390.8	0.0699
391.127	0.0685
391.454	0.068
391.781	0.0669
392.108	0.0656
392.435	0.0642
392.761	0.0631
393.088	0.0633
393.415	0.0625
393.741	0.0624
394.067	0.0606
394.394	0.0605
394.72	0.0596
395.046	0.0586
395.372	0.0572
395.698	0.0562
396.024	0.0564
396.35	0.0556
396.676	0.0547
397.001	0.0546
397.327	0.0528
397.653	0.0518
397.978	0.0509
398.303	0.0505
398.629	0.0496
398.954	0.0488
399.279	0.0486
399.604	0.0477
399.929	0.0469
400.254	0.0468
400.579	0.0467
400.904	0.0452
401.229	0.0451
401.553	0.044
401.878	0.0437
402.202	0.0434
402.527	0.0429
402.851	0.0425
403.175	0.0422
403.5	0.0418
403.824	0.0416
404.148	0.0415
404.472	0.0411
404.796	0.0405
405.119	0.0403
405.443	0.0399
405.767	0.0394
406.09	0.0388
406.414	0.0396
406.737	0.0395
407.061	0.0387
407.384	0.0388
407.707	0.0384
408.03	0.0386
408.353	0.0386
408.676	0.0387
408.999	0.0378
409.322	0.0386
409.645	0.0379
409.968	0.0375
410.29	0.0376
410.613	0.0372
410.935	0.0367
411.258	0.0377
411.58	0.0372
411.902	0.0375
412.224	0.0379
412.546	0.037
412.868	0.0365
413.19	0.0372
413.512	0.0371
413.834	0.0371
414.156	0.0372
414.477	0.0368
414.799	0.0366
415.121	0.0382
415.442	0.0373
415.763	0.0376
416.085	0.0372
416.406	0.0374
416.727	0.0369
417.048	0.0371
417.369	0.0369
417.69	0.037
418.011	0.0373
418.331	0.0374
418.652	0.0375
418.973	0.0379
419.293	0.0373
419.614	0.0374
419.934	0.037
420.254	0.0378
420.574	0.0374
420.895	0.0377
421.215	0.0373
421.535	0.0372
421.855	0.0373
422.174	0.037
422.494	0.0373
422.814	0.0381
423.134	0.0372
423.453	0.0375
423.773	0.0383
424.092	0.0379
424.411	0.0376
424.731	0.038
425.05	0.038
425.369	0.0385
425.688	0.0381
426.007	0.0387
426.326	0.0384
426.644	0.0394
426.963	0.0392
427.282	0.0389
427.6	0.0387
427.919	0.0388
428.237	0.0394
428.556	0.0396
428.874	0.039
429.192	0.0388
429.51	0.0386
429.828	0.0393
430.146	0.0388
430.464	0.0389
430.782	0.039
431.1	0.0391
431.418	0.0386
431.735	0.039
432.053	0.0392
432.37	0.0391
432.688	0.0391
433.005	0.0393
433.322	0.0396
433.639	0.0395
433.957	0.0393
434.274	0.0403
434.591	0.0394
434.907	0.0407
435.224	0.0403
435.541	0.04
435.858	0.0402
436.174	0.0402
436.491	0.0401
436.807	0.0401
437.124	0.0394
437.44	0.0393
437.756	0.0394
438.072	0.0391
438.388	0.04
438.704	0.0398
439.02	0.0394
439.336	0.0396
439.652	0.0392
439.968	0.0399
440.283	0.0398
440.599	0.0398
440.914	0.0399
441.23	0.0395
441.545	0.0395
441.86	0.0394
442.175	0.0402
442.491	0.0392
442.806	0.0392
443.121	0.0398
443.435	0.0387
443.75	0.039
444.065	0.0393
444.38	0.0393
444.694	0.0394
445.009	0.0394
445.323	0.0394
445.638	0.0392
445.952	0.039
446.266	0.0389
446.58	0.0399
446.894	0.0394
447.208	0.0395
447.522	0.0395
447.836	0.038
448.15	0.0386
448.464	0.0382
448.777	0.0384
449.091	0.0373
449.404	0.039
449.718	0.039
450.031	0.0377
450.345	0.0381
450.658	0.0381
450.971	0.0381
451.284	0.0374
451.597	0.038
451.91	0.0375
452.223	0.0377
452.535	0.0379
452.848	0.0379
453.161	0.0378
453.473	0.0372
453.786	0.0381
454.098	0.0374
454.411	0.0368
454.723	0.0367
455.035	0.0367
455.347	0.038
455.659	0.038
455.971	0.0372
456.283	0.0371
456.595	0.0367
456.907	0.0369
457.218	0.0365
457.53	0.0366
457.841	0.0354
458.153	0.0356
458.464	0.0357
458.776	0.0354
459.087	0.0348
459.398	0.0348
459.709	0.0348
460.02	0.0345
460.331	0.0348
460.642	0.034
460.953	0.0346
461.263	0.0348
461.574	0.0343
461.885	0.0337
462.195	0.0341
462.506	0.0337
462.816	0.0339
463.126	0.033
463.437	0.033
463.747	0.0326
464.057	0.033
464.367	0.0327
464.677	0.0316
464.987	0.0327
465.296	0.0317
465.606	0.0317
465.916	0.0311
466.225	0.0312
466.535	0.031
466.844	0.0314
467.154	0.0308
467.463	0.0306
467.772	0.0308
468.081	0.0301
468.39	0.0305
468.699	0.0302
469.008	0.0306
469.317	0.0299
469.626	0.0299
469.935	0.0297
470.243	0.0296
470.552	0.0297
470.86	0.0297
471.169	0.0287
471.477	0.0291
471.785	0.029
472.093	0.0291
472.402	0.0289
472.71	0.0287
473.018	0.0274
473.326	0.0279
473.633	0.0277
473.941	0.0274
474.249	0.0265
474.556	0.0268
474.864	0.0266
475.171	0.0261
475.479	0.0268
475.786	0.0265
476.094	0.0263
476.401	0.0265
476.708	0.0256
477.015	0.0262
477.322	0.0259
477.629	0.0252
477.936	0.0242
478.242	0.025
478.549	0.0249
478.856	0.0236
479.162	0.025
479.469	0.0243
479.775	0.0246
480.081	0.0236
480.388	0.0235
480.694	0.0229
481	0.0235
481.306	0.0239
481.612	0.0232
481.918	0.0219
482.224	0.0232
482.53	0.0217
482.835	0.0222
483.141	0.0215
483.446	0.0215
483.752	0.0219
484.057	0.0202
484.363	0.0204
484.668	0.02
484.973	0.0204
485.278	0.0199
485.583	0.0192
485.888	0.0191
486.193	0.0194
486.498	0.0189
486.803	0.0201
487.107	0.0193
487.412	0.0185
487.717	0.0189
488.021	0.0191
488.325	0.0177
488.63	0.0181
488.934	0.0176
489.238	0.0187
489.542	0.0185
489.846	0.0169
490.15	0.018
490.454	0.0179
490.758	0.0173
491.062	0.0178
491.366	0.0168
491.669	0.0163
491.973	0.0166
492.276	0.0161
492.58	0.0155
492.883	0.0161
493.186	0.0164
493.489	0.0159
493.792	0.0166
494.096	0.016
494.399	0.0161
494.701	0.0155
495.004	0.015
495.307	0.0147
495.61	0.0148
495.912	0.0141
496.215	0.0135
496.517	0.0139
496.82	0.0136
497.122	0.0141
497.424	0.0129
497.727	0.0124
498.029	0.0141
498.331	0.0133
498.633	0.0136
498.935	0.0129
499.237	0.0133
499.538	0.0127
499.84	0.0127
500.142	0.0135
500.443	0.0126
500.745	0.0123
501.046	0.0122
501.348	0.0113
501.649	0.0128
501.95	0.0104
502.251	0.0118
502.552	0.0098
502.853	0.0107
503.154	0.0111
503.455	0.0101
503.756	0.0105
504.057	0.0113
504.357	0.0103
504.658	0.0101
504.958	0.0102
505.259	0.0108
505.559	0.0104
505.859	0.01
506.16	0.0111
506.46	0.01
506.76	0.0105
507.06	0.0094
507.36	0.0097
507.66	0.0096
507.96	0.0102
508.259	0.0089
508.559	0.0089
508.859	0.0095
509.158	0.0087
509.457	0.0086
509.757	0.0095
510.056	0.0087
510.355	0.009
510.655	0.0072
510.954	0.0084
511.253	0.0076
511.552	0.0086
511.851	0.008
512.149	0.0083
512.448	0.0071
512.747	0.0078
513.045	0.0073
513.344	0.008
513.642	0.009
513.941	0.0079
514.239	0.0074
514.537	0.0076
514.836	0.0075
515.134	0.0068
515.432	0.0074
515.73	0.0072
516.028	0.0062
516.326	0.0073
516.623	0.0066
516.921	0.0069
517.219	0.0075
517.516	0.0074
517.814	0.0059
518.111	0.0077
518.409	0.0079
518.706	0.0072
519.003	0.0067
519.3	0.0063
519.597	0.0059
519.894	0.0063
520.191	0.0071
520.488	0.0069
520.785	0.0061
521.082	0.0062
521.378	0.0063
521.675	0.0038
521.971	0.0054
522.268	0.0055
522.564	0.0052
522.861	0.0062
523.157	0.0044
523.453	0.0052
523.749	0.0061
524.045	0.0063
524.341	0.0058
524.637	0.0052
524.933	0.0053
525.229	0.0053
525.524	0.0048
525.82	0.0056
526.115	0.0048
526.411	0.0047
526.706	0.0044
527.002	0.0054
527.297	0.0037
527.592	0.0058
527.887	0.0063
528.182	0.0056
528.477	0.006
528.772	0.0047
529.067	0.005
529.362	0.0051
529.657	0.0057
529.951	0.0048
530.246	0.0039
530.54	0.0034
530.835	0.0041
531.129	0.0026
531.423	0.0046
531.718	0.0041
532.012	0.0043
532.306	0.0034
532.6	0.0029
532.894	0.004
533.188	0.0041
533.482	0.0037
533.775	0.0046
534.069	0.0034
534.363	0.0029
534.656	0.003
534.95	0.0024
535.243	0.0032
535.536	0.0039
535.83	0.0036
536.123	0.0021
536.416	0.0039
536.709	0.0039
537.002	0.0039
537.295	0.0036
537.588	0.0042
537.881	0.0035
538.173	0.0025
538.466	0.0032
538.759	0.0025
539.051	0.0033
539.344	0.0029
539.636	0.002
539.928	0.0029
540.22	0.0028
540.513	0.0028
540.805	0.0028
541.097	0.0033
541.389	0.003
541.681	0.0032
541.972	0.0033
542.264	0.0027
542.556	0.0032
542.847	0.0038
543.139	0.004
543.431	0.004
543.722	0.0042
544.013	0.0055
544.305	0.0051
544.596	0.0054
544.887	0.0038
545.178	0.0032
545.469	0.0029
545.76	0.0028
546.051	0.0042
546.342	0.0036
546.632	0.0029
546.923	0.0036
547.214	0.0038
547.504	0.0037
547.795	0.003
548.085	0.0033
548.375	0.0033
548.666	0.0039
548.956	0.0029
549.246	0.0041
549.536	0.0025
549.826	0.0038
550.116	0.0043
550.406	0.0035
550.695	0.0048
550.985	0.0048
551.275	0.0045
551.564	0.0037
551.854	0.0041
552.143	0.0045
552.433	0.0049
552.722	0.0039
553.011	0.0032
553.3	0.0044
553.589	0.0041
553.879	0.0038
554.167	0.0036
554.456	0.0037
554.745	0.0021
555.034	0.0028
555.323	0.0012
555.611	0.0019
555.9	0.0034
556.188	0.0038
556.477	0.0028
556.765	0.0031
557.053	0.0029
557.342	0.0031
557.63	0.0035
557.918	0.0031
558.206	0.0034
558.494	0.0042
558.782	0.0034
559.069	0.0033
559.357	0.0036
559.645	0.0028
559.932	0.0037
560.22	0.0039
560.507	0.003
560.795	0.0033
561.082	0.0028
561.37	0.0034
561.657	0.0036
561.944	0.0037
562.231	0.0023
562.518	0.0018
562.805	0.0032
563.092	0.0038
563.379	0.0038
563.665	0.0028
563.952	0.0034
564.239	0.0043
564.525	0.0042
564.811	0.0053
565.098	0.0044
565.384	0.0042
565.67	0.0042
565.957	0.0048
566.243	0.0035
566.529	0.0037
566.815	0.0053
567.101	0.0029
567.387	0.0032
567.672	0.0032
567.958	0.0031
568.244	0.0033
568.529	0.0035
568.815	0.0034
569.1	0.0037
569.386	0.0033
569.671	0.0029
569.956	0.0031
570.242	0.0039
570.527	0.0048
570.812	0.0036
571.097	0.0035
571.382	0.004
571.666	0.003
571.951	0.0033
572.236	0.0031
572.521	0.0028
572.805	0.0028
573.09	0.0017
573.374	0.0029
573.659	0.0022
573.943	0.0026
574.227	0.0028
574.511	0.0035
574.795	0.003
575.079	0.003
575.363	0.0024
575.647	0.0031
575.931	0.0025
576.215	0.0031
576.499	0.0027
576.782	0.0032
577.066	0.0032
577.349	0.0032
577.633	0.0039
577.916	0.0038
578.2	0.0042
578.483	0.003
578.766	0.0028
579.049	0.0034
579.332	0.0034
579.615	0.0029
579.898	0.0034
580.181	0.0032
580.464	0.0033
580.746	0.0028
581.029	0.003
581.312	0.0029
581.594	0.0031
581.877	0.0029
582.159	0.0031
582.441	0.0036
582.724	0.002
583.006	0.0026
583.288	0.0021
583.57	0.0031
583.852	0.0024
584.134	0.002
584.416	0.0033
584.697	0.0031
584.979	0.003
585.261	0.0029
585.542	0.0025
585.824	0.0025
586.105	0.0035
586.387	0.0022
586.668	0.0032
586.949	0.003
587.231	0.002
587.512	0.0028
587.793	0.0027
588.074	0.0037
588.355	0.0032
588.636	0.0039
588.916	0.0034
589.197	0.0028
589.478	0.0029
589.758	0.003
590.039	0.0028
590.319	0.0029
590.6	0.0027
590.88	0.0027
591.16	0.0032
591.441	0.0029
591.721	0.0029
592.001	0.0038
592.281	0.0034
592.561	0.004
592.841	0.0034
593.12	0.0032
593.4	0.0021
593.68	0.0026
593.959	0.0027
594.239	0.0037
594.518	0.0028
594.798	0.0026
595.077	0.0032
595.356	0.0033
595.636	0.0037
595.915	0.003
596.194	0.0033
596.473	0.0035
596.752	0.0028
597.031	0.0029
597.31	0.0022
597.588	0.0026
597.867	0.0025
598.146	0.0022
598.424	0.0027
598.703	0.0032
598.981	0.0024
599.259	0.003
599.538	0.0032
599.816	0.0028
600.094	0.003
600.372	0.003
600.65	0.0033
600.928	0.0027
601.206	0.0033
601.484	0.0032
601.762	0.0036
602.04	0.003
602.317	0.0035
602.595	0.0029
602.872	0.0028
603.15	0.0027
603.427	0.0023
603.704	0.0019
603.982	0.0021
604.259	0.0014
604.536	0.0022
604.813	0.0024
605.09	0.0019
605.367	0.0027
605.644	0.0021
605.921	0.0023
606.197	0.0022
606.474	0.002
606.751	0.0018
607.027	0.0026
607.304	0.0021
607.58	0.0022
607.856	0.0025
608.133	0.0028
608.409	0.0028
608.685	0.0031
608.961	0.0033
609.237	0.003
609.513	0.003
609.789	0.0032
610.065	0.002
610.341	0.0028
610.616	0.0027
610.892	0.0034
611.167	0.0036
611.443	0.0032
611.718	0.0027
611.994	0.0024
612.269	0.0031
612.544	0.0024
612.819	0.0023
613.095	0.0029
613.37	0.003
613.645	0.0012
613.919	0.0021
614.194	0.0028
614.469	0.0016
614.744	0.0016
615.019	0.0016
615.293	0.0007
615.568	0.0012
615.842	0.0012
616.116	0.0011
616.391	0.0007
616.665	0.0034
616.939	0.0014
617.213	0.0015
617.488	0.002
617.762	0.0018
618.035	0.002
618.309	0.0015
618.583	0.0015
618.857	0.0026
619.131	0.002
619.404	0.0017
619.678	0.0019
619.951	0.002
620.225	0.0006
620.498	0.0012
620.771	0.002
621.045	0.0032
621.318	0.0024
621.591	0.0023
621.864	0.0014
622.137	0.0012
622.41	0.0014
622.683	0.0007
622.956	0.0015
623.228	0.0023
623.501	0.0026
623.774	0.0026
624.046	0.002
624.319	0.0023
624.591	0.0007
624.863	0.0027
625.136	0.0014
625.408	0.0017
625.68	0.0023
625.952	0.0019
626.224	0.0018
626.496	0.0025
626.768	0.0016
627.04	0.0018
627.311	0.002
627.583	0.0017
627.855	0.0022
628.126	0.003
628.398	0.0028
628.669	0.0017
628.941	0.0017
629.212	0.0004
629.483	0.002
629.755	0.0015
630.026	0.001
630.297	0.0006
630.568	0.0007
630.839	0.0007
631.11	-0.0005
631.38	0.0004
631.651	0.0005
631.922	0.0006
632.192	-0.0005
632.463	0.0004
632.733	0.0008
633.004	0.0011
633.274	-0.0003
633.545	0.0022
633.815	0.0034
634.085	0.0026
634.355	0.0018
634.625	0.0027
634.895	0.0022
635.165	0.0009
635.435	0.0016
635.705	0.0018
635.974	0.0013
636.244	0.0017
636.514	0.0024
636.783	0.0018
637.053	0.003
637.322	0.0008
637.591	0.0022
637.861	0.0017
638.13	0.0025
638.399	0.0021
638.668	0.0026
638.937	0.0012
639.206	0.0021
639.475	0.0016
639.744	0.0016
640.013	0.0027
640.281	0.0038
640.55	0.0038
640.819	0.0034
641.087	0.0028
641.356	0.002
641.624	0.0025
641.892	0.0029
642.161	0.0036
642.429	0.0036
642.697	0.0024
642.965	0.0032
643.233	0.0037
643.501	0.0025
643.769	0.0015
644.037	0.0007
644.305	0.0012
644.572	0
644.84	-0.0001
645.108	0.0009
645.375	0.0005
645.643	0.0013
645.91	0.0008
646.177	0.0024
646.445	0.0036
646.712	0.0039
646.979	0.0047
647.246	0.0042
647.513	0.004
647.78	0.0037
648.047	0.0049
648.314	0.0034
648.58	0.0031
648.847	0.0013
649.114	0.0004
649.38	0.0009
649.647	0.0009
649.913	0.001
650.18	0.0018
650.446	0.0015
650.712	0.0021
650.978	0.0026
651.245	0.0035
651.511	0.0025
651.777	0.0025
652.043	0.0029
652.309	0.0031
652.574	0.0037
652.84	0.0031
653.106	0.0017
653.371	0.0013
653.637	0.0016
653.903	0.0018
654.168	0.0026
654.433	0.0036
654.699	0.0039
654.964	0.004
655.229	0.0034
655.494	0.0032
655.759	0.0018
656.024	0.0009
656.289	-0
656.554	-0.0015
656.819	-0.0007
657.084	0.0026
657.349	0.003
657.613	0.0035
657.878	0.0028
658.142	0.0031
658.407	0.0022
658.671	0.0028
658.936	0.0022
659.2	0.0017
659.464	0.0013
659.728	0.0018
659.992	0.0017
660.256	0.001
660.52	0.0015
660.784	0.0005
661.048	0.0004
661.312	-0.0001
661.575	-0.0003
661.839	-0.001
662.103	-0.0015
662.366	-0.0017
662.63	-0.0003
662.893	0.0007
663.156	-0.0001
663.42	-0.0003
663.683	0.0004
663.946	0.0013
664.209	0.0032
664.472	0.0028
664.735	0.0026
664.998	0.0015
665.261	0.0018
665.524	0.0018
665.786	0.0009
666.049	0.0013
666.312	0.0016
666.574	0.0021
666.837	0.0021
667.099	0.0002
667.361	0.0011
667.624	0.0001
667.886	0.0004
668.148	0.0009
668.41	0.0023
668.672	0.0017
668.934	0.0014
669.196	0.0018
669.458	0.0023
669.72	0.0028
669.982	0.0033
670.243	0.0035
670.505	0.002
670.766	0.0018
671.028	0.002
671.289	0.0022
671.551	0.001
671.812	0.0003
672.073	0.0004
672.334	0.0007
672.596	0.0008
672.857	0.0001
673.118	-0.0002
673.379	0.0001
673.639	-0.0005
673.9	0.0002
674.161	-0.0019
674.422	-0.0026
674.682	-0.0017
674.943	-0.0018
675.203	-0.0005
675.464	0
675.724	0.0007
675.985	0.0008
676.245	0.0017
676.505	0.0022
676.765	0.0021
677.025	0.002
677.285	0.003
677.545	0.0041
677.805	0.0037
678.065	0.0034
678.325	0.003
678.585	0.0025
678.844	0.002
679.104	0.0019
679.363	0.002
679.623	0.0028
679.882	0.0022
680.142	0.0034
680.401	0.0035
680.66	0.0051
680.919	0.0039
681.178	0.0051
681.437	0.0041
681.696	0.0035
681.955	0.0041
682.214	0.0051
682.473	0.005
682.732	0.0037
682.99	0.0033
683.249	0.0034
683.508	0.0033
683.766	0.0037
684.024	0.0037
684.283	0.0039
684.541	0.0028
684.799	0.0031
685.058	0.0023
685.316	0.0023
685.574	0.0034
685.832	0.0036
686.09	0.0033
686.348	0.0041
686.606	0.0039
686.863	0.0046
687.121	0.0043
687.379	0.0038
687.636	0.0038
687.894	0.0041
688.151	0.005
688.409	0.0041
688.666	0.0038
688.923	0.0045
689.181	0.0035
689.438	0.0027
689.695	0.0023
689.952	0.0012
690.209	0.0011
690.466	0.0015
690.723	0.0025
690.979	0.0027
691.236	0.0024
691.493	0.0019
691.75	0.0031
692.006	0.004
692.263	0.004
692.519	0.0035
692.775	0.0023
693.032	0.0012
693.288	0.0029
693.544	0.0025
693.8	0.0017
694.056	0.0023
694.313	0.0026
694.568	0.0023
694.824	0.0022
695.08	0.0036
695.336	0.0035
695.592	0.0029
695.847	0.0024
696.103	0.0027
696.359	0.0024
696.614	0.0021
696.869	0.0014
697.125	0.0006
697.38	-0.0001
697.635	-0.0011
697.891	-0.0006
698.146	-0.0006
698.401	0.0018
698.656	0.0008
698.911	0.0018
699.166	0.0012
699.42	0.0017
699.675	0.0011
699.93	-0.0003
700.185	0.0012
700.439	0.0027
700.694	0.0019
700.948	0.0023
701.203	0.0022
701.457	0.0015
701.711	0.0012
701.965	0.0004
702.22	-0.0001
702.474	0.0005
702.728	-0.0006
702.982	-0.0003
703.236	0.0001
703.49	0.0007
703.743	0.0003
703.997	0.0011
704.251	0.0008
704.504	0.0016
704.758	0.0014
705.012	0.0006
705.265	0.0007
705.518	0.0005
705.772	0.0002
706.025	0.0007
706.278	0.0007
706.531	0.0002
706.785	-0.0002
707.038	0.0002
707.291	0
707.543	0.0003
707.796	0.0001
708.049	-0.0011
708.302	-0.0007
708.555	-0.0006
708.807	0.0011
709.06	-0.0001
709.312	-0.0016
709.565	-0.0022
709.817	-0.0017
710.069	-0.001
710.322	0
710.574	-0.0002
710.826	0.0002
711.078	0.0007
711.33	0.0004
711.582	0.0002
711.834	0.0012
712.086	0.0011
712.338	0.003
712.59	0.0024
712.841	0.0023
713.093	0.001
713.344	0.0012
713.596	0.0016
713.847	0.0023
714.099	0.0018
714.35	0.0025
714.601	0.0028
714.853	0.0036
715.104	0.0028
715.355	0.002
715.606	0.0022
715.857	0.0014
716.108	0.0023
716.359	0.0018
716.609	0.0025
716.86	0.0021
717.111	0.0013
717.361	-0.0003
717.612	0.0001
717.863	0.0006
718.113	0.0003
718.363	0.0011
718.614	0.0008
718.864	0.0009
719.114	0.0008
719.364	0.0005
719.614	0.0001
719.865	-0.0014
720.114	-0
720.364	0.0004
720.614	0.0017
720.864	0.002
721.114	0.0018
721.364	0.0031
721.613	0.0037
721.863	0.0028
722.112	0.0031
722.362	0.0033
722.611	0.0029
722.86	0.0016
723.11	0.0015
723.359	0.0014
723.608	0.0024
723.857	0.0035
724.106	0.0045
724.355	0.0058
724.604	0.0056
724.853	0.0046
725.102	0.0039
725.351	0.0029
725.599	0.0018
725.848	0.0025
726.097	0.0015
726.345	0.0028
726.594	0.0016
726.842	0.0017
727.09	0.0012
727.339	0.0007
727.587	0.0004
727.835	0.0002
728.083	-0.0006
728.331	-0.0005
728.579	-0.001
728.827	-0.0002
729.075	-0.0005
729.323	0.0006
729.571	0.0015
729.818	0.0021
730.066	0.0025
730.314	0.0021
730.561	0.0008
730.809	0.0009
731.056	-0.0004
731.303	-0.0011
731.551	0.0002
731.798	0.0001
732.045	0.0001
732.292	0.0012
732.539	0.0013
732.786	0.0016
733.033	0.0021
733.28	0.0019
733.527	0.0032
733.774	0.0023
734.021	0.0028
734.267	0.0034
734.514	0.0034
734.76	0.0028
735.007	0.0046
735.253	0.0045
735.5	0.0047
735.746	0.005
735.992	0.0047
736.238	0.0048
736.485	0.0052
736.731	0.0056
736.977	0.0047
737.223	0.004
737.469	0.0048
737.715	0.0051
737.96	0.0063
738.206	0.0061
738.452	0.0078
738.697	0.0085
738.943	0.0066
739.189	0.0056
739.434	0.0027
739.679	0.0024
739.925	0.0015
740.17	0.0013
740.415	0.0018
740.66	0.0028
740.906	0.0036
741.151	0.0034
741.396	0.0033
741.641	0.006
741.886	0.0057
742.13	0.0066
742.375	0.0062
742.62	0.0067
742.865	0.0052
743.109	0.0051
743.354	0.0041
743.598	0.0047
743.843	0.0053
744.087	0.0052
744.331	0.0052
744.576	0.0052
744.82	0.005
745.064	0.0041
745.308	0.0038
745.552	0.0039
745.796	0.0043
746.04	0.0036
746.284	0.0033
746.528	0.001
746.771	0.0017
747.015	0.0019
747.259	0.0019
747.502	0.002
747.746	0.0028
747.989	0.0034
748.233	0.0038
748.476	0.0041
748.719	0.0048
748.963	0.0058
749.206	0.0048
749.449	0.0057
749.692	0.0045
749.935	0.006
750.178	0.0042
750.421	0.004
750.664	0.004
750.906	0.0035
751.149	0.003
751.392	0.0032
751.635	0.001
751.877	0.0004
752.12	0.0009
752.362	0.0012
752.604	0.0009
752.847	0.0015
753.089	0.0023
753.331	0.0024
753.573	0.0025
753.816	0.0028
754.058	0.0038
754.3	0.0037
754.542	0.0038
754.783	0.0036
755.025	0.004
755.267	0.0025
755.509	0.0016
755.75	0.0015
755.992	0.0019
756.234	0.0012
756.475	0.0006
756.716	0.0006
756.958	0.0004
757.199	-0.0001
757.44	0.0015
757.682	0.0019
757.923	-0.0001
758.164	0.0006
758.405	-0.0002
758.646	0.0004
758.887	-0.0002
759.128	-0.0001
759.369	-0
759.609	-0.0007
759.85	-0.0006
760.091	0.0004
760.331	0.0001
760.572	-0.0002
760.812	-0.0009
761.053	-0.0011
761.293	-0.0005
761.533	0.0002
761.774	0.0003
762.014	0.0005
762.254	0.0006
762.494	0.0003
762.734	0.0002
762.974	-0.0004
763.214	-0.0007
763.454	-0.0007
763.694	-0.0004
763.933	-0.0013
764.173	0.0004
764.413	0.0002
764.652	0.0006
764.892	0.0008
765.131	0.0013
765.371	0.0015
765.61	0.0019
765.849	0.0012
766.089	0.0019
766.328	0.003
766.567	0.0027
766.806	0.0033
767.045	0.0032
767.284	0.0038
767.523	0.0042
767.762	0.0043
768.001	0.0034
768.239	0.0028
768.478	0.0018
768.717	0.0021
768.955	0.0031
769.194	0.0018
769.432	0.002
769.671	0.0024
769.909	0.0028
770.148	0.003
770.386	0.0023
770.624	0.0026
770.862	0.0033
771.1	0.0018
771.338	0.0021
771.576	0.0026
771.814	0.0023
772.052	0.0026
772.29	0.0034
772.528	0.004
772.765	0.0031
773.003	0.004
773.24	0.0034
773.478	0.003
773.716	0.0047
773.953	0.0039
774.19	0.0046
774.428	0.0041
774.665	0.005
774.902	0.0053
775.139	0.0038
775.376	0.0039
775.613	0.0038
775.85	0.0035
776.087	0.0035
776.324	0.0038
776.561	0.0048
776.798	0.0057
777.034	0.0064
777.271	0.008
777.508	0.0078
777.744	0.0078
777.981	0.0057
778.217	0.0061
778.454	0.0059
778.69	0.005
778.926	0.0051
779.162	0.0047
779.399	0.0048
779.635	0.0042
779.871	0.0029
780.107	0.0046
780.343	0.0044
780.579	0.0051
780.814	0.0041
781.05	0.0047
781.286	0.0048
781.522	0.0046
781.757	0.0058
781.993	0.0055
782.228	0.0054
782.464	0.0056
782.699	0.0045
782.934	0.0044
783.17	0.0044
783.405	0.0035
783.64	0.0032
783.875	0.0029
784.11	0.0037
784.345	0.0039
784.58	0.0035
784.815	0.0036
785.05	0.0041
785.285	0.0033
785.52	0.0015
785.754	0.003
785.989	0.0018
786.223	0.0012
786.458	0.001
786.692	0.0014
786.927	0.0008
787.161	0.0013
787.396	0.0008
787.63	0.0004
787.864	-0
788.098	-0.0002
788.332	0.0006
788.566	0.0004
788.8	0.0001
789.034	0.0009
789.268	0.0007
789.502	0.0011
789.736	0.0024
789.969	0.0029
790.203	0.0021
790.437	0.0022
790.67	0.0017
790.904	0.0019
791.137	0.0008
791.37	0.0009
791.604	-0.0002
791.837	-0.0004
792.07	0.0004
792.303	0.0013
792.537	-0.0001
792.77	0.0004
793.003	-0.0004
793.236	-0.0014
793.469	-0.0013
793.701	-0.0002
793.934	-0.0004
794.167	0
794.4	0.0007
794.632	-0.0002
794.865	-0.0008
795.097	0.0004
795.33	0.001
795.562	-0.0003
795.795	0.0014
796.027	0.0006
796.259	0.0012
796.491	0.0007
796.724	0.0004
796.956	0.0011
797.188	0.0021
797.42	0.0017
797.652	0.0016
797.883	0.0008
798.115	0.0003
798.347	-0.0004
798.579	-0.0003
798.81	-0.0013
799.042	-0.0023
799.274	-0.0021
799.505	-0.0018
799.737	-0.0024
799.968	-0.0021
800.199	-0.0004
800.431	0.0001
800.662	0.0004
800.893	0.0002
801.124	0.0006
801.355	0.0008
801.586	0.001
801.817	0.0006
802.048	0.0012
802.279	0.0008
802.51	0.0013
802.741	-0.0005
802.971	-0.0005
803.202	-0.001
803.433	-0.0013
803.663	-0.0009
803.894	-0.0009
804.124	-0.0009
804.354	0.0001
804.585	-0.0006
804.815	-0.001
805.045	-0.0002
805.275	-0.0015
805.506	-0.0729
805.736	0.1127
805.966	0.1137
806.196	0.0563
