Data from 03 0.2 mM BQDS 0.4 mM K2Cr2O7 1 M H2SO4 5 min_Absorbance_18-47-42-964.txt Node
Date: Wed Dec 08 18:47:42 EST 2021
User: kwabilab-user
Spectrometer: HDX00518
Trigger mode: 0
Integration Time (sec): 5.000000E-2
Scans to average: 50
Nonlinearity correction enabled: false
Boxcar width: 0
Storing dark spectrum: false
XAxis mode: Wavelengths
Number of Pixels in Spectrum: 2068
>>>>>Begin Spectral Data<<<<<
195.27	0.1365
195.642	0.1347
196.014	0.0946
196.386	0.0662
196.758	0.0649
197.129	0.0343
197.501	0.0598
197.872	0.1062
198.244	0.1211
198.615	0.1219
198.986	0.1298
199.357	0.1023
199.728	0.1191
200.099	0.1122
200.47	0.1237
200.841	0.1134
201.212	0.1059
201.582	0.1029
201.953	0.1134
202.323	0.1146
202.694	0.111
203.064	0.1265
203.434	0.1163
203.804	0.1244
204.174	0.1223
204.544	0.1288
204.914	0.1419
205.284	0.1205
205.653	0.1326
206.023	0.1217
206.393	0.1208
206.762	0.1378
207.131	0.1364
207.501	0.1324
207.87	0.1419
208.239	0.1281
208.608	0.1317
208.977	0.1475
209.346	0.1434
209.715	0.15
210.083	0.1474
210.452	0.1607
210.82	0.154
211.189	0.1631
211.557	0.14
211.925	0.1606
212.294	0.1707
212.662	0.1839
213.03	0.1752
213.398	0.1675
213.766	0.1887
214.133	0.215
214.501	0.2195
214.869	0.2064
215.236	0.2583
215.604	0.2527
215.971	0.2552
216.338	0.289
216.705	0.3017
217.072	0.3186
217.439	0.3226
217.806	0.3843
218.173	0.3832
218.54	0.4222
218.907	0.4549
219.273	0.4913
219.64	0.5378
220.006	0.5661
220.373	0.5886
220.739	0.6405
221.105	0.6817
221.471	0.7027
221.837	0.7575
222.203	0.7776
222.569	0.8141
222.935	0.8431
223.3	0.8744
223.666	0.8999
224.031	0.9332
224.397	0.9339
224.762	0.9491
225.127	0.9794
225.493	0.9941
225.858	0.9986
226.223	1.0188
226.588	1.0226
226.952	1.0191
227.317	1.0279
227.682	1.0229
228.046	1.0244
228.411	1.027
228.775	1.0267
229.14	1.0214
229.504	1.0136
229.868	1.0101
230.232	1.0054
230.596	0.9917
230.96	0.9962
231.324	0.9845
231.688	0.97
232.052	0.9646
232.415	0.9528
232.779	0.9474
233.142	0.94
233.505	0.927
233.869	0.9225
234.232	0.9082
234.595	0.8957
234.958	0.8885
235.321	0.8797
235.684	0.8697
236.047	0.8615
236.409	0.8538
236.772	0.8444
237.134	0.8341
237.497	0.8235
237.859	0.819
238.222	0.8099
238.584	0.8004
238.946	0.789
239.308	0.7836
239.67	0.7741
240.032	0.767
240.393	0.7602
240.755	0.7521
241.117	0.7456
241.478	0.7371
241.84	0.7309
242.201	0.7212
242.562	0.7139
242.924	0.7092
243.285	0.7021
243.646	0.6953
244.007	0.6921
244.368	0.685
244.728	0.6802
245.089	0.6755
245.45	0.6692
245.81	0.6667
246.171	0.6588
246.531	0.6572
246.891	0.6509
247.252	0.6473
247.612	0.6432
247.972	0.6396
248.332	0.6371
248.692	0.632
249.051	0.6278
249.411	0.6246
249.771	0.6204
250.13	0.6164
250.49	0.6156
250.849	0.6108
251.208	0.6085
251.568	0.6057
251.927	0.602
252.286	0.6006
252.645	0.5981
253.004	0.5958
253.363	0.591
253.721	0.5925
254.08	0.588
254.439	0.585
254.797	0.5838
255.155	0.5814
255.514	0.5792
255.872	0.577
256.23	0.5739
256.588	0.5737
256.946	0.5686
257.304	0.5679
257.662	0.5664
258.02	0.5644
258.377	0.5621
258.735	0.5622
259.093	0.5574
259.45	0.5574
259.807	0.5548
260.165	0.5533
260.522	0.5515
260.879	0.5484
261.236	0.5475
261.593	0.5461
261.95	0.5416
262.306	0.5406
262.663	0.5381
263.02	0.537
263.376	0.5352
263.733	0.5336
264.089	0.5321
264.445	0.5279
264.802	0.5276
265.158	0.523
265.514	0.522
265.87	0.5222
266.226	0.5176
266.581	0.5177
266.937	0.5146
267.293	0.5132
267.648	0.5092
268.004	0.5062
268.359	0.5055
268.714	0.5015
269.07	0.5003
269.425	0.4971
269.78	0.4966
270.135	0.4942
270.49	0.4909
270.844	0.4882
271.199	0.485
271.554	0.4823
271.908	0.4811
272.263	0.4775
272.617	0.4758
272.972	0.4731
273.326	0.4707
273.68	0.4674
274.034	0.4648
274.388	0.4611
274.742	0.4588
275.096	0.457
275.45	0.454
275.803	0.4503
276.157	0.4466
276.51	0.4446
276.864	0.442
277.217	0.439
277.571	0.4351
277.924	0.4319
278.277	0.4288
278.63	0.426
278.983	0.422
279.336	0.4189
279.688	0.4155
280.041	0.4119
280.394	0.4082
280.746	0.4055
281.099	0.402
281.451	0.3974
281.803	0.3943
282.156	0.3912
282.508	0.387
282.86	0.3838
283.212	0.3809
283.564	0.3771
283.916	0.3726
284.267	0.3692
284.619	0.3681
284.971	0.3619
285.322	0.3585
285.673	0.3563
286.025	0.3526
286.376	0.3482
286.727	0.3449
287.078	0.3416
287.429	0.3388
287.78	0.3338
288.131	0.3293
288.482	0.3257
288.833	0.3219
289.183	0.3182
289.534	0.3148
289.884	0.3104
290.235	0.3071
290.585	0.3029
290.935	0.2991
291.285	0.295
291.635	0.2924
291.985	0.2884
292.335	0.2841
292.685	0.2805
293.035	0.2772
293.384	0.2737
293.734	0.2693
294.083	0.2662
294.433	0.2624
294.782	0.2586
295.131	0.2554
295.48	0.2521
295.829	0.2495
296.179	0.2448
296.527	0.2421
296.876	0.2395
297.225	0.2364
297.574	0.2317
297.922	0.2297
298.271	0.2267
298.619	0.2219
298.968	0.2201
299.316	0.2173
299.664	0.2144
300.012	0.2112
300.36	0.2085
300.708	0.2055
301.056	0.2028
301.404	0.2011
301.752	0.1975
302.099	0.1957
302.447	0.1933
302.794	0.1907
303.142	0.1886
303.489	0.1865
303.836	0.1841
304.183	0.1826
304.531	0.1808
304.878	0.1782
305.224	0.176
305.571	0.1749
305.918	0.1733
306.265	0.171
306.611	0.1699
306.958	0.169
307.304	0.1674
307.651	0.166
307.997	0.1647
308.343	0.1637
308.689	0.1626
309.035	0.1609
309.381	0.1608
309.727	0.1592
310.073	0.159
310.419	0.1579
310.764	0.157
311.11	0.1568
311.455	0.1557
311.801	0.1549
312.146	0.155
312.491	0.1538
312.837	0.1537
313.182	0.1538
313.527	0.1532
313.872	0.1527
314.216	0.1528
314.561	0.1525
314.906	0.1526
315.251	0.1522
315.595	0.1516
315.94	0.1517
316.284	0.1521
316.628	0.1518
316.972	0.1522
317.317	0.1521
317.661	0.1532
318.005	0.1534
318.348	0.1528
318.692	0.1532
319.036	0.1541
319.38	0.154
319.723	0.155
320.067	0.155
320.41	0.1555
320.754	0.156
321.097	0.1565
321.44	0.1572
321.783	0.1576
322.126	0.1584
322.469	0.1598
322.812	0.1605
323.155	0.161
323.498	0.1622
323.84	0.1629
324.183	0.1639
324.525	0.1645
324.868	0.1657
325.21	0.1663
325.552	0.1675
325.894	0.1681
326.236	0.1691
326.578	0.1697
326.92	0.1712
327.262	0.172
327.604	0.1738
327.946	0.174
328.287	0.1758
328.629	0.1768
328.97	0.1775
329.312	0.1787
329.653	0.1798
329.994	0.181
330.335	0.1825
330.676	0.1828
331.017	0.1839
331.358	0.1856
331.699	0.1865
332.04	0.1877
332.38	0.1884
332.721	0.1907
333.061	0.1909
333.402	0.1923
333.742	0.1936
334.083	0.1949
334.423	0.1955
334.763	0.196
335.103	0.198
335.443	0.1983
335.783	0.1991
336.123	0.1999
336.462	0.2016
336.802	0.2019
337.141	0.2027
337.481	0.2049
337.82	0.2049
338.16	0.2051
338.499	0.2067
338.838	0.2069
339.177	0.2086
339.516	0.2087
339.855	0.2103
340.194	0.211
340.533	0.2123
340.872	0.2129
341.21	0.2133
341.549	0.2138
341.887	0.2152
342.226	0.215
342.564	0.2154
342.902	0.2163
343.24	0.2159
343.578	0.2159
343.916	0.2167
344.254	0.2171
344.592	0.2172
344.93	0.2167
345.268	0.2171
345.605	0.2169
345.943	0.2166
346.28	0.2174
346.618	0.2177
346.955	0.2178
347.292	0.2176
347.629	0.2183
347.966	0.2179
348.303	0.2181
348.64	0.2177
348.977	0.2172
349.314	0.2176
349.65	0.2178
349.987	0.218
350.324	0.2164
350.66	0.2169
350.996	0.217
351.333	0.2161
351.669	0.215
352.005	0.2154
352.341	0.2136
352.677	0.2132
353.013	0.2118
353.349	0.2117
353.685	0.2106
354.02	0.2095
354.356	0.2092
354.691	0.2078
355.027	0.2069
355.362	0.2054
355.697	0.2051
356.033	0.2042
356.368	0.2026
356.703	0.2024
357.038	0.2024
357.373	0.2004
357.707	0.2
358.042	0.1983
358.377	0.1982
358.711	0.197
359.046	0.196
359.38	0.1949
359.715	0.1941
360.049	0.1926
360.383	0.1928
360.717	0.1905
361.051	0.1898
361.385	0.1887
361.719	0.1855
362.053	0.1855
362.387	0.1831
362.72	0.1818
363.054	0.1803
363.387	0.1784
363.721	0.1771
364.054	0.1749
364.387	0.1739
364.721	0.1727
365.054	0.1708
365.387	0.1688
365.72	0.1674
366.053	0.1663
366.385	0.1644
366.718	0.1638
367.051	0.1621
367.383	0.1611
367.716	0.1592
368.048	0.158
368.381	0.157
368.713	0.1557
369.045	0.155
369.377	0.1532
369.709	0.1518
370.041	0.1503
370.373	0.1496
370.705	0.1482
371.037	0.1461
371.368	0.145
371.7	0.1437
372.031	0.1421
372.363	0.1408
372.694	0.1394
373.025	0.1369
373.356	0.1356
373.688	0.1336
374.019	0.1308
374.35	0.1291
374.68	0.1278
375.011	0.1259
375.342	0.124
375.673	0.1225
376.003	0.1199
376.334	0.1194
376.664	0.1172
376.995	0.1164
377.325	0.1143
377.655	0.1138
377.985	0.112
378.315	0.1111
378.645	0.1094
378.975	0.1079
379.305	0.1071
379.635	0.1064
379.964	0.1046
380.294	0.1034
380.623	0.1028
380.953	0.1019
381.282	0.1001
381.611	0.0991
381.941	0.0978
382.27	0.096
382.599	0.0953
382.928	0.0936
383.257	0.0922
383.585	0.0915
383.914	0.09
384.243	0.0885
384.571	0.0872
384.9	0.0857
385.228	0.0838
385.557	0.0833
385.885	0.0814
386.213	0.0797
386.541	0.0786
386.869	0.0769
387.197	0.0756
387.525	0.0738
387.853	0.0725
388.181	0.0718
388.508	0.0707
388.836	0.0699
389.164	0.0687
389.491	0.0675
389.818	0.0669
390.146	0.0657
390.473	0.0644
390.8	0.064
391.127	0.0627
391.454	0.062
391.781	0.0607
392.108	0.06
392.435	0.0584
392.761	0.0575
393.088	0.0571
393.415	0.0565
393.741	0.0565
394.067	0.0552
394.394	0.0549
394.72	0.0538
395.046	0.0527
395.372	0.0523
395.698	0.0514
396.024	0.051
396.35	0.0498
396.676	0.0499
397.001	0.0489
397.327	0.0479
397.653	0.0471
397.978	0.0462
398.303	0.0453
398.629	0.0443
398.954	0.0444
399.279	0.0439
399.604	0.0437
399.929	0.0428
400.254	0.0421
400.579	0.0421
400.904	0.0409
401.229	0.0408
401.553	0.0395
401.878	0.0394
402.202	0.0384
402.527	0.0385
402.851	0.0389
403.175	0.0377
403.5	0.0375
403.824	0.0375
404.148	0.0372
404.472	0.0371
404.796	0.0361
405.119	0.0358
405.443	0.0359
405.767	0.0347
406.09	0.0349
406.414	0.0357
406.737	0.0351
407.061	0.0355
407.384	0.0351
407.707	0.0348
408.03	0.0346
408.353	0.0349
408.676	0.034
408.999	0.0339
409.322	0.0341
409.645	0.0347
409.968	0.0338
410.29	0.034
410.613	0.0341
410.935	0.0334
411.258	0.0338
411.58	0.0342
411.902	0.0337
412.224	0.0338
412.546	0.0332
412.868	0.0329
413.19	0.0334
413.512	0.0333
413.834	0.0334
414.156	0.0347
414.477	0.0335
414.799	0.0343
415.121	0.0337
415.442	0.0335
415.763	0.0336
416.085	0.0336
416.406	0.0339
416.727	0.0344
417.048	0.0338
417.369	0.0339
417.69	0.0338
418.011	0.0338
418.331	0.0341
418.652	0.0339
418.973	0.0343
419.293	0.0338
419.614	0.0339
419.934	0.0339
420.254	0.0346
420.574	0.0338
420.895	0.0337
421.215	0.0336
421.535	0.0332
421.855	0.0333
422.174	0.0336
422.494	0.0335
422.814	0.0347
423.134	0.0349
423.453	0.034
423.773	0.0342
424.092	0.034
424.411	0.0342
424.731	0.0349
425.05	0.0344
425.369	0.0348
425.688	0.0354
426.007	0.0353
426.326	0.0356
426.644	0.036
426.963	0.0357
427.282	0.0357
427.6	0.036
427.919	0.0357
428.237	0.0356
428.556	0.0363
428.874	0.0355
429.192	0.035
429.51	0.0353
429.828	0.0354
430.146	0.0358
430.464	0.0355
430.782	0.0349
431.1	0.0355
431.418	0.0354
431.735	0.0361
432.053	0.0361
432.37	0.0362
432.688	0.0359
433.005	0.036
433.322	0.0369
433.639	0.0363
433.957	0.0365
434.274	0.0368
434.591	0.0361
434.907	0.0365
435.224	0.0365
435.541	0.0367
435.858	0.0378
436.174	0.0368
436.491	0.0365
436.807	0.0365
437.124	0.0353
437.44	0.0363
437.756	0.0363
438.072	0.0358
438.388	0.0371
438.704	0.0364
439.02	0.0368
439.336	0.0363
439.652	0.0366
439.968	0.0372
440.283	0.0359
440.599	0.0365
440.914	0.0363
441.23	0.0361
441.545	0.0359
441.86	0.0365
442.175	0.0363
442.491	0.036
442.806	0.036
443.121	0.0362
443.435	0.0354
443.75	0.0361
444.065	0.0356
444.38	0.037
444.694	0.0362
445.009	0.0365
445.323	0.0362
445.638	0.0356
445.952	0.0363
446.266	0.0357
446.58	0.0361
446.894	0.0358
447.208	0.0365
447.522	0.0357
447.836	0.0346
448.15	0.035
448.464	0.0346
448.777	0.0352
449.091	0.0342
449.404	0.0352
449.718	0.0355
450.031	0.0351
450.345	0.0346
450.658	0.0351
450.971	0.0347
451.284	0.0342
451.597	0.0352
451.91	0.0354
452.223	0.034
452.535	0.0354
452.848	0.0347
453.161	0.0343
453.473	0.0347
453.786	0.0346
454.098	0.0341
454.411	0.0341
454.723	0.0336
455.035	0.0338
455.347	0.0341
455.659	0.034
455.971	0.0341
456.283	0.0338
456.595	0.0331
456.907	0.033
457.218	0.0334
457.53	0.0334
457.841	0.0327
458.153	0.0332
458.464	0.0323
458.776	0.0312
459.087	0.0319
459.398	0.0319
459.709	0.0318
460.02	0.0316
460.331	0.0315
460.642	0.0314
460.953	0.0312
461.263	0.0316
461.574	0.031
461.885	0.032
462.195	0.0315
462.506	0.0316
462.816	0.0317
463.126	0.0303
463.437	0.0304
463.747	0.0296
464.057	0.03
464.367	0.0304
464.677	0.0294
464.987	0.0298
465.296	0.0294
465.606	0.0283
465.916	0.0285
466.225	0.0283
466.535	0.029
466.844	0.0281
467.154	0.0277
467.463	0.0284
467.772	0.0282
468.081	0.0272
468.39	0.0274
468.699	0.0276
469.008	0.0277
469.317	0.0277
469.626	0.0274
469.935	0.027
470.243	0.0272
470.552	0.0284
470.86	0.0274
471.169	0.0261
471.477	0.0266
471.785	0.0276
472.093	0.027
472.402	0.026
472.71	0.0255
473.018	0.0251
473.326	0.0248
473.633	0.0252
473.941	0.0248
474.249	0.0245
474.556	0.0243
474.864	0.024
475.171	0.0233
475.479	0.024
475.786	0.0245
476.094	0.0238
476.401	0.0239
476.708	0.0229
477.015	0.0237
477.322	0.023
477.629	0.0231
477.936	0.0226
478.242	0.0222
478.549	0.0227
478.856	0.0219
479.162	0.0224
479.469	0.0221
479.775	0.0226
480.081	0.0209
480.388	0.0219
480.694	0.0211
481	0.0213
481.306	0.0211
481.612	0.0207
481.918	0.0202
482.224	0.0207
482.53	0.0201
482.835	0.0195
483.141	0.0191
483.446	0.0191
483.752	0.0194
484.057	0.0179
484.363	0.0175
484.668	0.0172
484.973	0.0179
485.278	0.0178
485.583	0.0174
485.888	0.0162
486.193	0.0174
486.498	0.0176
486.803	0.0188
487.107	0.0172
487.412	0.0162
487.717	0.0165
488.021	0.0178
488.325	0.0157
488.63	0.0159
488.934	0.0157
489.238	0.0163
489.542	0.0159
489.846	0.0146
490.15	0.0162
490.454	0.0152
490.758	0.0148
491.062	0.0147
491.366	0.015
491.669	0.0155
491.973	0.0145
492.276	0.0145
492.58	0.0141
492.883	0.0141
493.186	0.0144
493.489	0.0139
493.792	0.0141
494.096	0.014
494.399	0.0144
494.701	0.014
495.004	0.0134
495.307	0.0123
495.61	0.0123
495.912	0.0121
496.215	0.0115
496.517	0.0121
496.82	0.0119
497.122	0.0123
497.424	0.0116
497.727	0.0122
498.029	0.0117
498.331	0.0118
498.633	0.0119
498.935	0.0116
499.237	0.0114
499.538	0.0117
499.84	0.0112
500.142	0.0114
500.443	0.0117
500.745	0.0103
501.046	0.0109
501.348	0.0097
501.649	0.011
501.95	0.0096
502.251	0.01
502.552	0.0085
502.853	0.0092
503.154	0.0095
503.455	0.0089
503.756	0.0089
504.057	0.0099
504.357	0.0084
504.658	0.0083
504.958	0.0095
505.259	0.0089
505.559	0.0093
505.859	0.0086
506.16	0.0091
506.46	0.0091
506.76	0.0088
507.06	0.0084
507.36	0.0083
507.66	0.0085
507.96	0.0083
508.259	0.0083
508.559	0.0064
508.859	0.0082
509.158	0.0079
509.457	0.0072
509.757	0.0086
510.056	0.0075
510.355	0.0081
510.655	0.0069
510.954	0.0069
511.253	0.0069
511.552	0.0068
511.851	0.0063
512.149	0.0065
512.448	0.0067
512.747	0.0081
513.045	0.0057
513.344	0.0071
513.642	0.007
513.941	0.0059
514.239	0.0061
514.537	0.0066
514.836	0.0068
515.134	0.0064
515.432	0.0062
515.73	0.007
516.028	0.0053
516.326	0.0058
516.623	0.005
516.921	0.0063
517.219	0.007
517.516	0.0064
517.814	0.0062
518.111	0.0058
518.409	0.0065
518.706	0.0065
519.003	0.0068
519.3	0.005
519.597	0.0058
519.894	0.0054
520.191	0.0068
520.488	0.0056
520.785	0.0056
521.082	0.0048
521.378	0.0053
521.675	0.0036
521.971	0.0046
522.268	0.0053
522.564	0.0042
522.861	0.0047
523.157	0.0037
523.453	0.0052
523.749	0.0049
524.045	0.0048
524.341	0.0054
524.637	0.0043
524.933	0.0044
525.229	0.0039
525.524	0.0033
525.82	0.0043
526.115	0.0036
526.411	0.0039
526.706	0.0043
527.002	0.004
527.297	0.0032
527.592	0.0057
527.887	0.0051
528.182	0.0047
528.477	0.0049
528.772	0.0041
529.067	0.0052
529.362	0.0046
529.657	0.0051
529.951	0.0038
530.246	0.0029
530.54	0.0028
530.835	0.0026
531.129	0.0025
531.423	0.0039
531.718	0.0034
532.012	0.0041
532.306	0.0027
532.6	0.0025
532.894	0.0033
533.188	0.0042
533.482	0.0028
533.775	0.0033
534.069	0.0031
534.363	0.0023
534.656	0.0023
534.95	0.0011
535.243	0.0026
535.536	0.0032
535.83	0.0035
536.123	0.0028
536.416	0.0033
536.709	0.0022
537.002	0.0037
537.295	0.0029
537.588	0.0028
537.881	0.0028
538.173	0.0025
538.466	0.0025
538.759	0.0026
539.051	0.002
539.344	0.0023
539.636	0.0024
539.928	0.0023
540.22	0.0023
540.513	0.0033
540.805	0.0023
541.097	0.0028
541.389	0.0031
541.681	0.0035
541.972	0.0028
542.264	0.0019
542.556	0.0021
542.847	0.004
543.139	0.0032
543.431	0.0035
543.722	0.0036
544.013	0.0044
544.305	0.0042
544.596	0.0044
544.887	0.0032
545.178	0.0031
545.469	0.0032
545.76	0.0024
546.051	0.0032
546.342	0.0035
546.632	0.0023
546.923	0.0032
547.214	0.0031
547.504	0.0025
547.795	0.0028
548.085	0.003
548.375	0.0026
548.666	0.0027
548.956	0.0028
549.246	0.0041
549.536	0.0024
549.826	0.0034
550.116	0.0035
550.406	0.0041
550.695	0.0043
550.985	0.0036
551.275	0.0037
551.564	0.0035
551.854	0.0041
552.143	0.0024
552.433	0.0031
552.722	0.0039
553.011	0.0031
553.3	0.0041
553.589	0.0024
553.879	0.0035
554.167	0.0033
554.456	0.0035
554.745	0.0025
555.034	0.0029
555.323	0.0013
555.611	0.0022
555.9	0.0026
556.188	0.0037
556.477	0.0032
556.765	0.0026
557.053	0.003
557.342	0.0029
557.63	0.0035
557.918	0.0024
558.206	0.0021
558.494	0.0036
558.782	0.0036
559.069	0.0033
559.357	0.0026
559.645	0.0022
559.932	0.003
560.22	0.0037
560.507	0.0034
560.795	0.0026
561.082	0.0018
561.37	0.0027
561.657	0.0032
561.944	0.0034
562.231	0.0032
562.518	0.0022
562.805	0.003
563.092	0.0032
563.379	0.0037
563.665	0.0024
563.952	0.0043
564.239	0.0045
564.525	0.0037
564.811	0.0044
565.098	0.0045
565.384	0.0043
565.67	0.0052
565.957	0.0039
566.243	0.0039
566.529	0.0042
566.815	0.0055
567.101	0.0026
567.387	0.0032
567.672	0.0027
567.958	0.0035
568.244	0.0038
568.529	0.0042
568.815	0.0029
569.1	0.0031
569.386	0.0034
569.671	0.0033
569.956	0.0025
570.242	0.0031
570.527	0.0043
570.812	0.0034
571.097	0.0026
571.382	0.0029
571.666	0.0023
571.951	0.003
572.236	0.0027
572.521	0.0025
572.805	0.0035
573.09	0.0019
573.374	0.0024
573.659	0.0018
573.943	0.0028
574.227	0.002
574.511	0.0029
574.795	0.0025
575.079	0.0027
575.363	0.002
575.647	0.0033
575.931	0.0031
576.215	0.0026
576.499	0.0019
576.782	0.002
577.066	0.0024
577.349	0.0026
577.633	0.0029
577.916	0.002
578.2	0.0026
578.483	0.0035
578.766	0.0022
579.049	0.0034
579.332	0.003
579.615	0.0018
579.898	0.0027
580.181	0.003
580.464	0.0017
580.746	0.0016
581.029	0.0025
581.312	0.001
581.594	0.0008
581.877	0.0027
582.159	0.0035
582.441	0.003
582.724	0.003
583.006	0.0028
583.288	0.0016
583.57	0.002
583.852	0.0021
584.134	0.0022
584.416	0.0026
584.697	0.0019
584.979	0.0014
585.261	0.0019
585.542	0.002
585.824	0.002
586.105	0.0026
586.387	0.002
586.668	0.0025
586.949	0.0022
587.231	0.0015
587.512	0.0022
587.793	0.002
588.074	0.0025
588.355	0.003
588.636	0.003
588.916	0.0026
589.197	0.0035
589.478	0.0032
589.758	0.0024
590.039	0.0022
590.319	0.0029
590.6	0.0023
590.88	0.0018
591.16	0.0025
591.441	0.0033
591.721	0.0031
592.001	0.0027
592.281	0.0023
592.561	0.003
592.841	0.0016
593.12	0.0013
593.4	0.0012
593.68	0.0024
593.959	0.0021
594.239	0.0033
594.518	0.002
594.798	0.002
595.077	0.0028
595.356	0.002
595.636	0.0025
595.915	0.0035
596.194	0.0031
596.473	0.0032
596.752	0.0027
597.031	0.0019
597.31	0.0011
597.588	0.0022
597.867	0.0022
598.146	0.0027
598.424	0.0022
598.703	0.002
598.981	0.0011
599.259	0.0018
599.538	0.0028
599.816	0.0033
600.094	0.0022
600.372	0.0026
600.65	0.0033
600.928	0.003
601.206	0.0032
601.484	0.0035
601.762	0.004
602.04	0.0028
602.317	0.0036
602.595	0.0032
602.872	0.0039
603.15	0.0028
603.427	0.0016
603.704	0.0017
603.982	0.0016
604.259	0.0011
604.536	0.0016
604.813	0.0023
605.09	0.0018
605.367	0.0012
605.644	0.0018
605.921	0.0026
606.197	0.002
606.474	0.001
606.751	0.0018
607.027	0.0022
607.304	0.0009
607.58	0.0012
607.856	0.0016
608.133	0.0026
608.409	0.003
608.685	0.002
608.961	0.0031
609.237	0.0026
609.513	0.0025
609.789	0.0023
610.065	0.0012
610.341	0.002
610.616	0.0034
610.892	0.004
611.167	0.0033
611.443	0.003
611.718	0.0019
611.994	0.0027
612.269	0.0032
612.544	0.003
612.819	0.0014
613.095	0.0036
613.37	0.0028
613.645	0.0014
613.919	0.0023
614.194	0.0022
614.469	0.0019
614.744	0.0002
615.019	0.0007
615.293	0.0002
615.568	0.0007
615.842	0.0006
616.116	0.0012
616.391	0.0006
616.665	0.0026
616.939	0.0026
617.213	0.0022
617.488	0.0018
617.762	0.002
618.035	0.0018
618.309	0.0019
618.583	0.002
618.857	0.0026
619.131	0.0025
619.404	0.0014
619.678	0.0019
619.951	0.0001
620.225	0.0005
620.498	0.003
620.771	0.0032
621.045	0.0041
621.318	0.0036
621.591	0.0025
621.864	0.001
622.137	0.0016
622.41	0.0015
622.683	0.001
622.956	0.0021
623.228	0.0024
623.501	0.003
623.774	0.0033
624.046	0.0021
624.319	0.0021
624.591	0.0008
624.863	0.0022
625.136	0.0026
625.408	0.0024
625.68	0.0016
625.952	0.0018
626.224	0.0027
626.496	0.0024
626.768	0.001
627.04	0.0018
627.311	0.0014
627.583	0.0018
627.855	0.0025
628.126	0.0021
628.398	0.0029
628.669	0.0026
628.941	0.0017
629.212	0.0003
629.483	0.0011
629.755	0.0012
630.026	0.0014
630.297	0.001
630.568	0
630.839	0.0011
631.11	0.0009
631.38	0.0011
631.651	0.0009
631.922	0.0008
632.192	0.0011
632.463	0.0005
632.733	0.0019
633.004	0.0015
633.274	0.0014
633.545	0.0033
633.815	0.0038
634.085	0.0032
634.355	0.0027
634.625	0.0041
634.895	0.003
635.165	0.0014
635.435	0.0027
635.705	0.0031
635.974	0.0015
636.244	0.0025
636.514	0.0018
636.783	0.0021
637.053	0.003
637.322	0.0025
637.591	0.0031
637.861	0.0029
638.13	0.0037
638.399	0.0024
638.668	0.0034
638.937	0.0023
639.206	0.0035
639.475	0.0029
639.744	0.0032
640.013	0.0034
640.281	0.0039
640.55	0.0046
640.819	0.0043
641.087	0.0042
641.356	0.0029
641.624	0.0034
641.892	0.0042
642.161	0.0039
642.429	0.0043
642.697	0.0032
642.965	0.0037
643.233	0.0037
643.501	0.0021
643.769	0.0018
644.037	0.0025
644.305	0.0004
644.572	0.0006
644.84	0.0009
645.108	0.0008
645.375	0.0009
645.643	0.0018
645.91	0.002
646.177	0.0035
646.445	0.0046
646.712	0.006
646.979	0.005
647.246	0.0045
647.513	0.0054
647.78	0.0043
648.047	0.0049
648.314	0.0037
648.58	0.0029
648.847	0.002
649.114	0.0009
649.38	0.0019
649.647	0.0016
649.913	0.0015
650.18	0.0022
650.446	0.0013
650.712	0.003
650.978	0.0026
651.245	0.0028
651.511	0.0029
651.777	0.0032
652.043	0.0038
652.309	0.0046
652.574	0.004
652.84	0.0037
653.106	0.0022
653.371	0.0019
653.637	0.0019
653.903	0.0034
654.168	0.0039
654.433	0.0046
654.699	0.0046
654.964	0.0041
655.229	0.0039
655.494	0.0024
655.759	-0.0031
656.024	0.0002
656.289	-0
656.554	0.0019
656.819	0.0024
657.084	0.0026
657.349	0.004
657.613	0.0033
657.878	0.0044
658.142	0.0044
658.407	0.0042
658.671	0.0036
658.936	0.003
659.2	0.0026
659.464	0.0032
659.728	0.0022
659.992	0.0022
660.256	0.0022
660.52	0.0014
660.784	0.0004
661.048	0.0003
661.312	-0.0003
661.575	0.0003
661.839	-0.0018
662.103	-0.0008
662.366	-0.0006
662.63	0.0011
662.893	0.0005
663.156	0.0007
663.42	0.0003
663.683	0.0005
663.946	0.0021
664.209	0.0031
664.472	0.0024
664.735	0.0029
664.998	0.0029
665.261	0.0018
665.524	0.0023
665.786	0.0016
666.049	0.002
666.312	0.0023
666.574	0.0035
666.837	0.0032
667.099	0.0015
667.361	0.0022
667.624	0.0009
667.886	0.0021
668.148	0.0022
668.41	0.0042
668.672	0.0021
668.934	0.002
669.196	0.0021
669.458	0.0028
669.72	0.0025
669.982	0.0029
670.243	0.0033
670.505	0.0029
670.766	0.003
671.028	0.0029
671.289	0.0028
671.551	0.002
671.812	-0.0003
672.073	0.0018
672.334	0.0009
672.596	0.0006
672.857	0.0011
673.118	0.0011
673.379	0.0009
673.639	0.0007
673.9	0.0006
674.161	-0.001
674.422	-0.0022
674.682	-0.0021
674.943	-0.0013
675.203	0.0001
675.464	0
675.724	0.0007
675.985	0.0022
676.245	0.0016
676.505	0.0023
676.765	0.0021
677.025	0.0031
677.285	0.0031
677.545	0.0031
677.805	0.0031
678.065	0.0033
678.325	0.0041
678.585	0.003
678.844	0.002
679.104	0.0026
679.363	0.0025
679.623	0.0031
679.882	0.003
680.142	0.0037
680.401	0.0037
680.66	0.0042
680.919	0.0041
681.178	0.0045
681.437	0.0045
681.696	0.0035
681.955	0.0047
682.214	0.0047
682.473	0.0053
682.732	0.0026
682.99	0.0037
683.249	0.0041
683.508	0.0036
683.766	0.0038
684.024	0.0041
684.283	0.0039
684.541	0.0035
684.799	0.0036
685.058	0.003
685.316	0.0025
685.574	0.0031
685.832	0.0044
686.09	0.0043
686.348	0.0046
686.606	0.0047
686.863	0.0053
687.121	0.0051
687.379	0.0041
687.636	0.0043
687.894	0.0047
688.151	0.0048
688.409	0.0044
688.666	0.0035
688.923	0.0047
689.181	0.0038
689.438	0.0036
689.695	0.0027
689.952	0.0022
690.209	0.0021
690.466	0.0015
690.723	0.0035
690.979	0.0022
691.236	0.002
691.493	0.0019
691.75	0.0037
692.006	0.0038
692.263	0.0032
692.519	0.0029
692.775	0.0023
693.032	0.0016
693.288	0.0018
693.544	0.0027
693.8	0.0029
694.056	0.0026
694.313	0.0033
694.568	0.0033
694.824	0.0033
695.08	0.004
695.336	0.0035
695.592	0.0018
695.847	0.0036
696.103	0.004
696.359	0.0035
696.614	0.0034
696.869	0
697.125	-0.0013
697.38	-0.0003
697.635	-0.0002
697.891	0.0004
698.146	0.0011
698.401	0.0024
698.656	0.0015
698.911	0.0032
699.166	0.0015
699.42	0.0026
699.675	0.0019
699.93	0.001
700.185	0.0019
700.439	0.0037
700.694	0.0022
700.948	0.0031
701.203	0.0028
701.457	0.0025
701.711	0.003
701.965	0.0006
702.22	-0.0001
702.474	0.001
702.728	-0.0003
702.982	-0.0005
703.236	0.0002
703.49	0.0002
703.743	0.0002
703.997	0.001
704.251	0.0012
704.504	0.0016
704.758	0.0012
705.012	0.0016
705.265	0.0018
705.518	0.0016
705.772	0.0012
706.025	0.0016
706.278	0.0012
706.531	0.0003
706.785	-0.0009
707.038	0.0003
707.291	0.0013
707.543	-0.0001
707.796	0.0009
708.049	-0.0006
708.302	-0.0007
708.555	-0.0001
708.807	0.0013
709.06	0.0003
709.312	-0.0007
709.565	-0.0005
709.817	-0.0009
710.069	0.0003
710.322	0.0006
710.574	0.0007
710.826	0.0004
711.078	0.0018
711.33	0.0009
711.582	0.0009
711.834	0.0023
712.086	0.0028
712.338	0.0036
712.59	0.0034
712.841	0.0018
713.093	0.0025
713.344	0.0024
713.596	0.002
713.847	0.0028
714.099	0.0034
714.35	0.0036
714.601	0.0032
714.853	0.0044
715.104	0.004
715.355	0.0011
715.606	0.003
715.857	0.0038
716.108	0.0042
716.359	0.0038
716.609	0.0041
716.86	0.0034
717.111	0.0017
717.361	0.0007
717.612	0.0015
717.863	0.002
718.113	0.0007
718.363	0
718.614	0.0021
718.864	0.0013
719.114	0.0011
719.364	0.0005
719.614	-0.0001
719.865	-0.0002
720.114	0.0003
720.364	0.0005
720.614	0.002
720.864	0.003
721.114	0.0022
721.364	0.0036
721.613	0.0044
721.863	0.0047
722.112	0.0037
722.362	0.0039
722.611	0.0032
722.86	0.0024
723.11	0.0017
723.359	0.0014
723.608	0.0025
723.857	0.0035
724.106	0.0055
724.355	0.0052
724.604	0.0058
724.853	0.0047
725.102	0.0035
725.351	0.0026
725.599	0.0026
725.848	0.0027
726.097	0.0021
726.345	0.0019
726.594	0.0018
726.842	0.0024
727.09	0.0021
727.339	0.0015
727.587	0.0013
727.835	0.0004
728.083	0.0004
728.331	-0.001
728.579	-0.0012
728.827	-0.0003
729.075	0.0002
729.323	0.0022
729.571	0.0024
729.818	0.0022
730.066	0.0032
730.314	0.003
730.561	0.0012
730.809	0.0003
731.056	-0.0008
731.303	0.0004
731.551	0.0014
731.798	0.0005
732.045	0.0008
732.292	0.0021
732.539	0.002
732.786	0.0016
733.033	0.0017
733.28	0.0027
733.527	0.004
733.774	0.002
734.021	0.003
734.267	0.0039
734.514	0.0031
734.76	0.0041
735.007	0.0057
735.253	0.0054
735.5	0.0047
735.746	0.0051
735.992	0.0055
736.238	0.0051
736.485	0.007
736.731	0.0061
736.977	0.005
737.223	0.0048
737.469	0.0058
737.715	0.0064
737.96	0.0077
738.206	0.0067
738.452	0.0095
738.697	0.0085
738.943	0.0076
739.189	0.0054
739.434	0.003
739.679	0.0039
739.925	0.004
740.17	0.0024
740.415	0.0029
740.66	0.004
740.906	0.0044
741.151	0.0044
741.396	0.0046
741.641	0.0074
741.886	0.0071
742.13	0.0068
742.375	0.0069
742.62	0.0074
742.865	0.0058
743.109	0.0066
743.354	0.0061
743.598	0.0064
743.843	0.0061
744.087	0.0067
744.331	0.007
744.576	0.0067
744.82	0.0064
745.064	0.0056
745.308	0.0056
745.552	0.0055
745.796	0.0057
746.04	0.0055
746.284	0.0038
746.528	0.0033
746.771	0.0033
747.015	0.0031
747.259	0.0025
747.502	0.0028
747.746	0.0039
747.989	0.0039
748.233	0.006
748.476	0.0053
748.719	0.0068
748.963	0.0068
749.206	0.0063
749.449	0.0055
749.692	0.0055
749.935	0.0063
750.178	0.005
750.421	0.0046
750.664	0.0053
750.906	0.0048
751.149	0.0042
751.392	0.0037
751.635	0.0015
751.877	0.0007
752.12	0.0005
752.362	0.002
752.604	0.0013
752.847	0.0014
753.089	0.0025
753.331	0.0026
753.573	0.0025
753.816	0.0039
754.058	0.0045
754.3	0.0048
754.542	0.006
754.783	0.0052
755.025	0.0049
755.267	0.0031
755.509	0.0028
755.75	0.002
755.992	0.0035
756.234	0.0027
756.475	0.0017
756.716	0.0005
756.958	-0
757.199	0.0011
757.44	0.0024
757.682	0.0011
757.923	0.0008
758.164	0.0009
758.405	0.0007
758.646	0.0015
758.887	0.0014
759.128	0.0017
759.369	0.0003
759.609	-0
759.85	-0.0004
760.091	0.0013
760.331	0.0007
760.572	-0.0003
760.812	-0.0004
761.053	-0.0002
761.293	0.0006
761.533	0.0016
761.774	0.0022
762.014	0.002
762.254	0.0023
762.494	0.0014
762.734	0.0008
762.974	0.0009
763.214	0
763.454	-0.0003
763.694	-0.0002
763.933	-0.0002
764.173	0.0007
764.413	-0.0005
764.652	-0.0002
764.892	0.0012
765.131	0.0014
765.371	0.0014
765.61	0.0028
765.849	0.0021
766.089	0.0026
766.328	0.004
766.567	0.0041
766.806	0.0045
767.045	0.0052
767.284	0.0045
767.523	0.005
767.762	0.0049
768.001	0.0035
768.239	0.003
768.478	0.0023
768.717	0.0032
768.955	0.003
769.194	0.0028
769.432	0.0029
769.671	0.0039
769.909	0.0036
770.148	0.0039
770.386	0.0034
770.624	0.0032
770.862	0.0034
771.1	0.003
771.338	0.003
771.576	0.004
771.814	0.0037
772.052	0.0038
772.29	0.0042
772.528	0.005
772.765	0.0043
773.003	0.0045
773.24	0.0048
773.478	0.0038
773.716	0.0049
773.953	0.0048
774.19	0.005
774.428	0.0054
774.665	0.0057
774.902	0.006
775.139	0.0044
775.376	0.0051
775.613	0.0041
775.85	0.0052
776.087	0.0046
776.324	0.0042
776.561	0.0053
776.798	0.0068
777.034	0.008
777.271	0.0088
777.508	0.0093
777.744	0.0087
777.981	0.0079
778.217	0.0081
778.454	0.0061
778.69	0.0055
778.926	0.0059
779.162	0.0056
779.399	0.005
779.635	0.0046
779.871	0.0035
780.107	0.0053
780.343	0.0051
780.579	0.0063
780.814	0.0054
781.05	0.005
781.286	0.0051
781.522	0.0046
781.757	0.0066
781.993	0.0063
782.228	0.0061
782.464	0.0059
782.699	0.0055
782.934	0.0042
783.17	0.0051
783.405	0.0042
783.64	0.004
783.875	0.0038
784.11	0.0051
784.345	0.005
784.58	0.0051
784.815	0.0052
785.05	0.0054
785.285	0.0038
785.52	0.0027
785.754	0.0039
785.989	0.0034
786.223	0.0022
786.458	0.0028
786.692	0.0033
786.927	0.0033
787.161	0.003
787.396	0.0026
787.63	0.0021
787.864	0.0015
788.098	0.002
788.332	0.0021
788.566	0.0017
788.8	0.0009
789.034	0.0013
789.268	0.0015
789.502	0.0027
789.736	0.0036
789.969	0.0036
790.203	0.0035
790.437	0.0031
790.67	0.0018
790.904	0.0031
791.137	0.0017
791.37	0.0007
791.604	0.0007
791.837	0.0007
792.07	0.001
792.303	0.0019
792.537	0.0008
792.77	0.0015
793.003	0.0007
793.236	-0.0007
793.469	0.0002
793.701	0.0008
793.934	0.001
794.167	0.0003
794.4	0.001
794.632	0.0017
794.865	0.0008
795.097	0.0017
795.33	0.0021
795.562	0.0018
795.795	0.0027
796.027	0.0025
796.259	0.0028
796.491	0.0026
796.724	0.002
796.956	0.003
797.188	0.004
797.42	0.0028
797.652	0.0025
797.883	0.002
798.115	0.0013
798.347	0.001
798.579	-0.0005
798.81	-0.0011
799.042	-0.0011
799.274	-0.0016
799.505	-0.0007
799.737	-0.0003
799.968	-0.0004
800.199	0.0005
800.431	0.001
800.662	0.0016
800.893	0.0022
801.124	0.0019
801.355	0.0017
801.586	0.0027
801.817	0.002
802.048	0.0018
802.279	0.0017
802.51	0.0019
802.741	-0.0006
802.971	0
803.202	-0.0004
803.433	-0.0004
803.663	-0.0002
803.894	-0.0002
804.124	0.0006
804.354	0.0001
804.585	0.0005
804.815	0.0003
805.045	0.0005
805.275	-0.0009
805.506	-0.0117
805.736	0.1628
805.966	0.025
806.196	0.1366
