Data from 03 0.2 mM BQDS 0.4 mM K2Cr2O7 1 M H2SO4 5 min_Absorbance_17-02-42-873.txt Node
Date: Wed Dec 08 17:02:42 EST 2021
User: kwabilab-user
Spectrometer: HDX00518
Trigger mode: 0
Integration Time (sec): 5.000000E-2
Scans to average: 50
Nonlinearity correction enabled: false
Boxcar width: 0
Storing dark spectrum: false
XAxis mode: Wavelengths
Number of Pixels in Spectrum: 2068
>>>>>Begin Spectral Data<<<<<
195.27	0.0951
195.642	0.0012
196.014	0.0204
196.386	-0.132
196.758	0.0395
197.129	0.0428
197.501	0.0606
197.872	0.1022
198.244	0.1203
198.615	0.1205
198.986	0.1269
199.357	0.1085
199.728	0.1049
200.099	0.1093
200.47	0.1249
200.841	0.1193
201.212	0.1144
201.582	0.1072
201.953	0.1209
202.323	0.1267
202.694	0.1051
203.064	0.119
203.434	0.1062
203.804	0.1289
204.174	0.1024
204.544	0.1194
204.914	0.1191
205.284	0.1197
205.653	0.1312
206.023	0.1159
206.393	0.1222
206.762	0.1258
207.131	0.1392
207.501	0.1319
207.87	0.1374
208.239	0.1276
208.608	0.1317
208.977	0.1413
209.346	0.145
209.715	0.1449
210.083	0.1533
210.452	0.1515
210.82	0.1606
211.189	0.1629
211.557	0.1355
211.925	0.1666
212.294	0.1831
212.662	0.1696
213.03	0.1778
213.398	0.1681
213.766	0.193
214.133	0.2079
214.501	0.2163
214.869	0.2049
215.236	0.2349
215.604	0.2462
215.971	0.245
216.338	0.2839
216.705	0.2929
217.072	0.3116
217.439	0.3198
217.806	0.3742
218.173	0.3784
218.54	0.4115
218.907	0.4585
219.273	0.4802
219.64	0.5264
220.006	0.566
220.373	0.5973
220.739	0.6352
221.105	0.6628
221.471	0.6982
221.837	0.7322
222.203	0.7785
222.569	0.8179
222.935	0.8402
223.3	0.8667
223.666	0.8878
224.031	0.913
224.397	0.9334
224.762	0.957
225.127	0.9763
225.493	0.9916
225.858	0.9925
226.223	0.9999
226.588	1.0147
226.952	1.0134
227.317	1.0256
227.682	1.0242
228.046	1.0251
228.411	1.0289
228.775	1.016
229.14	1.0108
229.504	1.0002
229.868	1.0047
230.232	1.003
230.596	0.9938
230.96	0.984
231.324	0.9748
231.688	0.9652
232.052	0.9607
232.415	0.9457
232.779	0.9432
233.142	0.9319
233.505	0.925
233.869	0.9143
234.232	0.9103
234.595	0.8909
234.958	0.8852
235.321	0.8767
235.684	0.8664
236.047	0.856
236.409	0.8459
236.772	0.8357
237.134	0.8315
237.497	0.8199
237.859	0.8117
238.222	0.8044
238.584	0.7949
238.946	0.7844
239.308	0.7768
239.67	0.7674
240.032	0.7644
240.393	0.7525
240.755	0.7454
241.117	0.7393
241.478	0.7353
241.84	0.7244
242.201	0.7174
242.562	0.7141
242.924	0.7054
243.285	0.6994
243.646	0.693
244.007	0.6889
244.368	0.6829
244.728	0.6765
245.089	0.6715
245.45	0.6666
245.81	0.663
246.171	0.6583
246.531	0.6533
246.891	0.6466
247.252	0.6432
247.612	0.6391
247.972	0.6356
248.332	0.6342
248.692	0.6285
249.051	0.6263
249.411	0.6237
249.771	0.6174
250.13	0.6164
250.49	0.6128
250.849	0.61
251.208	0.6063
251.568	0.6037
251.927	0.6004
252.286	0.6
252.645	0.598
253.004	0.5943
253.363	0.5904
253.721	0.5889
254.08	0.5889
254.439	0.5866
254.797	0.5824
255.155	0.5796
255.514	0.5783
255.872	0.5768
256.23	0.5738
256.588	0.572
256.946	0.5712
257.304	0.5702
257.662	0.5669
258.02	0.5647
258.377	0.5628
258.735	0.5623
259.093	0.5595
259.45	0.5574
259.807	0.5568
260.165	0.5532
260.522	0.5523
260.879	0.5493
261.236	0.5481
261.593	0.5456
261.95	0.5436
262.306	0.5429
262.663	0.5409
263.02	0.5399
263.376	0.5358
263.733	0.5334
264.089	0.5339
264.445	0.5298
264.802	0.5278
265.158	0.5243
265.514	0.5228
265.87	0.5231
266.226	0.5186
266.581	0.5171
266.937	0.5147
267.293	0.5147
267.648	0.5117
268.004	0.5077
268.359	0.5063
268.714	0.5024
269.07	0.4991
269.425	0.4971
269.78	0.4975
270.135	0.4943
270.49	0.4916
270.844	0.4892
271.199	0.4869
271.554	0.4857
271.908	0.481
272.263	0.4794
272.617	0.4772
272.972	0.4726
273.326	0.4711
273.68	0.4678
274.034	0.466
274.388	0.4623
274.742	0.4602
275.096	0.4571
275.45	0.4535
275.803	0.4508
276.157	0.449
276.51	0.4465
276.864	0.4432
277.217	0.4398
277.571	0.4371
277.924	0.4318
278.277	0.4293
278.63	0.4266
278.983	0.421
279.336	0.4197
279.688	0.4165
280.041	0.4126
280.394	0.4074
280.746	0.4058
281.099	0.4008
281.451	0.3975
281.803	0.3945
282.156	0.3921
282.508	0.3878
282.86	0.3841
283.212	0.3809
283.564	0.3764
283.916	0.373
284.267	0.3695
284.619	0.3662
284.971	0.3618
285.322	0.3592
285.673	0.3555
286.025	0.3528
286.376	0.3477
286.727	0.3441
287.078	0.3393
287.429	0.3375
287.78	0.3328
288.131	0.3287
288.482	0.3245
288.833	0.3221
289.183	0.3173
289.534	0.314
289.884	0.3102
290.235	0.306
290.585	0.3018
290.935	0.299
291.285	0.2939
291.635	0.292
291.985	0.2881
292.335	0.284
292.685	0.2806
293.035	0.2769
293.384	0.2734
293.734	0.2696
294.083	0.2649
294.433	0.262
294.782	0.2587
295.131	0.2549
295.48	0.2527
295.829	0.2491
296.179	0.2442
296.527	0.2413
296.876	0.2385
297.225	0.2359
297.574	0.2318
297.922	0.2294
298.271	0.2255
298.619	0.2224
298.968	0.22
299.316	0.2163
299.664	0.2143
300.012	0.2115
300.36	0.2077
300.708	0.2058
301.056	0.2028
301.404	0.2009
301.752	0.1977
302.099	0.1958
302.447	0.1934
302.794	0.1903
303.142	0.1883
303.489	0.1863
303.836	0.1842
304.183	0.1831
304.531	0.181
304.878	0.1789
305.224	0.1768
305.571	0.1752
305.918	0.173
306.265	0.1719
306.611	0.1704
306.958	0.1686
307.304	0.1678
307.651	0.1663
307.997	0.1654
308.343	0.1643
308.689	0.1628
309.035	0.1615
309.381	0.1611
309.727	0.1591
310.073	0.1595
310.419	0.1579
310.764	0.1577
311.11	0.1568
311.455	0.1564
311.801	0.1554
312.146	0.155
312.491	0.1542
312.837	0.1541
313.182	0.154
313.527	0.1534
313.872	0.1529
314.216	0.1533
314.561	0.1528
314.906	0.1532
315.251	0.1526
315.595	0.1522
315.94	0.1526
316.284	0.1528
316.628	0.1523
316.972	0.1526
317.317	0.1527
317.661	0.1537
318.005	0.1534
318.348	0.1535
318.692	0.1541
319.036	0.1538
319.38	0.1546
319.723	0.1552
320.067	0.1552
320.41	0.1558
320.754	0.1568
321.097	0.157
321.44	0.1586
321.783	0.1585
322.126	0.1598
322.469	0.1606
322.812	0.1618
323.155	0.1617
323.498	0.1629
323.84	0.1631
324.183	0.1646
324.525	0.1656
324.868	0.1661
325.21	0.1676
325.552	0.1686
325.894	0.1689
326.236	0.1705
326.578	0.1713
326.92	0.173
327.262	0.1729
327.604	0.174
327.946	0.1751
328.287	0.1765
328.629	0.1774
328.97	0.1792
329.312	0.18
329.653	0.1806
329.994	0.1818
330.335	0.1837
330.676	0.1846
331.017	0.1854
331.358	0.1868
331.699	0.1877
332.04	0.1889
332.38	0.1896
332.721	0.192
333.061	0.192
333.402	0.1936
333.742	0.1949
334.083	0.1964
334.423	0.1969
334.763	0.1974
335.103	0.1991
335.443	0.1998
335.783	0.2007
336.123	0.2014
336.462	0.2026
336.802	0.2034
337.141	0.2039
337.481	0.2054
337.82	0.2059
338.16	0.2065
338.499	0.208
338.838	0.2086
339.177	0.2101
339.516	0.211
339.855	0.2119
340.194	0.213
340.533	0.2135
340.872	0.2143
341.21	0.2155
341.549	0.2154
341.887	0.2163
342.226	0.2166
342.564	0.2165
342.902	0.2173
343.24	0.2175
343.578	0.2172
343.916	0.2182
344.254	0.2181
344.592	0.2178
344.93	0.2186
345.268	0.2188
345.605	0.2191
345.943	0.2184
346.28	0.2189
346.618	0.2188
346.955	0.2193
347.292	0.2197
347.629	0.2201
347.966	0.2197
348.303	0.2205
348.64	0.2195
348.977	0.2193
349.314	0.2195
349.65	0.2194
349.987	0.219
350.324	0.2186
350.66	0.2184
350.996	0.2182
351.333	0.2176
351.669	0.2168
352.005	0.2169
352.341	0.2148
352.677	0.2147
353.013	0.2135
353.349	0.2142
353.685	0.2118
354.02	0.2109
354.356	0.2107
354.691	0.209
355.027	0.2088
355.362	0.2071
355.697	0.2069
356.033	0.2056
356.368	0.2047
356.703	0.2041
357.038	0.2037
357.373	0.2026
357.707	0.2021
358.042	0.2007
358.377	0.1999
358.711	0.1992
359.046	0.1985
359.38	0.1963
359.715	0.1961
360.049	0.1951
360.383	0.1942
360.717	0.1922
361.051	0.1902
361.385	0.1903
361.719	0.1887
362.053	0.1879
362.387	0.1853
362.72	0.1839
363.054	0.1816
363.387	0.1799
363.721	0.1786
364.054	0.177
364.387	0.1748
364.721	0.1741
365.054	0.1721
365.387	0.1712
365.72	0.1692
366.053	0.1674
366.385	0.1663
366.718	0.1653
367.051	0.1631
367.383	0.162
367.716	0.1607
368.048	0.1596
368.381	0.1586
368.713	0.1573
369.045	0.1565
369.377	0.1549
369.709	0.1533
370.041	0.1524
370.373	0.1511
370.705	0.1494
371.037	0.1481
371.368	0.1459
371.7	0.1457
372.031	0.1437
372.363	0.1418
372.694	0.1403
373.025	0.1379
373.356	0.137
373.688	0.1347
374.019	0.1322
374.35	0.1311
374.68	0.1292
375.011	0.1269
375.342	0.1254
375.673	0.1236
376.003	0.1218
376.334	0.1206
376.664	0.1186
376.995	0.1175
377.325	0.116
377.655	0.115
377.985	0.1139
378.315	0.1125
378.645	0.1107
378.975	0.1095
379.305	0.109
379.635	0.1077
379.964	0.1062
380.294	0.1054
380.623	0.1042
380.953	0.1031
381.282	0.1015
381.611	0.1005
381.941	0.0995
382.27	0.098
382.599	0.096
382.928	0.0945
383.257	0.0944
383.585	0.0929
383.914	0.0917
384.243	0.0898
384.571	0.088
384.9	0.0867
385.228	0.0849
385.557	0.0839
385.885	0.0828
386.213	0.081
386.541	0.08
386.869	0.0784
387.197	0.0767
387.525	0.0751
387.853	0.0739
388.181	0.0732
388.508	0.0721
388.836	0.0713
389.164	0.0697
389.491	0.0692
389.818	0.0679
390.146	0.0668
390.473	0.0652
390.8	0.0646
391.127	0.063
391.454	0.0636
391.781	0.0617
392.108	0.061
392.435	0.0594
392.761	0.0584
393.088	0.058
393.415	0.0574
393.741	0.0574
394.067	0.0565
394.394	0.0559
394.72	0.0551
395.046	0.054
395.372	0.053
395.698	0.0519
396.024	0.0521
396.35	0.0507
396.676	0.0509
397.001	0.0501
397.327	0.0484
397.653	0.0479
397.978	0.0469
398.303	0.0458
398.629	0.045
398.954	0.045
399.279	0.0448
399.604	0.0441
399.929	0.0434
400.254	0.0425
400.579	0.0426
400.904	0.0418
401.229	0.0415
401.553	0.0399
401.878	0.0402
402.202	0.04
402.527	0.0392
402.851	0.0394
403.175	0.0385
403.5	0.0383
403.824	0.0385
404.148	0.0375
404.472	0.0379
404.796	0.037
405.119	0.0366
405.443	0.0366
405.767	0.0357
406.09	0.0356
406.414	0.0363
406.737	0.0359
407.061	0.0356
407.384	0.035
407.707	0.035
408.03	0.036
408.353	0.0358
408.676	0.0354
408.999	0.0347
409.322	0.0351
409.645	0.0351
409.968	0.0342
410.29	0.0342
410.613	0.0344
410.935	0.0339
411.258	0.0348
411.58	0.034
411.902	0.0345
412.224	0.0345
412.546	0.0346
412.868	0.0338
413.19	0.0343
413.512	0.0339
413.834	0.0343
414.156	0.0345
414.477	0.0343
414.799	0.0341
415.121	0.0346
415.442	0.0347
415.763	0.0349
416.085	0.0345
416.406	0.0348
416.727	0.0348
417.048	0.0344
417.369	0.0344
417.69	0.034
418.011	0.035
418.331	0.0349
418.652	0.0345
418.973	0.0349
419.293	0.0346
419.614	0.035
419.934	0.0347
420.254	0.0347
420.574	0.0343
420.895	0.0347
421.215	0.0343
421.535	0.0338
421.855	0.0343
422.174	0.0344
422.494	0.0346
422.814	0.0352
423.134	0.035
423.453	0.035
423.773	0.0351
424.092	0.0348
424.411	0.0351
424.731	0.0354
425.05	0.0353
425.369	0.0354
425.688	0.0355
426.007	0.0358
426.326	0.0359
426.644	0.0369
426.963	0.0361
427.282	0.0364
427.6	0.0359
427.919	0.0363
428.237	0.0365
428.556	0.0366
428.874	0.0363
429.192	0.0361
429.51	0.0363
429.828	0.0363
430.146	0.0368
430.464	0.0368
430.782	0.0363
431.1	0.0363
431.418	0.0358
431.735	0.0364
432.053	0.0369
432.37	0.0365
432.688	0.0367
433.005	0.0372
433.322	0.0373
433.639	0.0367
433.957	0.0373
434.274	0.0372
434.591	0.0369
434.907	0.0377
435.224	0.0366
435.541	0.0375
435.858	0.038
436.174	0.0373
436.491	0.0375
436.807	0.0376
437.124	0.0366
437.44	0.0364
437.756	0.0365
438.072	0.0367
438.388	0.0379
438.704	0.0367
439.02	0.0381
439.336	0.0366
439.652	0.0373
439.968	0.0373
440.283	0.0373
440.599	0.0368
440.914	0.0364
441.23	0.0361
441.545	0.0368
441.86	0.0366
442.175	0.0376
442.491	0.0365
442.806	0.0368
443.121	0.0367
443.435	0.0366
443.75	0.0365
444.065	0.0369
444.38	0.0367
444.694	0.0368
445.009	0.0368
445.323	0.0371
445.638	0.0364
445.952	0.0365
446.266	0.0364
446.58	0.0366
446.894	0.0366
447.208	0.0369
447.522	0.0365
447.836	0.0355
448.15	0.0359
448.464	0.0352
448.777	0.0357
449.091	0.0353
449.404	0.0361
449.718	0.0363
450.031	0.0358
450.345	0.0359
450.658	0.0355
450.971	0.0352
451.284	0.0351
451.597	0.0354
451.91	0.0357
452.223	0.0355
452.535	0.0353
452.848	0.0347
453.161	0.0349
453.473	0.0351
453.786	0.0353
454.098	0.0348
454.411	0.0343
454.723	0.0346
455.035	0.0338
455.347	0.0347
455.659	0.0342
455.971	0.035
456.283	0.0345
456.595	0.0341
456.907	0.0338
457.218	0.0344
457.53	0.0339
457.841	0.0331
458.153	0.0333
458.464	0.0329
458.776	0.0326
459.087	0.033
459.398	0.0328
459.709	0.0331
460.02	0.0325
460.331	0.0324
460.642	0.0318
460.953	0.032
461.263	0.0318
461.574	0.0317
461.885	0.032
462.195	0.032
462.506	0.0322
462.816	0.0318
463.126	0.0303
463.437	0.0309
463.747	0.0303
464.057	0.0302
464.367	0.0298
464.677	0.0295
464.987	0.0302
465.296	0.03
465.606	0.029
465.916	0.029
466.225	0.0291
466.535	0.0286
466.844	0.0288
467.154	0.0284
467.463	0.0284
467.772	0.0288
468.081	0.0281
468.39	0.0279
468.699	0.028
469.008	0.028
469.317	0.0286
469.626	0.0271
469.935	0.028
470.243	0.0273
470.552	0.0283
470.86	0.027
471.169	0.027
471.477	0.0274
471.785	0.0272
472.093	0.0269
472.402	0.0267
472.71	0.0264
473.018	0.0259
473.326	0.0254
473.633	0.0264
473.941	0.0254
474.249	0.0249
474.556	0.0254
474.864	0.0251
475.171	0.0243
475.479	0.0243
475.786	0.0248
476.094	0.0247
476.401	0.0239
476.708	0.0242
477.015	0.0245
477.322	0.0238
477.629	0.0247
477.936	0.0237
478.242	0.0229
478.549	0.0229
478.856	0.0217
479.162	0.0233
479.469	0.0225
479.775	0.0228
480.081	0.0222
480.388	0.0225
480.694	0.0213
481	0.0209
481.306	0.0217
481.612	0.0211
481.918	0.0204
482.224	0.021
482.53	0.0202
482.835	0.0202
483.141	0.0194
483.446	0.0197
483.752	0.0195
484.057	0.0186
484.363	0.0191
484.668	0.0186
484.973	0.018
485.278	0.0173
485.583	0.0176
485.888	0.0171
486.193	0.0176
486.498	0.0175
486.803	0.0184
487.107	0.0175
487.412	0.0168
487.717	0.0163
488.021	0.0175
488.325	0.0163
488.63	0.0167
488.934	0.0166
489.238	0.0168
489.542	0.0161
489.846	0.0154
490.15	0.0166
490.454	0.0161
490.758	0.0163
491.062	0.015
491.366	0.016
491.669	0.0152
491.973	0.0156
492.276	0.015
492.58	0.0141
492.883	0.015
493.186	0.0146
493.489	0.0141
493.792	0.0149
494.096	0.0146
494.399	0.0134
494.701	0.0143
495.004	0.0136
495.307	0.0132
495.61	0.0135
495.912	0.0127
496.215	0.0129
496.517	0.0128
496.82	0.0123
497.122	0.0127
497.424	0.0119
497.727	0.0112
498.029	0.0127
498.331	0.0124
498.633	0.0122
498.935	0.0124
499.237	0.012
499.538	0.0109
499.84	0.0115
500.142	0.0122
500.443	0.0117
500.745	0.0113
501.046	0.0117
501.348	0.0103
501.649	0.0117
501.95	0.0098
502.251	0.0105
502.552	0.0096
502.853	0.0087
503.154	0.01
503.455	0.009
503.756	0.0099
504.057	0.0099
504.357	0.0094
504.658	0.0087
504.958	0.0101
505.259	0.0101
505.559	0.0101
505.859	0.0085
506.16	0.0091
506.46	0.009
506.76	0.0097
507.06	0.0084
507.36	0.009
507.66	0.0088
507.96	0.0094
508.259	0.0085
508.559	0.0075
508.859	0.0084
509.158	0.0076
509.457	0.0076
509.757	0.0088
510.056	0.0079
510.355	0.0071
510.655	0.0072
510.954	0.0066
511.253	0.0077
511.552	0.0075
511.851	0.007
512.149	0.0062
512.448	0.0073
512.747	0.0078
513.045	0.0065
513.344	0.0071
513.642	0.0075
513.941	0.0068
514.239	0.007
514.537	0.0068
514.836	0.0064
515.134	0.0067
515.432	0.0056
515.73	0.0067
516.028	0.0055
516.326	0.0068
516.623	0.0062
516.921	0.0054
517.219	0.0065
517.516	0.0061
517.814	0.0058
518.111	0.006
518.409	0.0073
518.706	0.0066
519.003	0.0063
519.3	0.0055
519.597	0.0044
519.894	0.0056
520.191	0.0069
520.488	0.006
520.785	0.0049
521.082	0.0067
521.378	0.0057
521.675	0.0041
521.971	0.0043
522.268	0.0055
522.564	0.0045
522.861	0.0056
523.157	0.0036
523.453	0.0047
523.749	0.0052
524.045	0.0057
524.341	0.0046
524.637	0.0047
524.933	0.0046
525.229	0.0051
525.524	0.0048
525.82	0.0059
526.115	0.0043
526.411	0.0046
526.706	0.0046
527.002	0.0047
527.297	0.0042
527.592	0.006
527.887	0.0046
528.182	0.0048
528.477	0.0054
528.772	0.0051
529.067	0.0047
529.362	0.0047
529.657	0.0043
529.951	0.005
530.246	0.0029
530.54	0.0023
530.835	0.0028
531.129	0.003
531.423	0.0041
531.718	0.0028
532.012	0.0035
532.306	0.0024
532.6	0.004
532.894	0.0038
533.188	0.0043
533.482	0.0024
533.775	0.0033
534.069	0.0028
534.363	0.0027
534.656	0.0019
534.95	0.0024
535.243	0.0022
535.536	0.003
535.83	0.0036
536.123	0.0023
536.416	0.0026
536.709	0.0031
537.002	0.0036
537.295	0.0037
537.588	0.0043
537.881	0.0037
538.173	0.0025
538.466	0.0026
538.759	0.0022
539.051	0.0025
539.344	0.0013
539.636	0.0027
539.928	0.0019
540.22	0.0026
540.513	0.0031
540.805	0.0025
541.097	0.0035
541.389	0.0024
541.681	0.0021
541.972	0.0025
542.264	0.001
542.556	0.0016
542.847	0.003
543.139	0.0033
543.431	0.0037
543.722	0.0023
544.013	0.0032
544.305	0.0046
544.596	0.0047
544.887	0.0035
545.178	0.0022
545.469	0.0025
545.76	0.0018
546.051	0.0033
546.342	0.0039
546.632	0.0017
546.923	0.0035
547.214	0.003
547.504	0.0029
547.795	0.0036
548.085	0.0034
548.375	0.0025
548.666	0.0025
548.956	0.0018
549.246	0.0028
549.536	0.0024
549.826	0.003
550.116	0.0031
550.406	0.0038
550.695	0.0045
550.985	0.004
551.275	0.0042
551.564	0.0031
551.854	0.0034
552.143	0.0036
552.433	0.0032
552.722	0.003
553.011	0.0028
553.3	0.0038
553.589	0.0034
553.879	0.0023
554.167	0.0037
554.456	0.003
554.745	0.0024
555.034	0.0023
555.323	0.0019
555.611	0.0019
555.9	0.0029
556.188	0.0032
556.477	0.0027
556.765	0.0019
557.053	0.0027
557.342	0.0017
557.63	0.0036
557.918	0.0028
558.206	0.0042
558.494	0.0034
558.782	0.0034
559.069	0.0043
559.357	0.0037
559.645	0.0029
559.932	0.003
560.22	0.0037
560.507	0.004
560.795	0.0028
561.082	0.0021
561.37	0.0029
561.657	0.004
561.944	0.0039
562.231	0.0024
562.518	0.0029
562.805	0.0031
563.092	0.003
563.379	0.0036
563.665	0.0029
563.952	0.0038
564.239	0.0035
564.525	0.0046
564.811	0.0043
565.098	0.0043
565.384	0.0042
565.67	0.0039
565.957	0.0036
566.243	0.0035
566.529	0.0038
566.815	0.0061
567.101	0.0035
567.387	0.0029
567.672	0.0028
567.958	0.0039
568.244	0.0034
568.529	0.0034
568.815	0.0024
569.1	0.0033
569.386	0.0027
569.671	0.0027
569.956	0.0034
570.242	0.0024
570.527	0.0033
570.812	0.0032
571.097	0.0034
571.382	0.0026
571.666	0.0026
571.951	0.002
572.236	0.0024
572.521	0.0019
572.805	0.0033
573.09	0.0023
573.374	0.0023
573.659	0.0017
573.943	0.0028
574.227	0.0027
574.511	0.0035
574.795	0.0021
575.079	0.0018
575.363	0.0019
575.647	0.0026
575.931	0.0023
576.215	0.0032
576.499	0.0023
576.782	0.0027
577.066	0.0017
577.349	0.0031
577.633	0.0035
577.916	0.0033
578.2	0.0027
578.483	0.0027
578.766	0.0022
579.049	0.0036
579.332	0.0031
579.615	0.0031
579.898	0.0026
580.181	0.0028
580.464	0.0029
580.746	0.0014
581.029	0.0028
581.312	0.0016
581.594	0.0019
581.877	0.0017
582.159	0.0027
582.441	0.0029
582.724	0.0025
583.006	0.0026
583.288	0.0013
583.57	0.0019
583.852	0.0018
584.134	0.0026
584.416	0.003
584.697	0.0018
584.979	0.0024
585.261	0.0026
585.542	0.0019
585.824	0.0024
586.105	0.003
586.387	0.0026
586.668	0.0022
586.949	0.0024
587.231	0.0017
587.512	0.0024
587.793	0.0023
588.074	0.0028
588.355	0.0028
588.636	0.0037
588.916	0.003
589.197	0.0031
589.478	0.0031
589.758	0.0029
590.039	0.0029
590.319	0.0023
590.6	0.003
590.88	0.0032
591.16	0.0034
591.441	0.0026
591.721	0.0033
592.001	0.0032
592.281	0.0034
592.561	0.0027
592.841	0.0037
593.12	0.0016
593.4	0.0018
593.68	0.0026
593.959	0.0021
594.239	0.0034
594.518	0.0023
594.798	0.0034
595.077	0.003
595.356	0.0029
595.636	0.003
595.915	0.003
596.194	0.0029
596.473	0.0036
596.752	0.0025
597.031	0.0019
597.31	0.0017
597.588	0.002
597.867	0.002
598.146	0.0026
598.424	0.0022
598.703	0.0028
598.981	0.0022
599.259	0.0024
599.538	0.0018
599.816	0.003
600.094	0.002
600.372	0.0022
600.65	0.0031
600.928	0.0024
601.206	0.0033
601.484	0.0031
601.762	0.0031
602.04	0.0027
602.317	0.0033
602.595	0.0023
602.872	0.0032
603.15	0.002
603.427	0.002
603.704	0.0016
603.982	0.0013
604.259	0.0014
604.536	0.0019
604.813	0.0021
605.09	0.0029
605.367	0.0018
605.644	0.0016
605.921	0.0025
606.197	0.0022
606.474	0.0019
606.751	0.0028
607.027	0.0027
607.304	0.0018
607.58	0.0022
607.856	0.0017
608.133	0.0028
608.409	0.0028
608.685	0.0026
608.961	0.0031
609.237	0.0029
609.513	0.0024
609.789	0.0033
610.065	0.0022
610.341	0.0024
610.616	0.0015
610.892	0.0027
611.167	0.0028
611.443	0.0012
611.718	0.0019
611.994	0.0018
612.269	0.0022
612.544	0.0023
612.819	0.0018
613.095	0.0031
613.37	0.003
613.645	0.0017
613.919	0.0017
614.194	0.0018
614.469	0.002
614.744	0.0011
615.019	0.001
615.293	0.0008
615.568	0.0009
615.842	0.001
616.116	0.0006
616.391	0
616.665	0.0027
616.939	0.0015
617.213	0.0016
617.488	0.0016
617.762	0.0018
618.035	0.0024
618.309	0.0016
618.583	0.0019
618.857	0.0025
619.131	0.003
619.404	0.0022
619.678	0.0018
619.951	0.0008
620.225	0.0014
620.498	0.0019
620.771	0.0022
621.045	0.0028
621.318	0.0027
621.591	0.0018
621.864	0.0019
622.137	0.0008
622.41	0.0013
622.683	0.0008
622.956	0.0028
623.228	0.0028
623.501	0.0033
623.774	0.0027
624.046	0.0023
624.319	0.0025
624.591	0.001
624.863	0.0021
625.136	0.002
625.408	0.0026
625.68	0.0023
625.952	0.0026
626.224	0.0035
626.496	0.0022
626.768	0.0019
627.04	0.0021
627.311	0.0027
627.583	0.0025
627.855	0.0028
628.126	0.0023
628.398	0.0036
628.669	0.0026
628.941	0.0016
629.212	0.0019
629.483	0.0012
629.755	0.0019
630.026	0.0017
630.297	0.0016
630.568	0.0008
630.839	0.0007
631.11	0.0017
631.38	0.001
631.651	0.0011
631.922	0.0002
632.192	0.0009
632.463	0.0005
632.733	0.0008
633.004	0.0018
633.274	0.0003
633.545	0.0023
633.815	0.0031
634.085	0.0026
634.355	0.0028
634.625	0.0033
634.895	0.0017
635.165	0.0024
635.435	0.0022
635.705	0.002
635.974	0.0013
636.244	0.0019
636.514	0.0016
636.783	0.0017
637.053	0.0016
637.322	0.0017
637.591	0.0025
637.861	0.002
638.13	0.002
638.399	0.0023
638.668	0.0021
638.937	0.001
639.206	0.0025
639.475	0.0023
639.744	0.002
640.013	0.0038
640.281	0.0036
640.55	0.004
640.819	0.003
641.087	0.0031
641.356	0.0025
641.624	0.0029
641.892	0.0026
642.161	0.0032
642.429	0.0038
642.697	0.0029
642.965	0.0039
643.233	0.0038
643.501	0.003
643.769	0.0028
644.037	0.0018
644.305	0.0021
644.572	0.0016
644.84	0.0026
645.108	0.0022
645.375	0.001
645.643	0.0012
645.91	0.0013
646.177	0.0021
646.445	0.0038
646.712	0.0051
646.979	0.0046
647.246	0.0042
647.513	0.0047
647.78	0.0043
648.047	0.0049
648.314	0.0033
648.58	0.0029
648.847	0.0021
649.114	0.0017
649.38	0.0009
649.647	0.0007
649.913	0.0014
650.18	0.0015
650.446	0.0021
650.712	0.0025
650.978	0.0027
651.245	0.0033
651.511	0.0035
651.777	0.002
652.043	0.0031
652.309	0.0031
652.574	0.0038
652.84	0.0027
653.106	0.0017
653.371	0.0016
653.637	0.0023
653.903	0.0029
654.168	0.0033
654.433	0.0034
654.699	0.0038
654.964	0.0041
655.229	0.0036
655.494	0.0036
655.759	0.0015
656.024	0.0005
656.289	-0
656.554	-0.0019
656.819	-0.0003
657.084	0.0027
657.349	0.0044
657.613	0.0044
657.878	0.004
658.142	0.0047
658.407	0.0039
658.671	0.0035
658.936	0.0025
659.2	0.0015
659.464	0.003
659.728	0.0027
659.992	0.0023
660.256	0.002
660.52	0.0024
660.784	0.0018
661.048	0.0012
661.312	0.0008
661.575	0.001
661.839	-0.0001
662.103	-0.0003
662.366	-0.0004
662.63	0.0006
662.893	0.0009
663.156	0.0006
663.42	0.0011
663.683	0.0009
663.946	0.0028
664.209	0.003
664.472	0.0025
664.735	0.0026
664.998	0.0021
665.261	0.0021
665.524	0.002
665.786	0.0014
666.049	0.0017
666.312	0.0013
666.574	0.0027
666.837	0.0013
667.099	0.0006
667.361	0.0008
667.624	0.0002
667.886	0.001
668.148	0.0014
668.41	0.0035
668.672	0.0012
668.934	0.0011
669.196	0.0018
669.458	0.0019
669.72	0.0022
669.982	0.0023
670.243	0.0028
670.505	0.0026
670.766	0.0025
671.028	0.0028
671.289	0.0028
671.551	0.0017
671.812	0.0011
672.073	0.0013
672.334	0.0007
672.596	0.0018
672.857	0.0008
673.118	0.0006
673.379	0.0007
673.639	-0.0007
673.9	0.0002
674.161	-0.0014
674.422	-0.0016
674.682	-0.0009
674.943	-0.0018
675.203	0.0004
675.464	0.0009
675.724	0.0008
675.985	0.0024
676.245	0.0028
676.505	0.0029
676.765	0.0025
677.025	0.003
677.285	0.0027
677.545	0.0044
677.805	0.0033
678.065	0.0036
678.325	0.0036
678.585	0.0036
678.844	0.003
679.104	0.002
679.363	0.0026
679.623	0.0029
679.882	0.0038
680.142	0.004
680.401	0.0046
680.66	0.0047
680.919	0.0042
681.178	0.0048
681.437	0.0045
681.696	0.0045
681.955	0.0047
682.214	0.0055
682.473	0.0048
682.732	0.0041
682.99	0.0036
683.249	0.0038
683.508	0.0036
683.766	0.0034
684.024	0.0031
684.283	0.0038
684.541	0.0033
684.799	0.0035
685.058	0.0031
685.316	0.0029
685.574	0.0032
685.832	0.0034
686.09	0.0033
686.348	0.0046
686.606	0.0039
686.863	0.0041
687.121	0.0047
687.379	0.0047
687.636	0.0042
687.894	0.0048
688.151	0.0059
688.409	0.0054
688.666	0.0036
688.923	0.0053
689.181	0.0043
689.438	0.0036
689.695	0.004
689.952	0.0018
690.209	0.0026
690.466	0.0021
690.723	0.0035
690.979	0.0028
691.236	0.0029
691.493	0.002
691.75	0.003
692.006	0.0042
692.263	0.0041
692.519	0.0041
692.775	0.0028
693.032	0.0023
693.288	0.0026
693.544	0.0031
693.8	0.0032
694.056	0.0028
694.313	0.0031
694.568	0.003
694.824	0.003
695.08	0.004
695.336	0.0044
695.592	0.0028
695.847	0.0036
696.103	0.0041
696.359	0.0038
696.614	0.0038
696.869	0.0029
697.125	0.0007
697.38	0.0002
697.635	-0.0003
697.891	0.0012
698.146	0.0011
698.401	0.0031
698.656	0.0015
698.911	0.0036
699.166	0.0015
699.42	0.0016
699.675	0.0009
699.93	-0.0005
700.185	0.0018
700.439	0.0026
700.694	0.0019
700.948	0.0021
701.203	0.0024
701.457	0.0018
701.711	0.0023
701.965	0.0004
702.22	0.0002
702.474	0.0008
702.728	-0.0005
702.982	-0.0004
703.236	-0.0003
703.49	0.0004
703.743	0.0006
703.997	0.0017
704.251	0.0018
704.504	0.0029
704.758	0.0012
705.012	0.001
705.265	0.0011
705.518	0.0012
705.772	0.0004
706.025	0.0012
706.278	0.0002
706.531	0.0003
706.785	-0.0005
707.038	-0.0002
707.291	0.0002
707.543	0.0002
707.796	0.0002
708.049	-0.0004
708.302	-0.0007
708.555	0.0001
708.807	0.0003
709.06	0.0007
709.312	-0.0014
709.565	-0.0008
709.817	-0.0022
710.069	-0.0011
710.322	-0.0004
710.574	-0
710.826	0.0003
711.078	0.0007
711.33	0.0002
711.582	-0.0002
711.834	0.0015
712.086	0.0023
712.338	0.0022
712.59	0.0027
712.841	0.0017
713.093	0.0007
713.344	0.0017
713.596	0.0018
713.847	0.002
714.099	0.0027
714.35	0.0031
714.601	0.0028
714.853	0.0037
715.104	0.0035
715.355	0.0025
715.606	0.0023
715.857	0.0029
716.108	0.0033
716.359	0.0034
716.609	0.0039
716.86	0.003
717.111	0.001
717.361	0.0002
717.612	0.0009
717.863	0.0006
718.113	0.0012
718.363	0.0009
718.614	0.0004
718.864	0.0016
719.114	0.002
719.364	0.0013
719.614	0.0004
719.865	-0.0005
720.114	0.0006
720.364	0.0017
720.614	0.0028
720.864	0.0032
721.114	0.0032
721.364	0.0035
721.613	0.0039
721.863	0.0042
722.112	0.0035
722.362	0.0041
722.611	0.0038
722.86	0.0021
723.11	0.0021
723.359	0.0027
723.608	0.0025
723.857	0.0044
724.106	0.0056
724.355	0.006
724.604	0.0063
724.853	0.0055
725.102	0.0043
725.351	0.0031
725.599	0.0029
725.848	0.0026
726.097	0.003
726.345	0.0028
726.594	0.0026
726.842	0.0025
727.09	0.0023
727.339	0.0024
727.587	0.002
727.835	0.0014
728.083	0.0001
728.331	-0.0002
728.579	-0.0009
728.827	-0
729.075	-0.0002
729.323	0.0013
729.571	0.0018
729.818	0.0024
730.066	0.0021
730.314	0.0028
730.561	0.0011
730.809	0.0008
731.056	0.0003
731.303	-0.0011
731.551	0.0005
731.798	0.0005
732.045	0.0002
732.292	0.0007
732.539	0.001
732.786	0.0015
733.033	0.002
733.28	0.0022
733.527	0.0041
733.774	0.0033
734.021	0.0039
734.267	0.004
734.514	0.0046
734.76	0.0038
735.007	0.0058
735.253	0.0063
735.5	0.0059
735.746	0.006
735.992	0.0046
736.238	0.0057
736.485	0.0066
736.731	0.0061
736.977	0.0059
737.223	0.0049
737.469	0.0056
737.715	0.0059
737.96	0.0079
738.206	0.0073
738.452	0.0084
738.697	0.0086
738.943	0.0071
739.189	0.0053
739.434	0.0024
739.679	0.0023
739.925	0.0024
740.17	0.0027
740.415	0.0019
740.66	0.0029
740.906	0.0036
741.151	0.0034
741.396	0.0035
741.641	0.0056
741.886	0.0057
742.13	0.0064
742.375	0.0065
742.62	0.0074
742.865	0.0056
743.109	0.0055
743.354	0.0056
743.598	0.0053
743.843	0.0056
744.087	0.0038
744.331	0.0051
744.576	0.0046
744.82	0.0049
745.064	0.0035
745.308	0.0036
745.552	0.0038
745.796	0.0044
746.04	0.0039
746.284	0.0022
746.528	0.0009
746.771	0.0013
747.015	0.0012
747.259	0.0014
747.502	0.0011
747.746	0.0024
747.989	0.0017
748.233	0.0037
748.476	0.004
748.719	0.0048
748.963	0.0044
749.206	0.0046
749.449	0.0047
749.692	0.0036
749.935	0.005
750.178	0.0045
750.421	0.004
750.664	0.0043
750.906	0.0049
751.149	0.0038
751.392	0.0038
751.635	0.0014
751.877	0.0005
752.12	0.0003
752.362	0.0014
752.604	0.0012
752.847	0.0022
753.089	0.002
753.331	0.0023
753.573	0.002
753.816	0.0028
754.058	0.0036
754.3	0.0035
754.542	0.0051
754.783	0.0036
755.025	0.004
755.267	0.002
755.509	0.0015
755.75	0.0013
755.992	0.0022
756.234	0.0013
756.475	0.0001
756.716	0.0005
756.958	-0.0004
757.199	0.0004
757.44	0.0016
757.682	0.0011
757.923	-0.0001
758.164	-0.0001
758.405	0
758.646	0.0004
758.887	0.0003
759.128	0.0009
759.369	0.0003
759.609	0.0001
759.85	-0
760.091	0.0005
760.331	0.0007
760.572	0
760.812	-0.0001
761.053	-0.0009
761.293	0.0006
761.533	0.0012
761.774	0.0012
762.014	0.0018
762.254	0.0013
762.494	0.0005
762.734	0.0004
762.974	0.0007
763.214	0.0001
763.454	0.0002
763.694	0.0005
763.933	-0.0004
764.173	0.0012
764.413	0.0012
764.652	0.001
764.892	0.0011
765.131	0.0012
765.371	0.0012
765.61	0.0022
765.849	0.0022
766.089	0.0025
766.328	0.0035
766.567	0.0036
766.806	0.0041
767.045	0.0044
767.284	0.0036
767.523	0.0043
767.762	0.0059
768.001	0.0042
768.239	0.0035
768.478	0.0026
768.717	0.0021
768.955	0.0027
769.194	0.0022
769.432	0.0023
769.671	0.0035
769.909	0.0034
770.148	0.0037
770.386	0.0039
770.624	0.0038
770.862	0.0038
771.1	0.0031
771.338	0.003
771.576	0.0023
771.814	0.0029
772.052	0.0031
772.29	0.0035
772.528	0.0046
772.765	0.0037
773.003	0.0044
773.24	0.0044
773.478	0.004
773.716	0.0048
773.953	0.0045
774.19	0.0047
774.428	0.0042
774.665	0.0046
774.902	0.0047
775.139	0.0035
775.376	0.004
775.613	0.0034
775.85	0.0037
776.087	0.0035
776.324	0.0032
776.561	0.0041
776.798	0.0057
777.034	0.0063
777.271	0.0071
777.508	0.007
777.744	0.0073
777.981	0.0066
778.217	0.0059
778.454	0.0056
778.69	0.0051
778.926	0.0056
779.162	0.0054
779.399	0.0044
779.635	0.0043
779.871	0.0045
780.107	0.0042
780.343	0.0053
780.579	0.0059
780.814	0.0053
781.05	0.0049
781.286	0.0045
781.522	0.0044
781.757	0.006
781.993	0.0057
782.228	0.0061
782.464	0.006
782.699	0.0047
782.934	0.004
783.17	0.0042
783.405	0.0038
783.64	0.0035
783.875	0.0038
784.11	0.004
784.345	0.0047
784.58	0.0039
784.815	0.0039
785.05	0.0045
785.285	0.0035
785.52	0.0022
785.754	0.0028
785.989	0.0027
786.223	0.001
786.458	0.0016
786.692	0.0017
786.927	0.0008
787.161	0.0019
787.396	0.0013
787.63	0.0007
787.864	-0.0001
788.098	0.0001
788.332	0.0011
788.566	0.0003
788.8	0
789.034	0.001
789.268	0.0006
789.502	0.0013
789.736	0.0025
789.969	0.0027
790.203	0.0038
790.437	0.0029
790.67	0.0028
790.904	0.0027
791.137	0.0015
791.37	0.0015
791.604	0.0003
791.837	0.0012
792.07	0.0003
792.303	0.0014
792.537	0.0016
792.77	0.0007
793.003	0.001
793.236	-0.0003
793.469	-0.0002
793.701	-0.0002
793.934	0.0001
794.167	0.0005
794.4	0.0003
794.632	0.0003
794.865	-0.0001
795.097	0.0007
795.33	0.0019
795.562	0.0013
795.795	0.002
796.027	0.0014
796.259	0.0023
796.491	0.002
796.724	0.0015
796.956	0.002
797.188	0.0028
797.42	0.0016
797.652	0.0015
797.883	0.001
798.115	0
798.347	-0.0002
798.579	-0.0021
798.81	-0.0021
799.042	-0.0003
799.274	-0.0016
799.505	-0.0012
799.737	-0.0018
799.968	-0.001
800.199	-0.0002
800.431	0.0001
800.662	0.0007
800.893	0.0003
801.124	0.0008
801.355	0.0013
801.586	0.002
801.817	0.0011
802.048	0.0014
802.279	0.0017
802.51	0.0023
802.741	0.0011
802.971	0.0008
803.202	-0.0002
803.433	-0.0009
803.663	-0.0003
803.894	0.0006
804.124	0.0008
804.354	0.0006
804.585	0.0008
804.815	-0.0001
805.045	0.0006
805.275	-0.0008
805.506	-0.0236
805.736	0.0764
805.966	0.0014
806.196	0.0928
