Data from 03 0.2 mM BQDS 0.4 mM K2Cr2O7 1 M H2SO4 5 min_Absorbance_20-07-42-883.txt Node
Date: Wed Dec 08 20:07:42 EST 2021
User: kwabilab-user
Spectrometer: HDX00518
Trigger mode: 0
Integration Time (sec): 5.000000E-2
Scans to average: 50
Nonlinearity correction enabled: false
Boxcar width: 0
Storing dark spectrum: false
XAxis mode: Wavelengths
Number of Pixels in Spectrum: 2068
>>>>>Begin Spectral Data<<<<<
195.27	0.1315
195.642	-0.0048
196.014	0.0361
196.386	0.0662
196.758	0.0371
197.129	0.0401
197.501	0.0514
197.872	0.0977
198.244	0.1182
198.615	0.1255
198.986	0.1055
199.357	0.103
199.728	0.12
200.099	0.0996
200.47	0.0922
200.841	0.1059
201.212	0.103
201.582	0.1046
201.953	0.1428
202.323	0.1124
202.694	0.1097
203.064	0.1179
203.434	0.1049
203.804	0.1248
204.174	0.0982
204.544	0.1035
204.914	0.1009
205.284	0.1206
205.653	0.1268
206.023	0.1087
206.393	0.1245
206.762	0.1161
207.131	0.1097
207.501	0.1241
207.87	0.1372
208.239	0.1256
208.608	0.1068
208.977	0.1224
209.346	0.1381
209.715	0.1325
210.083	0.1378
210.452	0.1428
210.82	0.1446
211.189	0.158
211.557	0.1304
211.925	0.1475
212.294	0.1566
212.662	0.1671
213.03	0.1765
213.398	0.1614
213.766	0.188
214.133	0.1956
214.501	0.2198
214.869	0.2013
215.236	0.2323
215.604	0.2443
215.971	0.2327
216.338	0.2613
216.705	0.2892
217.072	0.3041
217.439	0.3035
217.806	0.346
218.173	0.389
218.54	0.4073
218.907	0.4419
219.273	0.481
219.64	0.5102
220.006	0.5555
220.373	0.5916
220.739	0.6156
221.105	0.6653
221.471	0.6847
221.837	0.7244
222.203	0.7721
222.569	0.7998
222.935	0.8406
223.3	0.8512
223.666	0.8949
224.031	0.9093
224.397	0.9343
224.762	0.9547
225.127	0.9691
225.493	0.9818
225.858	0.9958
226.223	0.9976
226.588	1.0173
226.952	1.0162
227.317	1.0271
227.682	1.0231
228.046	1.0179
228.411	1.0218
228.775	1.0194
229.14	1.0196
229.504	1.0169
229.868	1.0077
230.232	1.0016
230.596	0.9983
230.96	0.9933
231.324	0.9795
231.688	0.9689
232.052	0.968
232.415	0.9508
232.779	0.947
233.142	0.9386
233.505	0.9345
233.869	0.925
234.232	0.9144
234.595	0.8996
234.958	0.8978
235.321	0.8821
235.684	0.8722
236.047	0.8636
236.409	0.8531
236.772	0.8414
237.134	0.8357
237.497	0.8259
237.859	0.8203
238.222	0.8068
238.584	0.8025
238.946	0.7929
239.308	0.7855
239.67	0.7762
240.032	0.7698
240.393	0.7615
240.755	0.7531
241.117	0.7467
241.478	0.7398
241.84	0.732
242.201	0.7241
242.562	0.7186
242.924	0.7131
243.285	0.7044
243.646	0.6982
244.007	0.6951
244.368	0.6866
244.728	0.6813
245.089	0.6763
245.45	0.6722
245.81	0.6674
246.171	0.6611
246.531	0.6576
246.891	0.652
247.252	0.6491
247.612	0.6432
247.972	0.6381
248.332	0.6373
248.692	0.6321
249.051	0.6278
249.411	0.6239
249.771	0.6199
250.13	0.6178
250.49	0.6153
250.849	0.614
251.208	0.6112
251.568	0.6085
251.927	0.6039
252.286	0.6014
252.645	0.5984
253.004	0.5948
253.363	0.5913
253.721	0.5921
254.08	0.5871
254.439	0.5865
254.797	0.5823
255.155	0.581
255.514	0.5789
255.872	0.5799
256.23	0.575
256.588	0.5725
256.946	0.5697
257.304	0.57
257.662	0.5672
258.02	0.5651
258.377	0.5613
258.735	0.5597
259.093	0.5608
259.45	0.5564
259.807	0.5545
260.165	0.5529
260.522	0.5508
260.879	0.547
261.236	0.5474
261.593	0.5439
261.95	0.5431
262.306	0.5417
262.663	0.5384
263.02	0.5369
263.376	0.5324
263.733	0.5319
264.089	0.5292
264.445	0.5269
264.802	0.5247
265.158	0.5216
265.514	0.5222
265.87	0.5194
266.226	0.517
266.581	0.5147
266.937	0.5119
267.293	0.5107
267.648	0.5098
268.004	0.5064
268.359	0.5038
268.714	0.5012
269.07	0.4973
269.425	0.496
269.78	0.4959
270.135	0.4931
270.49	0.4909
270.844	0.4868
271.199	0.4848
271.554	0.4819
271.908	0.4787
272.263	0.4765
272.617	0.4754
272.972	0.4727
273.326	0.4704
273.68	0.4667
274.034	0.4651
274.388	0.4605
274.742	0.4585
275.096	0.4562
275.45	0.4533
275.803	0.45
276.157	0.447
276.51	0.4442
276.864	0.4409
277.217	0.4388
277.571	0.4352
277.924	0.4301
278.277	0.4281
278.63	0.4249
278.983	0.4214
279.336	0.419
279.688	0.416
280.041	0.412
280.394	0.4078
280.746	0.4055
281.099	0.4023
281.451	0.3968
281.803	0.3942
282.156	0.3912
282.508	0.3888
282.86	0.3838
283.212	0.381
283.564	0.3784
283.916	0.3736
284.267	0.3693
284.619	0.366
284.971	0.3631
285.322	0.3596
285.673	0.355
286.025	0.3534
286.376	0.3498
286.727	0.3441
287.078	0.3407
287.429	0.3385
287.78	0.3339
288.131	0.3302
288.482	0.3254
288.833	0.323
289.183	0.3182
289.534	0.3147
289.884	0.3119
290.235	0.3075
290.585	0.3034
290.935	0.2996
291.285	0.2958
291.635	0.2928
291.985	0.2895
292.335	0.2858
292.685	0.2819
293.035	0.2785
293.384	0.2743
293.734	0.2707
294.083	0.2669
294.433	0.2628
294.782	0.26
295.131	0.2561
295.48	0.2528
295.829	0.2501
296.179	0.2456
296.527	0.243
296.876	0.2397
297.225	0.2374
297.574	0.2322
297.922	0.2297
298.271	0.2269
298.619	0.2228
298.968	0.221
299.316	0.2179
299.664	0.2153
300.012	0.2123
300.36	0.2088
300.708	0.206
301.056	0.2035
301.404	0.2012
301.752	0.1987
302.099	0.1966
302.447	0.1943
302.794	0.1912
303.142	0.1891
303.489	0.1866
303.836	0.1846
304.183	0.1825
304.531	0.1811
304.878	0.1788
305.224	0.1772
305.571	0.1755
305.918	0.1738
306.265	0.1723
306.611	0.1702
306.958	0.1689
307.304	0.1676
307.651	0.166
307.997	0.1655
308.343	0.1636
308.689	0.1625
309.035	0.1615
309.381	0.1612
309.727	0.1592
310.073	0.1591
310.419	0.1582
310.764	0.1573
311.11	0.1573
311.455	0.1563
311.801	0.1549
312.146	0.1551
312.491	0.1548
312.837	0.1543
313.182	0.1538
313.527	0.1534
313.872	0.1527
314.216	0.1531
314.561	0.1521
314.906	0.1528
315.251	0.1528
315.595	0.1515
315.94	0.1518
316.284	0.1525
316.628	0.1522
316.972	0.152
317.317	0.1522
317.661	0.1527
318.005	0.1525
318.348	0.1532
318.692	0.1529
319.036	0.1537
319.38	0.1535
319.723	0.1546
320.067	0.1553
320.41	0.155
320.754	0.1558
321.097	0.1566
321.44	0.1574
321.783	0.1573
322.126	0.1583
322.469	0.1595
322.812	0.1601
323.155	0.1613
323.498	0.1619
323.84	0.1623
324.183	0.1638
324.525	0.1642
324.868	0.1649
325.21	0.1661
325.552	0.1669
325.894	0.1678
326.236	0.169
326.578	0.1698
326.92	0.1708
327.262	0.171
327.604	0.1729
327.946	0.1738
328.287	0.1748
328.629	0.1758
328.97	0.177
329.312	0.1781
329.653	0.1786
329.994	0.1804
330.335	0.1817
330.676	0.1825
331.017	0.1829
331.358	0.1848
331.699	0.1861
332.04	0.1868
332.38	0.1877
332.721	0.1901
333.061	0.1902
333.402	0.1919
333.742	0.1928
334.083	0.1945
334.423	0.1948
334.763	0.1957
335.103	0.1969
335.443	0.1976
335.783	0.1981
336.123	0.1991
336.462	0.2011
336.802	0.2016
337.141	0.2022
337.481	0.2029
337.82	0.2038
338.16	0.2054
338.499	0.2062
338.838	0.2068
339.177	0.208
339.516	0.2083
339.855	0.21
340.194	0.2105
340.533	0.211
340.872	0.2115
341.21	0.2127
341.549	0.213
341.887	0.2136
342.226	0.214
342.564	0.2139
342.902	0.2147
343.24	0.2148
343.578	0.215
343.916	0.2158
344.254	0.2156
344.592	0.2161
344.93	0.2162
345.268	0.2162
345.605	0.2165
345.943	0.2163
346.28	0.2163
346.618	0.2158
346.955	0.2167
347.292	0.2169
347.629	0.2174
347.966	0.2167
348.303	0.2171
348.64	0.2168
348.977	0.2168
349.314	0.2166
349.65	0.2169
349.987	0.2173
350.324	0.2154
350.66	0.2149
350.996	0.2155
351.333	0.2147
351.669	0.2137
352.005	0.2141
352.341	0.2124
352.677	0.2119
353.013	0.2113
353.349	0.2102
353.685	0.2092
354.02	0.2087
354.356	0.207
354.691	0.2066
355.027	0.2061
355.362	0.2045
355.697	0.204
356.033	0.2028
356.368	0.2021
356.703	0.2013
357.038	0.2002
357.373	0.1998
357.707	0.1987
358.042	0.198
358.377	0.1977
358.711	0.1956
359.046	0.1952
359.38	0.1939
359.715	0.1932
360.049	0.1919
360.383	0.1911
360.717	0.1898
361.051	0.1885
361.385	0.1871
361.719	0.1847
362.053	0.1845
362.387	0.182
362.72	0.1807
363.054	0.1789
363.387	0.177
363.721	0.1757
364.054	0.1742
364.387	0.1729
364.721	0.171
365.054	0.1697
365.387	0.1673
365.72	0.1668
366.053	0.1655
366.385	0.1638
366.718	0.1628
367.051	0.1605
367.383	0.1594
367.716	0.1579
368.048	0.1572
368.381	0.1555
368.713	0.1547
369.045	0.1539
369.377	0.1518
369.709	0.1508
370.041	0.15
370.373	0.1491
370.705	0.147
371.037	0.1452
371.368	0.1442
371.7	0.1426
372.031	0.1413
372.363	0.1394
372.694	0.1374
373.025	0.1357
373.356	0.1341
373.688	0.132
374.019	0.1294
374.35	0.1283
374.68	0.1268
375.011	0.1244
375.342	0.123
375.673	0.1212
376.003	0.1197
376.334	0.1185
376.664	0.1168
376.995	0.1149
377.325	0.1134
377.655	0.113
377.985	0.1117
378.315	0.1107
378.645	0.109
378.975	0.1077
379.305	0.1064
379.635	0.1056
379.964	0.1038
380.294	0.1024
380.623	0.1016
380.953	0.1007
381.282	0.0995
381.611	0.098
381.941	0.0968
382.27	0.0955
382.599	0.0941
382.928	0.093
383.257	0.0923
383.585	0.091
383.914	0.0891
384.243	0.088
384.571	0.0863
384.9	0.085
385.228	0.0832
385.557	0.0822
385.885	0.0803
386.213	0.0789
386.541	0.078
386.869	0.0767
387.197	0.0753
387.525	0.0731
387.853	0.0723
388.181	0.0713
388.508	0.0701
388.836	0.0691
389.164	0.0684
389.491	0.0671
389.818	0.066
390.146	0.0649
390.473	0.0633
390.8	0.0632
391.127	0.0621
391.454	0.0611
391.781	0.06
392.108	0.0593
392.435	0.0578
392.761	0.0566
393.088	0.0567
393.415	0.0559
393.741	0.056
394.067	0.0547
394.394	0.0544
394.72	0.0537
395.046	0.0523
395.372	0.0515
395.698	0.0504
396.024	0.0503
396.35	0.0493
396.676	0.0493
397.001	0.0484
397.327	0.0471
397.653	0.046
397.978	0.0452
398.303	0.0445
398.629	0.044
398.954	0.0439
399.279	0.0435
399.604	0.0435
399.929	0.0425
400.254	0.0423
400.579	0.0415
400.904	0.0402
401.229	0.04
401.553	0.0389
401.878	0.0388
402.202	0.0394
402.527	0.0383
402.851	0.0385
403.175	0.0377
403.5	0.0373
403.824	0.0374
404.148	0.0367
404.472	0.0367
404.796	0.0354
405.119	0.0361
405.443	0.0353
405.767	0.0344
406.09	0.035
406.414	0.0348
406.737	0.0351
407.061	0.0348
407.384	0.0352
407.707	0.0339
408.03	0.035
408.353	0.0344
408.676	0.0349
408.999	0.0336
409.322	0.0338
409.645	0.0342
409.968	0.0334
410.29	0.0338
410.613	0.0334
410.935	0.0329
411.258	0.0335
411.58	0.0329
411.902	0.0334
412.224	0.0336
412.546	0.0331
412.868	0.0329
413.19	0.0333
413.512	0.0333
413.834	0.033
414.156	0.034
414.477	0.033
414.799	0.0338
415.121	0.0335
415.442	0.0336
415.763	0.034
416.085	0.0334
416.406	0.0337
416.727	0.0342
417.048	0.0334
417.369	0.0329
417.69	0.0333
418.011	0.0336
418.331	0.0337
418.652	0.0338
418.973	0.0338
419.293	0.0336
419.614	0.0339
419.934	0.0335
420.254	0.0337
420.574	0.0333
420.895	0.0339
421.215	0.0332
421.535	0.0334
421.855	0.0336
422.174	0.0335
422.494	0.034
422.814	0.0346
423.134	0.0342
423.453	0.0337
423.773	0.0338
424.092	0.0337
424.411	0.0338
424.731	0.0339
425.05	0.0342
425.369	0.0345
425.688	0.0348
426.007	0.0347
426.326	0.0347
426.644	0.0356
426.963	0.0352
427.282	0.0356
427.6	0.0349
427.919	0.0354
428.237	0.0356
428.556	0.0363
428.874	0.0351
429.192	0.0352
429.51	0.0345
429.828	0.0355
430.146	0.0352
430.464	0.0356
430.782	0.0349
431.1	0.0352
431.418	0.0353
431.735	0.0347
432.053	0.0359
432.37	0.0363
432.688	0.0353
433.005	0.036
433.322	0.0356
433.639	0.0358
433.957	0.0357
434.274	0.0365
434.591	0.036
434.907	0.0366
435.224	0.036
435.541	0.0363
435.858	0.0368
436.174	0.0371
436.491	0.0367
436.807	0.0366
437.124	0.0359
437.44	0.0358
437.756	0.0362
438.072	0.0354
438.388	0.0362
438.704	0.036
439.02	0.0366
439.336	0.0364
439.652	0.0367
439.968	0.0358
440.283	0.0359
440.599	0.0359
440.914	0.036
441.23	0.0358
441.545	0.0355
441.86	0.0357
442.175	0.0361
442.491	0.0353
442.806	0.0355
443.121	0.0358
443.435	0.0351
443.75	0.036
444.065	0.0351
444.38	0.0364
444.694	0.0357
445.009	0.0358
445.323	0.0356
445.638	0.0354
445.952	0.0356
446.266	0.035
446.58	0.0362
446.894	0.0357
447.208	0.0362
447.522	0.0359
447.836	0.0344
448.15	0.0349
448.464	0.0346
448.777	0.0347
449.091	0.0349
449.404	0.0357
449.718	0.0351
450.031	0.0344
450.345	0.0345
450.658	0.0348
450.971	0.0337
451.284	0.0347
451.597	0.0351
451.91	0.0346
452.223	0.0339
452.535	0.0343
452.848	0.0342
453.161	0.0343
453.473	0.0349
453.786	0.0345
454.098	0.0339
454.411	0.0338
454.723	0.033
455.035	0.033
455.347	0.0341
455.659	0.034
455.971	0.0338
456.283	0.0339
456.595	0.0328
456.907	0.0334
457.218	0.0333
457.53	0.0332
457.841	0.0327
458.153	0.0326
458.464	0.0318
458.776	0.0319
459.087	0.0321
459.398	0.0323
459.709	0.0317
460.02	0.0314
460.331	0.0316
460.642	0.0309
460.953	0.0309
461.263	0.0305
461.574	0.0307
461.885	0.0309
462.195	0.0319
462.506	0.0309
462.816	0.0308
463.126	0.0298
463.437	0.0307
463.747	0.0302
464.057	0.0294
464.367	0.0296
464.677	0.0286
464.987	0.0292
465.296	0.0289
465.606	0.0285
465.916	0.0278
466.225	0.0282
466.535	0.0283
466.844	0.0277
467.154	0.0275
467.463	0.028
467.772	0.0284
468.081	0.0274
468.39	0.0269
468.699	0.0273
469.008	0.0278
469.317	0.0268
469.626	0.0273
469.935	0.0271
470.243	0.0277
470.552	0.0279
470.86	0.0269
471.169	0.0268
471.477	0.0263
471.785	0.0263
472.093	0.0262
472.402	0.0251
472.71	0.0252
473.018	0.0258
473.326	0.0245
473.633	0.0252
473.941	0.0248
474.249	0.0239
474.556	0.0243
474.864	0.0242
475.171	0.0237
475.479	0.0234
475.786	0.0244
476.094	0.0238
476.401	0.0238
476.708	0.0231
477.015	0.0237
477.322	0.0238
477.629	0.023
477.936	0.022
478.242	0.0218
478.549	0.0221
478.856	0.0214
479.162	0.0225
479.469	0.0219
479.775	0.0216
480.081	0.0205
480.388	0.0213
480.694	0.0207
481	0.0209
481.306	0.0212
481.612	0.0209
481.918	0.0201
482.224	0.0204
482.53	0.0199
482.835	0.0199
483.141	0.0184
483.446	0.0188
483.752	0.0192
484.057	0.0178
484.363	0.0186
484.668	0.0172
484.973	0.017
485.278	0.0175
485.583	0.017
485.888	0.0159
486.193	0.0163
486.498	0.0173
486.803	0.0182
487.107	0.0171
487.412	0.0158
487.717	0.016
488.021	0.0171
488.325	0.0167
488.63	0.0163
488.934	0.0161
489.238	0.0158
489.542	0.0156
489.846	0.0151
490.15	0.0157
490.454	0.0155
490.758	0.0165
491.062	0.0153
491.366	0.0146
491.669	0.0152
491.973	0.0143
492.276	0.0149
492.58	0.0134
492.883	0.0141
493.186	0.0142
493.489	0.0142
493.792	0.0142
494.096	0.0128
494.399	0.0137
494.701	0.0138
495.004	0.0134
495.307	0.0128
495.61	0.013
495.912	0.0127
496.215	0.0108
496.517	0.012
496.82	0.0124
497.122	0.0123
497.424	0.011
497.727	0.0115
498.029	0.0117
498.331	0.0115
498.633	0.0113
498.935	0.0114
499.237	0.0117
499.538	0.0112
499.84	0.0106
500.142	0.0119
500.443	0.0112
500.745	0.0107
501.046	0.0108
501.348	0.01
501.649	0.0105
501.95	0.0096
502.251	0.0104
502.552	0.0092
502.853	0.0083
503.154	0.0094
503.455	0.008
503.756	0.0086
504.057	0.0094
504.357	0.0084
504.658	0.0084
504.958	0.0086
505.259	0.0099
505.559	0.0095
505.859	0.0085
506.16	0.0086
506.46	0.0083
506.76	0.0091
507.06	0.0081
507.36	0.0088
507.66	0.0086
507.96	0.0081
508.259	0.0077
508.559	0.0067
508.859	0.008
509.158	0.0076
509.457	0.0067
509.757	0.0088
510.056	0.0079
510.355	0.0065
510.655	0.006
510.954	0.0073
511.253	0.0064
511.552	0.0069
511.851	0.0065
512.149	0.0059
512.448	0.0053
512.747	0.0065
513.045	0.006
513.344	0.0068
513.642	0.0074
513.941	0.0066
514.239	0.0064
514.537	0.0056
514.836	0.0069
515.134	0.0054
515.432	0.0062
515.73	0.0066
516.028	0.0053
516.326	0.0065
516.623	0.0052
516.921	0.0057
517.219	0.006
517.516	0.0065
517.814	0.0053
518.111	0.0056
518.409	0.0064
518.706	0.0059
519.003	0.006
519.3	0.0046
519.597	0.0048
519.894	0.0054
520.191	0.0061
520.488	0.0056
520.785	0.0038
521.082	0.0045
521.378	0.005
521.675	0.0036
521.971	0.0046
522.268	0.0048
522.564	0.0053
522.861	0.0054
523.157	0.0036
523.453	0.0048
523.749	0.0051
524.045	0.0061
524.341	0.0042
524.637	0.004
524.933	0.0035
525.229	0.0047
525.524	0.0039
525.82	0.0052
526.115	0.0039
526.411	0.0042
526.706	0.0043
527.002	0.0042
527.297	0.0031
527.592	0.0054
527.887	0.0051
528.182	0.0049
528.477	0.0055
528.772	0.0037
529.067	0.0045
529.362	0.004
529.657	0.0047
529.951	0.0047
530.246	0.0038
530.54	0.0027
530.835	0.0029
531.129	0.0023
531.423	0.0045
531.718	0.0033
532.012	0.0039
532.306	0.0037
532.6	0.0027
532.894	0.0024
533.188	0.0037
533.482	0.0022
533.775	0.004
534.069	0.0028
534.363	0.002
534.656	0.0016
534.95	0.0025
535.243	0.0028
535.536	0.002
535.83	0.0032
536.123	0.002
536.416	0.0036
536.709	0.0027
537.002	0.0041
537.295	0.0026
537.588	0.0037
537.881	0.0034
538.173	0.0025
538.466	0.0026
538.759	0.0023
539.051	0.0014
539.344	0.0026
539.636	0.0028
539.928	0.0021
540.22	0.0031
540.513	0.0029
540.805	0.0025
541.097	0.0032
541.389	0.0029
541.681	0.0025
541.972	0.0036
542.264	0.0022
542.556	0.0027
542.847	0.0028
543.139	0.0038
543.431	0.0045
543.722	0.0033
544.013	0.0044
544.305	0.0044
544.596	0.0042
544.887	0.0029
545.178	0.0032
545.469	0.0028
545.76	0.0025
546.051	0.0043
546.342	0.0041
546.632	0.0017
546.923	0.0027
547.214	0.0022
547.504	0.0025
547.795	0.0026
548.085	0.0022
548.375	0.002
548.666	0.0034
548.956	0.0022
549.246	0.0027
549.536	0.0032
549.826	0.0035
550.116	0.0038
550.406	0.0036
550.695	0.0038
550.985	0.0041
551.275	0.0038
551.564	0.0026
551.854	0.003
552.143	0.0028
552.433	0.0033
552.722	0.0039
553.011	0.0036
553.3	0.0046
553.589	0.0029
553.879	0.0025
554.167	0.003
554.456	0.0032
554.745	0.0022
555.034	0.0012
555.323	0.0013
555.611	0.002
555.9	0.0039
556.188	0.0027
556.477	0.0032
556.765	0.0031
557.053	0.0023
557.342	0.0019
557.63	0.0035
557.918	0.0035
558.206	0.0031
558.494	0.003
558.782	0.0035
559.069	0.0042
559.357	0.003
559.645	0.0024
559.932	0.0032
560.22	0.0032
560.507	0.0024
560.795	0.0032
561.082	0.0025
561.37	0.003
561.657	0.0034
561.944	0.0021
562.231	0.0028
562.518	0.0016
562.805	0.003
563.092	0.0037
563.379	0.0034
563.665	0.0022
563.952	0.0036
564.239	0.0039
564.525	0.0039
564.811	0.0044
565.098	0.0037
565.384	0.0038
565.67	0.0035
565.957	0.0041
566.243	0.0031
566.529	0.0033
566.815	0.005
567.101	0.0035
567.387	0.0025
567.672	0.0028
567.958	0.0033
568.244	0.0031
568.529	0.0027
568.815	0.0021
569.1	0.003
569.386	0.0032
569.671	0.0033
569.956	0.0029
570.242	0.0024
570.527	0.0037
570.812	0.0032
571.097	0.0027
571.382	0.0029
571.666	0.0027
571.951	0.002
572.236	0.0025
572.521	0.003
572.805	0.0039
573.09	0.0015
573.374	0.0016
573.659	0.0014
573.943	0.0028
574.227	0.0019
574.511	0.0029
574.795	0.0029
575.079	0.0025
575.363	0.0021
575.647	0.0036
575.931	0.0028
576.215	0.0029
576.499	0.0019
576.782	0.002
577.066	0.0028
577.349	0.0023
577.633	0.0027
577.916	0.0016
578.2	0.003
578.483	0.0037
578.766	0.0028
579.049	0.0039
579.332	0.0028
579.615	0.0016
579.898	0.0021
580.181	0.0031
580.464	0.0022
580.746	0.0008
581.029	0.0021
581.312	0.0002
581.594	-0
581.877	0.0024
582.159	0.0037
582.441	0.0026
582.724	0.0033
583.006	0.0026
583.288	0.0017
583.57	0.0018
583.852	0.0023
584.134	0.0016
584.416	0.0018
584.697	0.0018
584.979	0.0015
585.261	0.0012
585.542	0.0024
585.824	0.0022
586.105	0.0029
586.387	0.002
586.668	0.0021
586.949	0.0026
587.231	0.0015
587.512	0.0017
587.793	0.0015
588.074	0.0026
588.355	0.0023
588.636	0.0025
588.916	0.0027
589.197	0.0035
589.478	0.0035
589.758	0.0027
590.039	0.0025
590.319	0.0028
590.6	0.0025
590.88	0.0023
591.16	0.003
591.441	0.0027
591.721	0.0022
592.001	0.0026
592.281	0.0026
592.561	0.003
592.841	0.0016
593.12	0.0019
593.4	0.0021
593.68	0.0027
593.959	0.0026
594.239	0.0041
594.518	0.0032
594.798	0.0024
595.077	0.0021
595.356	0.0023
595.636	0.0028
595.915	0.0032
596.194	0.0032
596.473	0.0034
596.752	0.0024
597.031	0.002
597.31	0.0013
597.588	0.0017
597.867	0.0013
598.146	0.0024
598.424	0.0024
598.703	0.0023
598.981	0.0009
599.259	0.0022
599.538	0.0035
599.816	0.0026
600.094	0.0012
600.372	0.0025
600.65	0.0039
600.928	0.0034
601.206	0.0029
601.484	0.0036
601.762	0.0029
602.04	0.0025
602.317	0.0038
602.595	0.0033
602.872	0.0036
603.15	0.0029
603.427	0.0013
603.704	0.0016
603.982	0.002
604.259	0.0015
604.536	0.002
604.813	0.0026
605.09	0.0021
605.367	0.0007
605.644	0.002
605.921	0.0023
606.197	0.0006
606.474	0.0019
606.751	0.0016
607.027	0.0017
607.304	0.0009
607.58	0.0013
607.856	0.0017
608.133	0.0026
608.409	0.0028
608.685	0.0023
608.961	0.003
609.237	0.0033
609.513	0.0026
609.789	0.0025
610.065	0.001
610.341	0.002
610.616	0.0037
610.892	0.0033
611.167	0.0029
611.443	0.0029
611.718	0.0021
611.994	0.0022
612.269	0.0036
612.544	0.0032
612.819	0.0023
613.095	0.0031
613.37	0.0021
613.645	0.0017
613.919	0.0023
614.194	0.0016
614.469	0.002
614.744	0.0005
615.019	0.0005
615.293	0.0007
615.568	0.0008
615.842	0.0007
616.116	0.0015
616.391	0.0011
616.665	0.0021
616.939	0.0023
617.213	0.0024
617.488	0.0024
617.762	0.0027
618.035	0.0013
618.309	0.0021
618.583	0.002
618.857	0.0026
619.131	0.0024
619.404	0.0016
619.678	0.0012
619.951	-0.0006
620.225	0.0007
620.498	0.0026
620.771	0.0027
621.045	0.0037
621.318	0.0034
621.591	0.0031
621.864	0.0013
622.137	0.0006
622.41	0.002
622.683	0.0022
622.956	0.0027
623.228	0.0023
623.501	0.0026
623.774	0.0038
624.046	0.0025
624.319	0.0021
624.591	0.0008
624.863	0.0023
625.136	0.0027
625.408	0.0031
625.68	0.0019
625.952	0.0026
626.224	0.0019
626.496	0.0017
626.768	0.0004
627.04	0.0009
627.311	0.0001
627.583	0.0026
627.855	0.002
628.126	0.002
628.398	0.0039
628.669	0.003
628.941	0.0016
629.212	0.001
629.483	0.0008
629.755	0.0013
630.026	0.0013
630.297	0.0012
630.568	-0.0001
630.839	0.0004
631.11	0.0011
631.38	0.0008
631.651	0.0014
631.922	0.0006
632.192	0.0004
632.463	0.0015
632.733	0.0023
633.004	0.0018
633.274	0.0017
633.545	0.003
633.815	0.0046
634.085	0.0037
634.355	0.0024
634.625	0.0044
634.895	0.0039
635.165	0.002
635.435	0.0032
635.705	0.0032
635.974	0.0026
636.244	0.0025
636.514	0.0027
636.783	0.0026
637.053	0.0037
637.322	0.0027
637.591	0.0026
637.861	0.0032
638.13	0.0033
638.399	0.0026
638.668	0.0041
638.937	0.0024
639.206	0.0033
639.475	0.0033
639.744	0.0022
640.013	0.0042
640.281	0.0037
640.55	0.0031
640.819	0.0028
641.087	0.0035
641.356	0.0032
641.624	0.0033
641.892	0.0031
642.161	0.0034
642.429	0.0043
642.697	0.004
642.965	0.0044
643.233	0.0044
643.501	0.0027
643.769	0.0023
644.037	0.0028
644.305	0.0026
644.572	0.0012
644.84	0.0011
645.108	0.0017
645.375	0.0005
645.643	0.0016
645.91	0.0017
646.177	0.0033
646.445	0.0051
646.712	0.0049
646.979	0.0054
647.246	0.0046
647.513	0.0046
647.78	0.0042
648.047	0.0046
648.314	0.0036
648.58	0.0033
648.847	0.0034
649.114	0.0021
649.38	0.0012
649.647	0.0015
649.913	0.0029
650.18	0.002
650.446	0.0023
650.712	0.003
650.978	0.0027
651.245	0.0028
651.511	0.0039
651.777	0.0038
652.043	0.0032
652.309	0.0035
652.574	0.0049
652.84	0.0042
653.106	0.0026
653.371	0.0024
653.637	0.0028
653.903	0.0049
654.168	0.0043
654.433	0.0046
654.699	0.0048
654.964	0.0041
655.229	0.0032
655.494	0.0015
655.759	-0.0041
656.024	0.0005
656.289	-0
656.554	0.0034
656.819	0.0026
657.084	0.0036
657.349	0.004
657.613	0.005
657.878	0.0036
658.142	0.004
658.407	0.0037
658.671	0.0036
658.936	0.0024
659.2	0.003
659.464	0.0026
659.728	0.0019
659.992	0.0032
660.256	0.0019
660.52	0.0016
660.784	0.0002
661.048	0.0006
661.312	0.0002
661.575	0.0005
661.839	-0.0007
662.103	-0.0002
662.366	-0.0002
662.63	0.0006
662.893	0.0017
663.156	0.0015
663.42	0.0007
663.683	0.0014
663.946	0.0036
664.209	0.0038
664.472	0.003
664.735	0.0035
664.998	0.002
665.261	0.0024
665.524	0.0021
665.786	0.0026
666.049	0.0025
666.312	0.0025
666.574	0.004
666.837	0.003
667.099	0.0022
667.361	0.0017
667.624	0.001
667.886	0.0022
668.148	0.0026
668.41	0.0034
668.672	0.0015
668.934	0.0025
669.196	0.0015
669.458	0.0027
669.72	0.0036
669.982	0.004
670.243	0.0046
670.505	0.0036
670.766	0.0038
671.028	0.0038
671.289	0.003
671.551	0.001
671.812	0.0001
672.073	0.0017
672.334	0.0012
672.596	0.0013
672.857	0.0012
673.118	0.002
673.379	0.0014
673.639	0.0014
673.9	0.001
674.161	-0.0006
674.422	-0.0014
674.682	-0.0014
674.943	-0.0011
675.203	0.0004
675.464	0.0008
675.724	0.0014
675.985	0.0023
676.245	0.0023
676.505	0.0032
676.765	0.0023
677.025	0.0032
677.285	0.0025
677.545	0.0031
677.805	0.0021
678.065	0.0032
678.325	0.0036
678.585	0.0034
678.844	0.0027
679.104	0.0025
679.363	0.0027
679.623	0.0041
679.882	0.0035
680.142	0.0038
680.401	0.0036
680.66	0.005
680.919	0.0046
681.178	0.006
681.437	0.0035
681.696	0.003
681.955	0.0046
682.214	0.0046
682.473	0.0049
682.732	0.0035
682.99	0.0037
683.249	0.0041
683.508	0.0041
683.766	0.0036
684.024	0.0044
684.283	0.0049
684.541	0.0037
684.799	0.0047
685.058	0.0034
685.316	0.0025
685.574	0.0029
685.832	0.0045
686.09	0.0041
686.348	0.0047
686.606	0.0048
686.863	0.0044
687.121	0.005
687.379	0.004
687.636	0.0031
687.894	0.0051
688.151	0.0053
688.409	0.0052
688.666	0.0043
688.923	0.0057
689.181	0.0034
689.438	0.0029
689.695	0.0024
689.952	0.0022
690.209	0.0017
690.466	0.0025
690.723	0.0049
690.979	0.003
691.236	0.0021
691.493	0.002
691.75	0.0036
692.006	0.0034
692.263	0.0031
692.519	0.0027
692.775	0.0016
693.032	0.0008
693.288	0.0021
693.544	0.0028
693.8	0.0031
694.056	0.0028
694.313	0.003
694.568	0.0031
694.824	0.0036
695.08	0.0037
695.336	0.0041
695.592	0.0022
695.847	0.0047
696.103	0.0038
696.359	0.0039
696.614	0.0035
696.869	0.0019
697.125	-0.0004
697.38	0.0014
697.635	0.0008
697.891	0.0016
698.146	0.0023
698.401	0.0024
698.656	0.0026
698.911	0.0039
699.166	0.0028
699.42	0.0034
699.675	0.002
699.93	0.0025
700.185	0.0026
700.439	0.0036
700.694	0.0024
700.948	0.0033
701.203	0.0029
701.457	0.0033
701.711	0.0027
701.965	0.0008
702.22	0.0008
702.474	0.0017
702.728	-0.0008
702.982	-0.0007
703.236	0.0001
703.49	0.0003
703.743	0.0007
703.997	0.0013
704.251	0.0009
704.504	0.0017
704.758	0.0015
705.012	0.001
705.265	0.0017
705.518	0.0015
705.772	0.0007
706.025	0.0004
706.278	0.0002
706.531	-0.0007
706.785	-0.0014
707.038	-0.0001
707.291	0.0007
707.543	0.0001
707.796	0.0021
708.049	-0.0005
708.302	-0.0003
708.555	0.001
708.807	0.0002
709.06	0.0002
709.312	0.0001
709.565	0.0004
709.817	-0.0001
710.069	-0.0001
710.322	0.001
710.574	0.0005
710.826	0.0007
711.078	0.0023
711.33	0.0025
711.582	0.0015
711.834	0.0029
712.086	0.0034
712.338	0.0038
712.59	0.0036
712.841	0.0016
713.093	0.0024
713.344	0.0024
713.596	0.0016
713.847	0.0026
714.099	0.0026
714.35	0.0039
714.601	0.0039
714.853	0.0043
715.104	0.0045
715.355	0.0024
715.606	0.0036
715.857	0.0039
716.108	0.0046
716.359	0.0039
716.609	0.005
716.86	0.0037
717.111	0.0028
717.361	0.0016
717.612	0.0024
717.863	0.0023
718.113	0.0011
718.363	0.0006
718.614	0.0026
718.864	0.0022
719.114	0.0016
719.364	0.0006
719.614	-0.0001
719.865	0
720.114	0.0006
720.364	0.0013
720.614	0.0028
720.864	0.0027
721.114	0.0033
721.364	0.0039
721.613	0.004
721.863	0.0045
722.112	0.0043
722.362	0.0038
722.611	0.0036
722.86	0.0021
723.11	0.0016
723.359	0.0014
723.608	0.0023
723.857	0.0036
724.106	0.0049
724.355	0.0055
724.604	0.0061
724.853	0.0035
725.102	0.0036
725.351	0.0022
725.599	0.0028
725.848	0.0026
726.097	0.0021
726.345	0.0018
726.594	0.0015
726.842	0.0013
727.09	0.0016
727.339	0.0012
727.587	0.0015
727.835	-0.0002
728.083	0.0004
728.331	-0.0002
728.579	-0.0008
728.827	0.0012
729.075	0.0012
729.323	0.0015
729.571	0.0031
729.818	0.0025
730.066	0.0032
730.314	0.0037
730.561	0.0019
730.809	0.0002
731.056	-0.001
731.303	0.0005
731.551	0.0018
731.798	0.0007
732.045	0.0021
732.292	0.0022
732.539	0.0022
732.786	0.0012
733.033	0.0021
733.28	0.003
733.527	0.004
733.774	0.0029
734.021	0.0034
734.267	0.004
734.514	0.0036
734.76	0.0048
735.007	0.0068
735.253	0.0056
735.5	0.0053
735.746	0.0052
735.992	0.0055
736.238	0.0055
736.485	0.0064
736.731	0.0066
736.977	0.0051
737.223	0.0045
737.469	0.0054
737.715	0.0063
737.96	0.0077
738.206	0.0066
738.452	0.0091
738.697	0.0085
738.943	0.008
739.189	0.0052
739.434	0.0034
739.679	0.0044
739.925	0.0045
740.17	0.0034
740.415	0.0033
740.66	0.004
740.906	0.0048
741.151	0.0046
741.396	0.0038
741.641	0.0066
741.886	0.0064
742.13	0.0062
742.375	0.0065
742.62	0.0065
742.865	0.006
743.109	0.0062
743.354	0.0065
743.598	0.0068
743.843	0.0068
744.087	0.0063
744.331	0.0066
744.576	0.0073
744.82	0.0066
745.064	0.0065
745.308	0.005
745.552	0.0052
745.796	0.005
746.04	0.0049
746.284	0.0029
746.528	0.0024
746.771	0.003
747.015	0.0021
747.259	0.0019
747.502	0.0021
747.746	0.0038
747.989	0.0031
748.233	0.0044
748.476	0.0052
748.719	0.0061
748.963	0.0062
749.206	0.0053
749.449	0.0052
749.692	0.0042
749.935	0.0061
750.178	0.0057
750.421	0.0046
750.664	0.0049
750.906	0.0049
751.149	0.0038
751.392	0.0024
751.635	0.0013
751.877	0.0009
752.12	0.0005
752.362	0.0017
752.604	0.0008
752.847	0.0019
753.089	0.0021
753.331	0.0024
753.573	0.0018
753.816	0.0028
754.058	0.0045
754.3	0.0049
754.542	0.005
754.783	0.0039
755.025	0.0041
755.267	0.0024
755.509	0.0022
755.75	0.0012
755.992	0.0029
756.234	0.0019
756.475	0.0009
756.716	0.0005
756.958	0
757.199	0.0009
757.44	0.0019
757.682	-0.0005
757.923	0.0009
758.164	0.0011
758.405	0.0005
758.646	0.0011
758.887	0.001
759.128	0.0017
759.369	0.0004
759.609	0.0001
759.85	0.0008
760.091	0.0019
760.331	0.0004
760.572	-0.0003
760.812	-0.0001
761.053	0.0003
761.293	0.002
761.533	0.0026
761.774	0.0034
762.014	0.0028
762.254	0.0027
762.494	0.0016
762.734	0.0016
762.974	0.0015
763.214	0.0011
763.454	0.0008
763.694	0.0002
763.933	-0.0002
764.173	0.0013
764.413	-0.0004
764.652	0.0002
764.892	0.0014
765.131	0.0009
765.371	0.0013
765.61	0.0026
765.849	0.0016
766.089	0.0029
766.328	0.0041
766.567	0.0043
766.806	0.0039
767.045	0.0046
767.284	0.0043
767.523	0.0058
767.762	0.0053
768.001	0.0036
768.239	0.003
768.478	0.0023
768.717	0.0027
768.955	0.0033
769.194	0.0026
769.432	0.0037
769.671	0.0043
769.909	0.004
770.148	0.0037
770.386	0.0043
770.624	0.0033
770.862	0.0035
771.1	0.0032
771.338	0.0025
771.576	0.0035
771.814	0.0041
772.052	0.0033
772.29	0.0039
772.528	0.0045
772.765	0.0036
773.003	0.005
773.24	0.0045
773.478	0.004
773.716	0.0045
773.953	0.0044
774.19	0.0046
774.428	0.0041
774.665	0.0045
774.902	0.0045
775.139	0.0037
775.376	0.0045
775.613	0.0039
775.85	0.0049
776.087	0.0038
776.324	0.0034
776.561	0.0048
776.798	0.0056
777.034	0.0066
777.271	0.008
777.508	0.0076
777.744	0.0076
777.981	0.0065
778.217	0.0073
778.454	0.0067
778.69	0.006
778.926	0.0061
779.162	0.0056
779.399	0.0044
779.635	0.005
779.871	0.0045
780.107	0.0054
780.343	0.0057
780.579	0.0064
780.814	0.0061
781.05	0.0057
781.286	0.0046
781.522	0.0051
781.757	0.0073
781.993	0.0067
782.228	0.0074
782.464	0.0072
782.699	0.0058
782.934	0.0052
783.17	0.0059
783.405	0.005
783.64	0.0045
783.875	0.0039
784.11	0.0048
784.345	0.0059
784.58	0.0055
784.815	0.0058
785.05	0.0057
785.285	0.0039
785.52	0.004
785.754	0.0046
785.989	0.0036
786.223	0.0032
786.458	0.0037
786.692	0.0046
786.927	0.0044
787.161	0.0043
787.396	0.0032
787.63	0.0036
787.864	0.0027
788.098	0.0029
788.332	0.0022
788.566	0.0025
788.8	0.0016
789.034	0.002
789.268	0.003
789.502	0.0026
789.736	0.0038
789.969	0.0038
790.203	0.0037
790.437	0.0033
790.67	0.003
790.904	0.0043
791.137	0.0021
791.37	0.0023
791.604	0.001
791.837	0.0016
792.07	0.002
792.303	0.0029
792.537	0.0022
792.77	0.002
793.003	0.0021
793.236	0.0006
793.469	0.0006
793.701	0.0018
793.934	0.0021
794.167	0.0014
794.4	0.0011
794.632	0.0023
794.865	0.0018
795.097	0.0028
795.33	0.0032
795.562	0.0028
795.795	0.0031
796.027	0.0039
796.259	0.0036
796.491	0.0035
796.724	0.0029
796.956	0.0041
797.188	0.0046
797.42	0.0031
797.652	0.0034
797.883	0.0029
798.115	0.0019
798.347	0.0018
798.579	0.0006
798.81	-0.0004
799.042	-0.0005
799.274	-0.0008
799.505	0.0002
799.737	-0.0002
799.968	0.0006
800.199	0.0016
800.431	0.0009
800.662	0.0015
800.893	0.002
801.124	0.0014
801.355	0.0018
801.586	0.0014
801.817	0.002
802.048	0.0017
802.279	0.0015
802.51	0.0018
802.741	0.0002
802.971	0.0009
803.202	0.0001
803.433	0.0001
803.663	-0.0001
803.894	0.0011
804.124	0.0021
804.354	0.0019
804.585	0.0022
804.815	0.0015
805.045	0.0026
805.275	0.0009
805.506	-0.0843
805.736	0.1441
805.966	0.0547
806.196	0.0858
