Data from 03 0.2 mM BQDS 0.4 mM K2Cr2O7 1 M H2SO4 5 min_Absorbance_01-27-42-377.txt Node
Date: Wed Dec 08 01:27:42 EST 2021
User: kwabilab-user
Spectrometer: HDX00518
Trigger mode: 0
Integration Time (sec): 5.000000E-2
Scans to average: 50
Nonlinearity correction enabled: false
Boxcar width: 0
Storing dark spectrum: false
XAxis mode: Wavelengths
Number of Pixels in Spectrum: 2068
>>>>>Begin Spectral Data<<<<<
195.27	-0.1271
195.642	-0.02
196.014	0.0488
196.386	-0.0435
196.758	-0.0317
197.129	-0.0092
197.501	0.026
197.872	0.0649
198.244	0.088
198.615	0.0932
198.986	0.0829
199.357	0.0815
199.728	0.1033
200.099	0.0859
200.47	0.0847
200.841	0.088
201.212	0.076
201.582	0.0712
201.953	0.0899
202.323	0.0872
202.694	0.0686
203.064	0.0838
203.434	0.0726
203.804	0.0885
204.174	0.0897
204.544	0.073
204.914	0.0773
205.284	0.0939
205.653	0.0884
206.023	0.0911
206.393	0.0795
206.762	0.0926
207.131	0.0874
207.501	0.1072
207.87	0.0976
208.239	0.0818
208.608	0.0785
208.977	0.099
209.346	0.1062
209.715	0.1037
210.083	0.1125
210.452	0.097
210.82	0.11
211.189	0.1144
211.557	0.1117
211.925	0.1167
212.294	0.131
212.662	0.123
213.03	0.1429
213.398	0.1253
213.766	0.1489
214.133	0.1708
214.501	0.1668
214.869	0.1756
215.236	0.2017
215.604	0.1941
215.971	0.2115
216.338	0.2243
216.705	0.2524
217.072	0.2674
217.439	0.2804
217.806	0.321
218.173	0.3329
218.54	0.3603
218.907	0.4109
219.273	0.4506
219.64	0.4813
220.006	0.5233
220.373	0.5443
220.739	0.5893
221.105	0.6354
221.471	0.65
221.837	0.6987
222.203	0.7434
222.569	0.7691
222.935	0.8078
223.3	0.8288
223.666	0.8585
224.031	0.881
224.397	0.9034
224.762	0.9191
225.127	0.9405
225.493	0.9461
225.858	0.9573
226.223	0.9759
226.588	0.9807
226.952	0.991
227.317	0.9892
227.682	0.9871
228.046	0.9841
228.411	0.993
228.775	0.9873
229.14	0.9815
229.504	0.9811
229.868	0.9778
230.232	0.966
230.596	0.9612
230.96	0.9575
231.324	0.9431
231.688	0.9338
232.052	0.9328
232.415	0.9203
232.779	0.9169
233.142	0.9057
233.505	0.8968
233.869	0.8885
234.232	0.8792
234.595	0.8672
234.958	0.8606
235.321	0.8496
235.684	0.8403
236.047	0.8327
236.409	0.8244
236.772	0.8149
237.134	0.807
237.497	0.7973
237.859	0.7892
238.222	0.7811
238.584	0.7738
238.946	0.7651
239.308	0.7596
239.67	0.7484
240.032	0.7445
240.393	0.7361
240.755	0.7304
241.117	0.7238
241.478	0.7186
241.84	0.7118
242.201	0.7072
242.562	0.7009
242.924	0.6935
243.285	0.6885
243.646	0.6837
244.007	0.6821
244.368	0.6774
244.728	0.671
245.089	0.6686
245.45	0.664
245.81	0.6621
246.171	0.6558
246.531	0.6534
246.891	0.6481
247.252	0.6451
247.612	0.6426
247.972	0.6409
248.332	0.6375
248.692	0.6371
249.051	0.6339
249.411	0.6319
249.771	0.6284
250.13	0.6283
250.49	0.6262
250.849	0.624
251.208	0.6239
251.568	0.6204
251.927	0.6201
252.286	0.6197
252.645	0.6177
253.004	0.6156
253.363	0.6136
253.721	0.614
254.08	0.6117
254.439	0.6106
254.797	0.6103
255.155	0.6087
255.514	0.6071
255.872	0.6069
256.23	0.6059
256.588	0.6044
256.946	0.6028
257.304	0.6015
257.662	0.6027
258.02	0.5989
258.377	0.5998
258.735	0.5986
259.093	0.5983
259.45	0.5954
259.807	0.595
260.165	0.5948
260.522	0.5935
260.879	0.5909
261.236	0.5897
261.593	0.5895
261.95	0.586
262.306	0.5859
262.663	0.5839
263.02	0.5843
263.376	0.5817
263.733	0.5817
264.089	0.5784
264.445	0.5762
264.802	0.5745
265.158	0.5721
265.514	0.5714
265.87	0.5679
266.226	0.5673
266.581	0.5638
266.937	0.5617
267.293	0.5615
267.648	0.5576
268.004	0.555
268.359	0.5532
268.714	0.5503
269.07	0.5469
269.425	0.544
269.78	0.542
270.135	0.5388
270.49	0.5384
270.844	0.5338
271.199	0.5307
271.554	0.5273
271.908	0.5262
272.263	0.5231
272.617	0.5192
272.972	0.5161
273.326	0.5128
273.68	0.5103
274.034	0.5065
274.388	0.5042
274.742	0.4997
275.096	0.4963
275.45	0.492
275.803	0.489
276.157	0.4843
276.51	0.4807
276.864	0.4769
277.217	0.4735
277.571	0.4675
277.924	0.4645
278.277	0.4603
278.63	0.4562
278.983	0.4536
279.336	0.4497
279.688	0.4444
280.041	0.4408
280.394	0.4354
280.746	0.4335
281.099	0.4281
281.451	0.4233
281.803	0.4188
282.156	0.416
282.508	0.4109
282.86	0.4068
283.212	0.4027
283.564	0.3992
283.916	0.3946
284.267	0.3905
284.619	0.3872
284.971	0.3818
285.322	0.3781
285.673	0.3743
286.025	0.3716
286.376	0.3672
286.727	0.3628
287.078	0.3581
287.429	0.3549
287.78	0.3506
288.131	0.3455
288.482	0.3404
288.833	0.338
289.183	0.3339
289.534	0.3306
289.884	0.3247
290.235	0.3218
290.585	0.3176
290.935	0.3139
291.285	0.3106
291.635	0.3067
291.985	0.3025
292.335	0.2986
292.685	0.2953
293.035	0.2916
293.384	0.2873
293.734	0.2835
294.083	0.2791
294.433	0.275
294.782	0.2726
295.131	0.2684
295.48	0.2653
295.829	0.2617
296.179	0.2567
296.527	0.2546
296.876	0.2516
297.225	0.2482
297.574	0.2446
297.922	0.2411
298.271	0.2377
298.619	0.2347
298.968	0.2318
299.316	0.2287
299.664	0.2253
300.012	0.2228
300.36	0.2191
300.708	0.2164
301.056	0.2141
301.404	0.2118
301.752	0.2083
302.099	0.2063
302.447	0.2043
302.794	0.2016
303.142	0.1992
303.489	0.1971
303.836	0.1951
304.183	0.1931
304.531	0.1908
304.878	0.1897
305.224	0.1868
305.571	0.1857
305.918	0.1835
306.265	0.1817
306.611	0.1805
306.958	0.179
307.304	0.1773
307.651	0.1767
307.997	0.1749
308.343	0.1734
308.689	0.1726
309.035	0.1711
309.381	0.1704
309.727	0.1694
310.073	0.169
310.419	0.1684
310.764	0.1673
311.11	0.167
311.455	0.1664
311.801	0.1657
312.146	0.1651
312.491	0.1646
312.837	0.1647
313.182	0.1646
313.527	0.1644
313.872	0.1637
314.216	0.1636
314.561	0.1636
314.906	0.1633
315.251	0.1637
315.595	0.1633
315.94	0.1634
316.284	0.1636
316.628	0.1635
316.972	0.1637
317.317	0.1644
317.661	0.1652
318.005	0.1654
318.348	0.1655
318.692	0.1662
319.036	0.1664
319.38	0.1674
319.723	0.1682
320.067	0.1684
320.41	0.169
320.754	0.1698
321.097	0.171
321.44	0.1716
321.783	0.1718
322.126	0.1729
322.469	0.1744
322.812	0.1757
323.155	0.1764
323.498	0.1775
323.84	0.1782
324.183	0.1795
324.525	0.1803
324.868	0.1815
325.21	0.1826
325.552	0.1835
325.894	0.1847
326.236	0.1861
326.578	0.1873
326.92	0.1882
327.262	0.189
327.604	0.1909
327.946	0.1919
328.287	0.1939
328.629	0.1945
328.97	0.1959
329.312	0.1972
329.653	0.1988
329.994	0.2003
330.335	0.202
330.676	0.2031
331.017	0.204
331.358	0.2053
331.699	0.2069
332.04	0.2084
332.38	0.2092
332.721	0.2118
333.061	0.2123
333.402	0.2139
333.742	0.2152
334.083	0.2172
334.423	0.2176
334.763	0.2186
335.103	0.2207
335.443	0.221
335.783	0.2219
336.123	0.2219
336.462	0.2247
336.802	0.2252
337.141	0.2266
337.481	0.228
337.82	0.2282
338.16	0.2299
338.499	0.2306
338.838	0.2315
339.177	0.2334
339.516	0.2339
339.855	0.2355
340.194	0.2366
340.533	0.2372
340.872	0.2378
341.21	0.2394
341.549	0.2401
341.887	0.2407
342.226	0.2407
342.564	0.2415
342.902	0.2417
343.24	0.2421
343.578	0.2424
343.916	0.2426
344.254	0.2435
344.592	0.2434
344.93	0.2437
345.268	0.2436
345.605	0.2443
345.943	0.2443
346.28	0.2435
346.618	0.2438
346.955	0.2448
347.292	0.2445
347.629	0.2457
347.966	0.2459
348.303	0.2449
348.64	0.2453
348.977	0.2449
349.314	0.2456
349.65	0.2455
349.987	0.2456
350.324	0.2444
350.66	0.2442
350.996	0.2442
351.333	0.2437
351.669	0.2428
352.005	0.2423
352.341	0.2419
352.677	0.2406
353.013	0.2391
353.349	0.239
353.685	0.2375
354.02	0.2365
354.356	0.236
354.691	0.2346
355.027	0.2339
355.362	0.2329
355.697	0.2318
356.033	0.231
356.368	0.2303
356.703	0.2289
357.038	0.2277
357.373	0.2276
357.707	0.2261
358.042	0.2254
358.377	0.224
358.711	0.2238
359.046	0.2226
359.38	0.221
359.715	0.2203
360.049	0.2185
360.383	0.2183
360.717	0.2175
361.051	0.2145
361.385	0.2134
361.719	0.2115
362.053	0.2109
362.387	0.2079
362.72	0.2065
363.054	0.2052
363.387	0.2027
363.721	0.2016
364.054	0.1999
364.387	0.198
364.721	0.1963
365.054	0.1949
365.387	0.1926
365.72	0.1908
366.053	0.1898
366.385	0.188
366.718	0.1867
367.051	0.1855
367.383	0.1832
367.716	0.1823
368.048	0.1809
368.381	0.1792
368.713	0.1786
369.045	0.1773
369.377	0.1745
369.709	0.174
370.041	0.1727
370.373	0.1719
370.705	0.1694
371.037	0.168
371.368	0.1658
371.7	0.1652
372.031	0.1635
372.363	0.1616
372.694	0.1601
373.025	0.1574
373.356	0.1559
373.688	0.153
374.019	0.151
374.35	0.15
374.68	0.1478
375.011	0.1458
375.342	0.1439
375.673	0.1421
376.003	0.1402
376.334	0.1382
376.664	0.1365
376.995	0.1349
377.325	0.1338
377.655	0.1323
377.985	0.1302
378.315	0.1294
378.645	0.1277
378.975	0.1265
379.305	0.125
379.635	0.1244
379.964	0.1227
380.294	0.1213
380.623	0.1196
380.953	0.119
381.282	0.1173
381.611	0.1163
381.941	0.1152
382.27	0.1129
382.599	0.112
382.928	0.1108
383.257	0.109
383.585	0.108
383.914	0.1057
384.243	0.1055
384.571	0.1029
384.9	0.101
385.228	0.0993
385.557	0.0986
385.885	0.0968
386.213	0.0954
386.541	0.0937
386.869	0.0918
387.197	0.0894
387.525	0.0883
387.853	0.0874
388.181	0.0858
388.508	0.0848
388.836	0.0839
389.164	0.0821
389.491	0.081
389.818	0.0799
390.146	0.0789
390.473	0.0765
390.8	0.0761
391.127	0.0753
391.454	0.074
391.781	0.073
392.108	0.0721
392.435	0.0702
392.761	0.0699
393.088	0.0693
393.415	0.0682
393.741	0.0682
394.067	0.0664
394.394	0.0662
394.72	0.0654
395.046	0.0644
395.372	0.0633
395.698	0.0624
396.024	0.0618
396.35	0.0606
396.676	0.0602
397.001	0.0594
397.327	0.0585
397.653	0.0574
397.978	0.0562
398.303	0.0555
398.629	0.0548
398.954	0.0541
399.279	0.0539
399.604	0.0532
399.929	0.0524
400.254	0.052
400.579	0.0516
400.904	0.05
401.229	0.0496
401.553	0.0482
401.878	0.0486
402.202	0.0477
402.527	0.0475
402.851	0.0475
403.175	0.0467
403.5	0.0463
403.824	0.0466
404.148	0.0459
404.472	0.0452
404.796	0.0446
405.119	0.0442
405.443	0.0439
405.767	0.0435
406.09	0.0428
406.414	0.0435
406.737	0.0431
407.061	0.0429
407.384	0.0429
407.707	0.0423
408.03	0.0429
408.353	0.0425
408.676	0.0423
408.999	0.0413
409.322	0.0421
409.645	0.0422
409.968	0.0411
410.29	0.0421
410.613	0.0413
410.935	0.0412
411.258	0.0411
411.58	0.0413
411.902	0.0415
412.224	0.0414
412.546	0.0416
412.868	0.041
413.19	0.0416
413.512	0.041
413.834	0.0407
414.156	0.0415
414.477	0.041
414.799	0.0411
415.121	0.0415
415.442	0.0409
415.763	0.0412
416.085	0.041
416.406	0.0416
416.727	0.0413
417.048	0.0413
417.369	0.0411
417.69	0.0405
418.011	0.0408
418.331	0.0409
418.652	0.0412
418.973	0.0411
419.293	0.0409
419.614	0.0414
419.934	0.0407
420.254	0.0418
420.574	0.0408
420.895	0.0412
421.215	0.0407
421.535	0.0406
421.855	0.0415
422.174	0.0409
422.494	0.0417
422.814	0.0419
423.134	0.0417
423.453	0.0419
423.773	0.0421
424.092	0.0415
424.411	0.0418
424.731	0.0426
425.05	0.042
425.369	0.0414
425.688	0.0422
426.007	0.0415
426.326	0.0417
426.644	0.0428
426.963	0.0423
427.282	0.0429
427.6	0.0429
427.919	0.0423
428.237	0.0426
428.556	0.0429
428.874	0.0427
429.192	0.0426
429.51	0.0425
429.828	0.0427
430.146	0.043
430.464	0.0433
430.782	0.0431
431.1	0.0429
431.418	0.0427
431.735	0.0428
432.053	0.0432
432.37	0.0433
432.688	0.043
433.005	0.0425
433.322	0.0432
433.639	0.0428
433.957	0.0433
434.274	0.0436
434.591	0.0431
434.907	0.0435
435.224	0.0432
435.541	0.0436
435.858	0.0444
436.174	0.0433
436.491	0.0435
436.807	0.0432
437.124	0.0433
437.44	0.043
437.756	0.0427
438.072	0.0424
438.388	0.0432
438.704	0.0426
439.02	0.0435
439.336	0.0426
439.652	0.0425
439.968	0.0431
440.283	0.0428
440.599	0.0437
440.914	0.0433
441.23	0.043
441.545	0.043
441.86	0.0429
442.175	0.0431
442.491	0.0427
442.806	0.0426
443.121	0.0434
443.435	0.0425
443.75	0.0427
444.065	0.0421
444.38	0.0428
444.694	0.042
445.009	0.0426
445.323	0.0423
445.638	0.0424
445.952	0.0426
446.266	0.0421
446.58	0.0425
446.894	0.0422
447.208	0.0424
447.522	0.0429
447.836	0.0405
448.15	0.0413
448.464	0.0409
448.777	0.0413
449.091	0.0409
449.404	0.0416
449.718	0.0423
450.031	0.0408
450.345	0.0411
450.658	0.041
450.971	0.0411
451.284	0.0407
451.597	0.0419
451.91	0.0413
452.223	0.0401
452.535	0.0414
452.848	0.0407
453.161	0.0404
453.473	0.0411
453.786	0.0412
454.098	0.0402
454.411	0.0406
454.723	0.0393
455.035	0.0403
455.347	0.0404
455.659	0.0407
455.971	0.0406
456.283	0.0402
456.595	0.0397
456.907	0.039
457.218	0.0398
457.53	0.0392
457.841	0.0385
458.153	0.038
458.464	0.0387
458.776	0.0375
459.087	0.0382
459.398	0.0374
459.709	0.0375
460.02	0.0372
460.331	0.0376
460.642	0.0371
460.953	0.0371
461.263	0.0372
461.574	0.0368
461.885	0.0376
462.195	0.037
462.506	0.0371
462.816	0.0362
463.126	0.0356
463.437	0.0354
463.747	0.0351
464.057	0.0354
464.367	0.0357
464.677	0.0356
464.987	0.0354
465.296	0.0347
465.606	0.0343
465.916	0.0337
466.225	0.0342
466.535	0.0338
466.844	0.0333
467.154	0.0333
467.463	0.0329
467.772	0.0338
468.081	0.0333
468.39	0.0336
468.699	0.0324
469.008	0.0325
469.317	0.0324
469.626	0.032
469.935	0.0325
470.243	0.0323
470.552	0.0329
470.86	0.0314
471.169	0.0308
471.477	0.0318
471.785	0.0312
472.093	0.0318
472.402	0.0302
472.71	0.0307
473.018	0.0308
473.326	0.0292
473.633	0.0304
473.941	0.0294
474.249	0.0292
474.556	0.0298
474.864	0.0284
475.171	0.0285
475.479	0.0283
475.786	0.0287
476.094	0.029
476.401	0.0286
476.708	0.0282
477.015	0.0285
477.322	0.0281
477.629	0.0281
477.936	0.027
478.242	0.0271
478.549	0.0267
478.856	0.0265
479.162	0.0268
479.469	0.0257
479.775	0.0269
480.081	0.0255
480.388	0.0261
480.694	0.0252
481	0.0252
481.306	0.0251
481.612	0.0247
481.918	0.0237
482.224	0.0256
482.53	0.0244
482.835	0.025
483.141	0.0234
483.446	0.0228
483.752	0.0235
484.057	0.0222
484.363	0.0224
484.668	0.0222
484.973	0.0225
485.278	0.0222
485.583	0.0217
485.888	0.0212
486.193	0.0212
486.498	0.0209
486.803	0.0214
487.107	0.0207
487.412	0.0197
487.717	0.0203
488.021	0.0202
488.325	0.0198
488.63	0.0192
488.934	0.0199
489.238	0.0203
489.542	0.0198
489.846	0.0186
490.15	0.0199
490.454	0.0187
490.758	0.019
491.062	0.0183
491.366	0.0184
491.669	0.0192
491.973	0.0187
492.276	0.0179
492.58	0.017
492.883	0.0174
493.186	0.018
493.489	0.0177
493.792	0.0174
494.096	0.0171
494.399	0.0173
494.701	0.017
495.004	0.0169
495.307	0.016
495.61	0.0158
495.912	0.0159
496.215	0.0144
496.517	0.0157
496.82	0.0153
497.122	0.0153
497.424	0.0146
497.727	0.0144
498.029	0.0159
498.331	0.0153
498.633	0.0152
498.935	0.015
499.237	0.0146
499.538	0.0138
499.84	0.0139
500.142	0.0145
500.443	0.0136
500.745	0.0144
501.046	0.0133
501.348	0.0124
501.649	0.0141
501.95	0.013
502.251	0.0137
502.552	0.0115
502.853	0.012
503.154	0.0124
503.455	0.0115
503.756	0.0123
504.057	0.0134
504.357	0.0111
504.658	0.0115
504.958	0.0114
505.259	0.0115
505.559	0.0123
505.859	0.0111
506.16	0.0119
506.46	0.0111
506.76	0.0112
507.06	0.0102
507.36	0.0105
507.66	0.0118
507.96	0.0108
508.259	0.0105
508.559	0.0096
508.859	0.0101
509.158	0.0098
509.457	0.0097
509.757	0.0111
510.056	0.0096
510.355	0.0091
510.655	0.009
510.954	0.0093
511.253	0.0097
511.552	0.0088
511.851	0.0089
512.149	0.0086
512.448	0.0082
512.747	0.0088
513.045	0.0069
513.344	0.0085
513.642	0.0092
513.941	0.0089
514.239	0.0086
514.537	0.0082
514.836	0.0076
515.134	0.0075
515.432	0.008
515.73	0.0084
516.028	0.0068
516.326	0.0082
516.623	0.0069
516.921	0.0065
517.219	0.0076
517.516	0.0063
517.814	0.0074
518.111	0.0067
518.409	0.0086
518.706	0.0077
519.003	0.0066
519.3	0.006
519.597	0.0062
519.894	0.0072
520.191	0.0072
520.488	0.0062
520.785	0.0057
521.082	0.0057
521.378	0.0065
521.675	0.0049
521.971	0.0054
522.268	0.0058
522.564	0.0058
522.861	0.0059
523.157	0.0052
523.453	0.006
523.749	0.0056
524.045	0.0066
524.341	0.0062
524.637	0.0055
524.933	0.0047
525.229	0.0055
525.524	0.0045
525.82	0.0058
526.115	0.0053
526.411	0.0042
526.706	0.0042
527.002	0.0056
527.297	0.004
527.592	0.0058
527.887	0.0058
528.182	0.0055
528.477	0.0059
528.772	0.0044
529.067	0.0056
529.362	0.0056
529.657	0.005
529.951	0.0039
530.246	0.0047
530.54	0.0033
530.835	0.0036
531.129	0.0041
531.423	0.0046
531.718	0.0031
532.012	0.0044
532.306	0.0035
532.6	0.0039
532.894	0.0043
533.188	0.0051
533.482	0.0031
533.775	0.0038
534.069	0.0034
534.363	0.0026
534.656	0.0035
534.95	0.0028
535.243	0.0035
535.536	0.003
535.83	0.0034
536.123	0.0026
536.416	0.0042
536.709	0.0037
537.002	0.0036
537.295	0.0029
537.588	0.0039
537.881	0.0036
538.173	0.0032
538.466	0.0036
538.759	0.0023
539.051	0.0028
539.344	0.0027
539.636	0.0034
539.928	0.003
540.22	0.0044
540.513	0.0035
540.805	0.0037
541.097	0.0034
541.389	0.0034
541.681	0.0029
541.972	0.0036
542.264	0.0035
542.556	0.0036
542.847	0.0034
543.139	0.0038
543.431	0.0046
543.722	0.0033
544.013	0.0051
544.305	0.0041
544.596	0.0055
544.887	0.0039
545.178	0.0044
545.469	0.0034
545.76	0.0032
546.051	0.0031
546.342	0.0041
546.632	0.0026
546.923	0.0038
547.214	0.0039
547.504	0.0028
547.795	0.0041
548.085	0.0036
548.375	0.0032
548.666	0.0037
548.956	0.003
549.246	0.0038
549.536	0.0028
549.826	0.0035
550.116	0.0033
550.406	0.0037
550.695	0.0042
550.985	0.0034
551.275	0.0042
551.564	0.0031
551.854	0.0035
552.143	0.0037
552.433	0.0035
552.722	0.0034
553.011	0.0027
553.3	0.0031
553.589	0.0036
553.879	0.0025
554.167	0.0035
554.456	0.0024
554.745	0.002
555.034	0.0023
555.323	0.0012
555.611	0.0018
555.9	0.0034
556.188	0.0028
556.477	0.0024
556.765	0.0013
557.053	0.0027
557.342	0.0023
557.63	0.0026
557.918	0.0016
558.206	0.0019
558.494	0.003
558.782	0.0028
559.069	0.0026
559.357	0.0019
559.645	0.0018
559.932	0.0029
560.22	0.0038
560.507	0.0036
560.795	0.0021
561.082	0.0025
561.37	0.0026
561.657	0.002
561.944	0.0033
562.231	0.0029
562.518	0.0023
562.805	0.0033
563.092	0.0034
563.379	0.0032
563.665	0.0022
563.952	0.0033
564.239	0.0038
564.525	0.0035
564.811	0.0042
565.098	0.0037
565.384	0.0038
565.67	0.0036
565.957	0.0031
566.243	0.0038
566.529	0.003
566.815	0.0043
567.101	0.0021
567.387	0.0019
567.672	0.0021
567.958	0.0023
568.244	0.0032
568.529	0.0029
568.815	0.0021
569.1	0.0035
569.386	0.0026
569.671	0.0024
569.956	0.0028
570.242	0.0024
570.527	0.0033
570.812	0.003
571.097	0.003
571.382	0.0024
571.666	0.0023
571.951	0.003
572.236	0.0032
572.521	0.0025
572.805	0.0032
573.09	0.0028
573.374	0.0027
573.659	0.0026
573.943	0.0029
574.227	0.0022
574.511	0.0036
574.795	0.0031
575.079	0.0028
575.363	0.0029
575.647	0.0031
575.931	0.0031
576.215	0.0028
576.499	0.0032
576.782	0.0028
577.066	0.0026
577.349	0.003
577.633	0.0043
577.916	0.0031
578.2	0.004
578.483	0.0037
578.766	0.0029
579.049	0.0037
579.332	0.0033
579.615	0.0035
579.898	0.0031
580.181	0.0031
580.464	0.0033
580.746	0.0025
581.029	0.0035
581.312	0.0029
581.594	0.003
581.877	0.0027
582.159	0.0043
582.441	0.0027
582.724	0.0024
583.006	0.0027
583.288	0.0014
583.57	0.0021
583.852	0.0021
584.134	0.0022
584.416	0.0033
584.697	0.0035
584.979	0.0033
585.261	0.0034
585.542	0.003
585.824	0.0033
586.105	0.0035
586.387	0.0025
586.668	0.0025
586.949	0.0025
587.231	0.0028
587.512	0.0039
587.793	0.0033
588.074	0.003
588.355	0.0033
588.636	0.0043
588.916	0.0033
589.197	0.0042
589.478	0.0036
589.758	0.0028
590.039	0.003
590.319	0.003
590.6	0.0022
590.88	0.0025
591.16	0.003
591.441	0.0029
591.721	0.0034
592.001	0.0032
592.281	0.0026
592.561	0.0033
592.841	0.0036
593.12	0.0029
593.4	0.0027
593.68	0.003
593.959	0.0025
594.239	0.0028
594.518	0.0024
594.798	0.0026
595.077	0.0031
595.356	0.0025
595.636	0.0025
595.915	0.0027
596.194	0.0033
596.473	0.0029
596.752	0.0027
597.031	0.0027
597.31	0.0016
597.588	0.0028
597.867	0.0021
598.146	0.0029
598.424	0.0032
598.703	0.0025
598.981	0.0028
599.259	0.0026
599.538	0.0034
599.816	0.0033
600.094	0.0029
600.372	0.003
600.65	0.0039
600.928	0.0029
601.206	0.0032
601.484	0.0034
601.762	0.0034
602.04	0.0029
602.317	0.0033
602.595	0.0021
602.872	0.002
603.15	0.0023
603.427	0.0011
603.704	0.002
603.982	0.0021
604.259	0.0021
604.536	0.0022
604.813	0.0021
605.09	0.0027
605.367	0.0024
605.644	0.0024
605.921	0.003
606.197	0.0026
606.474	0.0026
606.751	0.0032
607.027	0.0034
607.304	0.0027
607.58	0.003
607.856	0.0027
608.133	0.0034
608.409	0.0031
608.685	0.0018
608.961	0.0026
609.237	0.0033
609.513	0.0018
609.789	0.0018
610.065	0.0017
610.341	0.0022
610.616	0.0022
610.892	0.003
611.167	0.0032
611.443	0.0031
611.718	0.0022
611.994	0.0022
612.269	0.0031
612.544	0.0028
612.819	0.0017
613.095	0.003
613.37	0.0024
613.645	0.0022
613.919	0.0022
614.194	0.0026
614.469	0.0028
614.744	0.0026
615.019	0.0025
615.293	0.0016
615.568	0.0014
615.842	0.0023
616.116	0.0021
616.391	0.0015
616.665	0.0025
616.939	0.0018
617.213	0.0029
617.488	0.0022
617.762	0.0027
618.035	0.0023
618.309	0.0018
618.583	0.0023
618.857	0.0015
619.131	0.0027
619.404	0.0022
619.678	0.0018
619.951	0.0014
620.225	0.0006
620.498	0.0014
620.771	0.0011
621.045	0.0017
621.318	0.0019
621.591	0.001
621.864	0.0008
622.137	0.0004
622.41	0.001
622.683	0.0006
622.956	0.0014
623.228	0.0023
623.501	0.0028
623.774	0.0027
624.046	0.0025
624.319	0.0018
624.591	0.0009
624.863	0.0023
625.136	0.0011
625.408	0.0016
625.68	0.0022
625.952	0.002
626.224	0.0026
626.496	0.0021
626.768	0.0019
627.04	0.0024
627.311	0.0027
627.583	0.0025
627.855	0.002
628.126	0.0018
628.398	0.0025
628.669	0.0021
628.941	0.0012
629.212	0.0007
629.483	0.0019
629.755	0.0016
630.026	0.0023
630.297	0.0016
630.568	0.0017
630.839	0.0007
631.11	-0.0002
631.38	-0.0005
631.651	0.0001
631.922	-0.0007
632.192	-0.0016
632.463	-0.0015
632.733	-0.0001
633.004	-0.0007
633.274	-0.0026
633.545	0.0004
633.815	0.0006
634.085	0.0006
634.355	0.0004
634.625	0.002
634.895	0.0007
635.165	-0.0004
635.435	-0.0001
635.705	-0.0005
635.974	-0.001
636.244	0.0013
636.514	0.0018
636.783	0.0017
637.053	0.0024
637.322	0.0008
637.591	0.0028
637.861	0.002
638.13	0.002
638.399	0.0005
638.668	0.0017
638.937	0
639.206	0.0014
639.475	0.0011
639.744	0.0012
640.013	0.0024
640.281	0.0026
640.55	0.0023
640.819	0.0016
641.087	0.0018
641.356	0.0004
641.624	0.001
641.892	0.002
642.161	0.0026
642.429	0.0018
642.697	0.0011
642.965	0.0014
643.233	0.0011
643.501	0.0004
643.769	0.0014
644.037	0.0002
644.305	0.0017
644.572	0.0006
644.84	0.0002
645.108	0.0017
645.375	0.0002
645.643	0.0014
645.91	0.0009
646.177	0.0016
646.445	0.0036
646.712	0.0041
646.979	0.0033
647.246	0.0026
647.513	0.0037
647.78	0.0035
648.047	0.0035
648.314	0.0033
648.58	0.0032
648.847	0.002
649.114	0.0017
649.38	0.0008
649.647	-0
649.913	0.0017
650.18	0.001
650.446	0.0017
650.712	0.0025
650.978	0.0027
651.245	0.0029
651.511	0.003
651.777	0.0013
652.043	0.0024
652.309	0.0016
652.574	0.0017
652.84	0.0002
653.106	-0.0002
653.371	-0.0013
653.637	-0.0004
653.903	0.0002
654.168	0.0005
654.433	0.0007
654.699	0.0021
654.964	0.0023
655.229	0.0028
655.494	0.0024
655.759	0.0023
656.024	0.0007
656.289	-0
656.554	0.0009
656.819	0.0006
657.084	0.001
657.349	0.0018
657.613	0.0012
657.878	0.0013
658.142	0.0013
658.407	0.0016
658.671	0.0008
658.936	0.0001
659.2	-0.0004
659.464	0
659.728	0
659.992	-0.0001
660.256	-0.0005
660.52	-0.0003
660.784	-0
661.048	-0.0003
661.312	-0.0008
661.575	-0.0005
661.839	-0.0019
662.103	-0.0022
662.366	-0.0021
662.63	-0.0025
662.893	-0.0007
663.156	-0.0009
663.42	-0.0003
663.683	0
663.946	0.001
664.209	0.0021
664.472	0.0016
664.735	0.0013
664.998	0.0009
665.261	-0.0005
665.524	-0.001
665.786	-0.0005
666.049	-0
666.312	-0.0006
666.574	-0.001
666.837	-0.0015
667.099	-0.0028
667.361	-0.0021
667.624	-0.0025
667.886	-0.002
668.148	-0.0007
668.41	0.0008
668.672	-0.0004
668.934	0.0001
669.196	-0.0002
669.458	-0.0005
669.72	-0.0005
669.982	-0.0005
670.243	0.001
670.505	0.0003
670.766	-0.0004
671.028	0.0003
671.289	0.0013
671.551	0.0005
671.812	0.0001
672.073	0.0008
672.334	-0.0002
672.596	-0.0002
672.857	-0.0009
673.118	-0.0008
673.379	-0.0005
673.639	-0.0007
673.9	-0.0003
674.161	-0.0017
674.422	-0.0018
674.682	-0.002
674.943	-0.0026
675.203	-0.001
675.464	-0.0007
675.724	-0.0002
675.985	0.0006
676.245	0.0018
676.505	0.0024
676.765	0.0023
677.025	0.0012
677.285	0.0016
677.545	0.002
677.805	0.0029
678.065	0.0024
678.325	0.0027
678.585	0.0018
678.844	0.0018
679.104	0.0013
679.363	0.0014
679.623	0.0024
679.882	0.0027
680.142	0.0025
680.401	0.0023
680.66	0.003
680.919	0.0035
681.178	0.0042
681.437	0.0048
681.696	0.0038
681.955	0.0035
682.214	0.0037
682.473	0.0034
682.732	0.0013
682.99	0.0022
683.249	0.0031
683.508	0.0026
683.766	0.0026
684.024	0.003
684.283	0.0031
684.541	0.0025
684.799	0.0026
685.058	0.0027
685.316	0.0026
685.574	0.0039
685.832	0.0036
686.09	0.0034
686.348	0.0041
686.606	0.0044
686.863	0.0043
687.121	0.0039
687.379	0.0036
687.636	0.0033
687.894	0.004
688.151	0.0041
688.409	0.0031
688.666	0.0028
688.923	0.0026
689.181	0.002
689.438	0.0018
689.695	0.002
689.952	0.0001
690.209	0.0004
690.466	0
690.723	0.0017
690.979	0.0006
691.236	0.0005
691.493	0.0011
691.75	0.0027
692.006	0.0024
692.263	0.0041
692.519	0.0042
692.775	0.0028
693.032	0.0025
693.288	0.0032
693.544	0.0032
693.8	0.0028
694.056	0.0025
694.313	0.0033
694.568	0.002
694.824	0.0026
695.08	0.0028
695.336	0.0037
695.592	0.0024
695.847	0.0025
696.103	0.0031
696.359	0.0024
696.614	0.0014
696.869	0.0014
697.125	0.0007
697.38	0.0003
697.635	-0.0004
697.891	0.0003
698.146	-0.0008
698.401	0.0005
698.656	-0.0003
698.911	-0.0002
699.166	-0.0009
699.42	-0.0012
699.675	-0.0008
699.93	-0.0014
700.185	-0.0011
700.439	0.0004
700.694	-0.0006
700.948	0.0007
701.203	0.0015
701.457	0.0003
701.711	0.0002
701.965	-0.0006
702.22	-0.0008
702.474	0.0008
702.728	0.0002
702.982	0.0003
703.236	0.0006
703.49	0.0009
703.743	0.0002
703.997	0.0004
704.251	0.0011
704.504	0.0013
704.758	0.0006
705.012	0.0003
705.265	-0.0004
705.518	-0.001
705.772	-0.0012
706.025	-0.0007
706.278	-0.0006
706.531	-0.0004
706.785	-0.0011
707.038	-0.0002
707.291	-0.0016
707.543	-0.0009
707.796	-0.0019
708.049	-0.0018
708.302	-0.0031
708.555	-0.0021
708.807	-0.001
709.06	-0.0014
709.312	-0.0031
709.565	-0.003
709.817	-0.0031
710.069	-0.0025
710.322	-0.003
710.574	-0.0023
710.826	-0.0019
711.078	-0.0009
711.33	-0.0021
711.582	-0.0021
711.834	-0.0016
712.086	-0.0012
712.338	-0.0008
712.59	-0.0006
712.841	-0.0005
713.093	-0.0008
713.344	-0.0006
713.596	-0.0002
713.847	0.0006
714.099	0
714.35	0.0005
714.601	0.0013
714.853	0.0023
715.104	0.0014
715.355	0.0004
715.606	0.0006
715.857	0.0005
716.108	0.0023
716.359	0.0016
716.609	0.0016
716.86	0.0009
717.111	-0.0008
717.361	-0.001
717.612	-0.0012
717.863	-0.0013
718.113	-0.0012
718.363	0.0002
718.614	0.0001
718.864	-0.0005
719.114	-0.0002
719.364	-0.0003
719.614	-0.0005
719.865	-0.0016
720.114	-0.0012
720.364	-0.001
720.614	-0
720.864	0.0006
721.114	0.0007
721.364	0.0012
721.613	0.0023
721.863	0.0021
722.112	0.0021
722.362	0.0026
722.611	0.002
722.86	0.0012
723.11	0.0007
723.359	0.001
723.608	0.0018
723.857	0.0032
724.106	0.0037
724.355	0.0048
724.604	0.0052
724.853	0.0031
725.102	0.0032
725.351	0.0019
725.599	0.0024
725.848	0.0026
726.097	0.0021
726.345	0.002
726.594	0.0018
726.842	0.0009
727.09	0.0005
727.339	0.0007
727.587	0.0001
727.835	-0.0007
728.083	-0.0011
728.331	-0.0017
728.579	-0.0028
728.827	-0.0016
729.075	-0.0024
729.323	-0.0013
729.571	-0.0006
729.818	-0.0006
730.066	-0.0002
730.314	-0.001
730.561	-0.0017
730.809	-0.0011
731.056	-0.0009
731.303	-0.0014
731.551	-0.0013
731.798	-0.0013
732.045	-0.0007
732.292	-0.0016
732.539	-0.0012
732.786	-0.0002
733.033	0.0001
733.28	0.0002
733.527	0.0019
733.774	0.0012
734.021	0.0019
734.267	0.0024
734.514	0.003
734.76	0.0029
735.007	0.0043
735.253	0.0052
735.5	0.0051
735.746	0.0044
735.992	0.0036
736.238	0.0033
736.485	0.0035
736.731	0.0029
736.977	0.003
737.223	0.0021
737.469	0.003
737.715	0.002
737.96	0.0037
738.206	0.0024
738.452	0.0045
738.697	0.0036
738.943	0.0031
739.189	0.0016
739.434	0.0007
739.679	-0.0005
739.925	-0.001
740.17	-0.0022
740.415	-0.0015
740.66	-0.0007
740.906	-0.0002
741.151	0.0002
741.396	0.0003
741.641	0.0019
741.886	0.0027
742.13	0.0031
742.375	0.0037
742.62	0.0052
742.865	0.0043
743.109	0.0036
743.354	0.0036
743.598	0.0034
743.843	0.0029
744.087	0.0028
744.331	0.0028
744.576	0.0028
744.82	0.0031
745.064	0.0028
745.308	0.0022
745.552	0.0022
745.796	0.0025
746.04	0.0028
746.284	0.0014
746.528	0.0002
746.771	0.0006
747.015	0.0004
747.259	0.0004
747.502	0.0007
747.746	0.0017
747.989	0.0015
748.233	0.0026
748.476	0.0017
748.719	0.0021
748.963	0.0017
749.206	0.0012
749.449	0.0025
749.692	0.0009
749.935	0.0023
750.178	0.0012
750.421	0.0023
750.664	0.0023
750.906	0.0025
751.149	0.0018
751.392	0.0021
751.635	0.0006
751.877	-0.0007
752.12	-0.0005
752.362	0.0001
752.604	-0.0004
752.847	-0.0001
753.089	-0.0002
753.331	0.0001
753.573	0.0002
753.816	0.0009
754.058	0.0008
754.3	0.0008
754.542	0.0014
754.783	0.0008
755.025	0.0002
755.267	-0.0003
755.509	-0.0002
755.75	-0.0006
755.992	0.0009
756.234	-0.0002
756.475	-0.0005
756.716	-0.0001
756.958	0.0005
757.199	0.0008
757.44	0.0016
757.682	0.0021
757.923	0.001
758.164	0.0011
758.405	-0.0002
758.646	0.0011
758.887	-0.0003
759.128	-0.0009
759.369	-0.0012
759.609	-0.0016
759.85	-0.0005
760.091	0.0005
760.331	-0.0004
760.572	-0.0003
760.812	-0.0008
761.053	-0.0017
761.293	-0.0019
761.533	-0.0008
761.774	-0.0023
762.014	-0.0016
762.254	-0.0016
762.494	-0.0026
762.734	-0.0028
762.974	-0.0025
763.214	-0.0029
763.454	-0.0032
763.694	-0.0015
763.933	-0.0025
764.173	-0.0006
764.413	-0.0013
764.652	-0.0005
764.892	-0.0002
765.131	0.0001
765.371	0.0005
765.61	0.0007
765.849	-0.0001
766.089	0.0009
766.328	0.0019
766.567	0.0006
766.806	0.0013
767.045	0.0006
767.284	0.0008
767.523	0.0012
767.762	0.001
768.001	0.0007
768.239	0.0007
768.478	0.0003
768.717	0.0005
768.955	0.0006
769.194	-0.0002
769.432	-0.0004
769.671	0.0002
769.909	-0.0003
770.148	-0.0001
770.386	0.0002
770.624	0.0006
770.862	0.0007
771.1	0.0001
771.338	0.0002
771.576	0.0002
771.814	-0.0014
772.052	-0.0012
772.29	-0.0004
772.528	0.0001
772.765	0
773.003	0.0004
773.24	0.0005
773.478	0.0011
773.716	0.0018
773.953	0.0026
774.19	0.003
774.428	0.0027
774.665	0.003
774.902	0.0023
775.139	0.0008
775.376	0.0006
775.613	0.0005
775.85	0.0012
776.087	-0.0007
776.324	-0.0003
776.561	0.0009
776.798	0.0019
777.034	0.0018
777.271	0.004
777.508	0.0047
777.744	0.0039
777.981	0.0021
778.217	0.0027
778.454	0.0019
778.69	0.0018
778.926	0.0026
779.162	0.0025
779.399	0.0021
779.635	0.0011
779.871	0.0005
780.107	0.0015
780.343	0.0011
780.579	0.0019
780.814	0.0008
781.05	0.0013
781.286	0.0019
781.522	0.0016
781.757	0.0025
781.993	0.0019
782.228	0.0028
782.464	0.0008
782.699	0.0012
782.934	0.0003
783.17	0.0004
783.405	0.0004
783.64	0.0001
783.875	0.0009
784.11	0.0017
784.345	0.0027
784.58	0.0024
784.815	0.0018
785.05	0.0031
785.285	0.0012
785.52	0.0011
785.754	0.0015
785.989	-0.0004
786.223	-0.0002
786.458	-0.0002
786.692	-0.0016
786.927	-0.0022
787.161	-0.0019
787.396	-0.0028
787.63	-0.0027
787.864	-0.0035
788.098	-0.0025
788.332	-0.002
788.566	-0.0014
788.8	-0.0012
789.034	-0.0005
789.268	-0.0002
789.502	0.0005
789.736	0.0011
789.969	0.0015
790.203	0.0007
790.437	0.0013
790.67	0.0013
790.904	0.0013
791.137	-0.0007
791.37	-0.001
791.604	-0.0018
791.837	-0.0009
792.07	-0.0015
792.303	-0
792.537	-0.0013
792.77	-0.0009
793.003	-0.0008
793.236	-0.0021
793.469	-0.0019
793.701	-0.0011
793.934	-0.0011
794.167	-0.0013
794.4	-0.0007
794.632	-0.0006
794.865	-0.0017
795.097	-0.0011
795.33	0.0007
795.562	0.0004
795.795	-0.0003
796.027	0.0001
796.259	-0.0006
796.491	-0.0016
796.724	-0.0012
796.956	-0.0008
797.188	0.0002
797.42	-0.0003
797.652	-0.0008
797.883	-0.0016
798.115	-0.0013
798.347	-0.0025
798.579	-0.0036
798.81	-0.0036
799.042	-0.0036
799.274	-0.0043
799.505	-0.0045
799.737	-0.005
799.968	-0.0044
800.199	-0.0034
800.431	-0.0034
800.662	-0.003
800.893	-0.0029
801.124	-0.0026
801.355	-0.0026
801.586	-0.0019
801.817	-0.0019
802.048	-0.0019
802.279	-0.0017
802.51	-0.0006
802.741	-0.0023
802.971	-0.0017
803.202	-0.0022
803.433	-0.0015
803.663	-0.0023
803.894	-0.0012
804.124	-0.0016
804.354	-0.0016
804.585	-0.0016
804.815	-0.0011
805.045	-0.0011
805.275	-0.0019
805.506	-0.0434
805.736	-0.0007
805.966	-0.1003
806.196	-0.0142
