Data from 03 0.2 mM BQDS 0.4 mM K2Cr2O7 1 M H2SO4 5 min_Absorbance_22-42-42-387.txt Node
Date: Tue Dec 07 22:42:42 EST 2021
User: kwabilab-user
Spectrometer: HDX00518
Trigger mode: 0
Integration Time (sec): 5.000000E-2
Scans to average: 50
Nonlinearity correction enabled: false
Boxcar width: 0
Storing dark spectrum: false
XAxis mode: Wavelengths
Number of Pixels in Spectrum: 2068
>>>>>Begin Spectral Data<<<<<
195.27	0.0981
195.642	0.0566
196.014	0.0692
196.386	0.0043
196.758	0.0402
197.129	0.0266
197.501	0.043
197.872	0.0927
198.244	0.1216
198.615	0.1155
198.986	0.1145
199.357	0.1055
199.728	0.1256
200.099	0.1037
200.47	0.1212
200.841	0.1207
201.212	0.1122
201.582	0.1146
201.953	0.1086
202.323	0.1091
202.694	0.1123
203.064	0.1318
203.434	0.1114
203.804	0.1341
204.174	0.11
204.544	0.1238
204.914	0.1053
205.284	0.1157
205.653	0.127
206.023	0.1194
206.393	0.1056
206.762	0.125
207.131	0.1321
207.501	0.1358
207.87	0.1488
208.239	0.1317
208.608	0.1107
208.977	0.1308
209.346	0.1335
209.715	0.1325
210.083	0.1354
210.452	0.1403
210.82	0.1431
211.189	0.1614
211.557	0.1454
211.925	0.1584
212.294	0.1565
212.662	0.1686
213.03	0.1953
213.398	0.163
213.766	0.177
214.133	0.2046
214.501	0.1985
214.869	0.2017
215.236	0.2315
215.604	0.2258
215.971	0.243
216.338	0.2823
216.705	0.2862
217.072	0.3276
217.439	0.327
217.806	0.3566
218.173	0.3774
218.54	0.3899
218.907	0.4396
219.273	0.4889
219.64	0.5223
220.006	0.5559
220.373	0.5862
220.739	0.6333
221.105	0.6676
221.471	0.6804
221.837	0.7403
222.203	0.7672
222.569	0.8094
222.935	0.8405
223.3	0.8638
223.666	0.8937
224.031	0.9319
224.397	0.9391
224.762	0.9542
225.127	0.9679
225.493	0.9837
225.858	0.9992
226.223	1.0002
226.588	1.0206
226.952	1.0191
227.317	1.0292
227.682	1.0256
228.046	1.0175
228.411	1.0192
228.775	1.0225
229.14	1.0085
229.504	1.0037
229.868	1.0096
230.232	0.9935
230.596	0.9889
230.96	0.9853
231.324	0.9719
231.688	0.9613
232.052	0.9645
232.415	0.9511
232.779	0.9438
233.142	0.9306
233.505	0.9231
233.869	0.9167
234.232	0.9084
234.595	0.8931
234.958	0.8858
235.321	0.876
235.684	0.867
236.047	0.8579
236.409	0.8483
236.772	0.8388
237.134	0.8323
237.497	0.8227
237.859	0.8146
238.222	0.8059
238.584	0.7979
238.946	0.7892
239.308	0.783
239.67	0.7764
240.032	0.7698
240.393	0.7646
240.755	0.7578
241.117	0.7531
241.478	0.7459
241.84	0.74
242.201	0.7304
242.562	0.726
242.924	0.7205
243.285	0.717
243.646	0.7107
244.007	0.7072
244.368	0.7042
244.728	0.7015
245.089	0.6957
245.45	0.6911
245.81	0.6884
246.171	0.6862
246.531	0.6793
246.891	0.6769
247.252	0.6734
247.612	0.6713
247.972	0.6696
248.332	0.6673
248.692	0.6663
249.051	0.6652
249.411	0.6629
249.771	0.6602
250.13	0.6558
250.49	0.6546
250.849	0.6549
251.208	0.6528
251.568	0.6488
251.927	0.6493
252.286	0.6494
252.645	0.6481
253.004	0.6472
253.363	0.6445
253.721	0.6473
254.08	0.6452
254.439	0.6428
254.797	0.6433
255.155	0.6397
255.514	0.6394
255.872	0.6391
256.23	0.638
256.588	0.6369
256.946	0.6361
257.304	0.6382
257.662	0.6328
258.02	0.6358
258.377	0.6336
258.735	0.6325
259.093	0.6313
259.45	0.6315
259.807	0.6294
260.165	0.6302
260.522	0.6285
260.879	0.6251
261.236	0.624
261.593	0.6248
261.95	0.6222
262.306	0.6209
262.663	0.6173
263.02	0.6175
263.376	0.617
263.733	0.6163
264.089	0.6128
264.445	0.6115
264.802	0.6095
265.158	0.6064
265.514	0.6066
265.87	0.6041
266.226	0.6026
266.581	0.5982
266.937	0.596
267.293	0.5949
267.648	0.5937
268.004	0.5903
268.359	0.5887
268.714	0.5849
269.07	0.5811
269.425	0.5789
269.78	0.5799
270.135	0.5745
270.49	0.5713
270.844	0.5687
271.199	0.5657
271.554	0.5625
271.908	0.5611
272.263	0.5566
272.617	0.5535
272.972	0.5495
273.326	0.5466
273.68	0.5432
274.034	0.5399
274.388	0.5364
274.742	0.5312
275.096	0.5287
275.45	0.5251
275.803	0.5197
276.157	0.5152
276.51	0.5108
276.864	0.5066
277.217	0.5039
277.571	0.4998
277.924	0.4948
278.277	0.4913
278.63	0.4862
278.983	0.4801
279.336	0.4785
279.688	0.4748
280.041	0.4702
280.394	0.4632
280.746	0.4613
281.099	0.4559
281.451	0.4514
281.803	0.4471
282.156	0.4424
282.508	0.4369
282.86	0.4343
283.212	0.4285
283.564	0.4246
283.916	0.4196
284.267	0.4156
284.619	0.411
284.971	0.4072
285.322	0.4036
285.673	0.3992
286.025	0.3964
286.376	0.391
286.727	0.3856
287.078	0.381
287.429	0.3783
287.78	0.372
288.131	0.3689
288.482	0.3638
288.833	0.3609
289.183	0.3553
289.534	0.3519
289.884	0.3472
290.235	0.343
290.585	0.3387
290.935	0.3351
291.285	0.3306
291.635	0.3267
291.985	0.3221
292.335	0.3174
292.685	0.314
293.035	0.3099
293.384	0.3061
293.734	0.3021
294.083	0.2981
294.433	0.2933
294.782	0.2893
295.131	0.2867
295.48	0.2828
295.829	0.2791
296.179	0.2738
296.527	0.2718
296.876	0.2679
297.225	0.2657
297.574	0.2605
297.922	0.2572
298.271	0.2536
298.619	0.2496
298.968	0.2472
299.316	0.2436
299.664	0.2407
300.012	0.2377
300.36	0.2341
300.708	0.2311
301.056	0.2286
301.404	0.2253
301.752	0.2226
302.099	0.2203
302.447	0.218
302.794	0.2153
303.142	0.2125
303.489	0.2106
303.836	0.2074
304.183	0.2057
304.531	0.2036
304.878	0.2017
305.224	0.1992
305.571	0.1979
305.918	0.1955
306.265	0.1937
306.611	0.192
306.958	0.1909
307.304	0.1891
307.651	0.1878
307.997	0.1858
308.343	0.1848
308.689	0.1836
309.035	0.1829
309.381	0.1819
309.727	0.1799
310.073	0.1799
310.419	0.1787
310.764	0.1785
311.11	0.1781
311.455	0.1769
311.801	0.1758
312.146	0.1757
312.491	0.1748
312.837	0.1747
313.182	0.1746
313.527	0.1745
313.872	0.1736
314.216	0.1739
314.561	0.1739
314.906	0.1736
315.251	0.1737
315.595	0.1733
315.94	0.1739
316.284	0.1741
316.628	0.1734
316.972	0.1737
317.317	0.1741
317.661	0.1746
318.005	0.1749
318.348	0.1753
318.692	0.176
319.036	0.1759
319.38	0.1768
319.723	0.1777
320.067	0.1779
320.41	0.1783
320.754	0.1795
321.097	0.1804
321.44	0.1811
321.783	0.1817
322.126	0.1827
322.469	0.1844
322.812	0.185
323.155	0.1865
323.498	0.1872
323.84	0.1884
324.183	0.19
324.525	0.1904
324.868	0.1915
325.21	0.1929
325.552	0.1946
325.894	0.1948
326.236	0.1963
326.578	0.1977
326.92	0.1989
327.262	0.1998
327.604	0.2011
327.946	0.2027
328.287	0.2044
328.629	0.2054
328.97	0.2067
329.312	0.2082
329.653	0.2104
329.994	0.2108
330.335	0.2129
330.676	0.214
331.017	0.2147
331.358	0.2168
331.699	0.218
332.04	0.2198
332.38	0.2209
332.721	0.2233
333.061	0.2237
333.402	0.2253
333.742	0.2267
334.083	0.2285
334.423	0.2297
334.763	0.2307
335.103	0.2323
335.443	0.2326
335.783	0.2338
336.123	0.2343
336.462	0.2364
336.802	0.2374
337.141	0.2387
337.481	0.2396
337.82	0.2403
338.16	0.2419
338.499	0.2429
338.838	0.2442
339.177	0.2456
339.516	0.2464
339.855	0.2477
340.194	0.2488
340.533	0.2502
340.872	0.2508
341.21	0.2522
341.549	0.2524
341.887	0.2535
342.226	0.254
342.564	0.2538
342.902	0.2548
343.24	0.2546
343.578	0.2548
343.916	0.2555
344.254	0.2563
344.592	0.2559
344.93	0.2571
345.268	0.2567
345.605	0.2571
345.943	0.2574
346.28	0.2579
346.618	0.2574
346.955	0.2578
347.292	0.2585
347.629	0.2589
347.966	0.2583
348.303	0.2584
348.64	0.2582
348.977	0.2582
349.314	0.2587
349.65	0.2592
349.987	0.2586
350.324	0.2572
350.66	0.2577
350.996	0.2576
351.333	0.2565
351.669	0.2557
352.005	0.2556
352.341	0.2539
352.677	0.254
353.013	0.2519
353.349	0.2521
353.685	0.2504
354.02	0.25
354.356	0.2484
354.691	0.247
355.027	0.2469
355.362	0.2454
355.697	0.245
356.033	0.2435
356.368	0.2415
356.703	0.2414
357.038	0.2409
357.373	0.2395
357.707	0.2394
358.042	0.2373
358.377	0.2365
358.711	0.2358
359.046	0.2343
359.38	0.2331
359.715	0.2327
360.049	0.2315
360.383	0.23
360.717	0.2286
361.051	0.2261
361.385	0.2253
361.719	0.2234
362.053	0.2231
362.387	0.2205
362.72	0.2184
363.054	0.2162
363.387	0.2146
363.721	0.2123
364.054	0.2108
364.387	0.2083
364.721	0.2074
365.054	0.2056
365.387	0.2033
365.72	0.2018
366.053	0.2001
366.385	0.1984
366.718	0.1973
367.051	0.1952
367.383	0.1933
367.716	0.1918
368.048	0.1913
368.381	0.1896
368.713	0.1881
369.045	0.1868
369.377	0.1852
369.709	0.1838
370.041	0.1824
370.373	0.1816
370.705	0.179
371.037	0.1775
371.368	0.1762
371.7	0.1745
372.031	0.1731
372.363	0.1704
372.694	0.1687
373.025	0.1662
373.356	0.1654
373.688	0.163
374.019	0.1598
374.35	0.1591
374.68	0.1561
375.011	0.154
375.342	0.1523
375.673	0.1501
376.003	0.1481
376.334	0.1462
376.664	0.1447
376.995	0.1427
377.325	0.1409
377.655	0.1398
377.985	0.1385
378.315	0.1371
378.645	0.1351
378.975	0.1336
379.305	0.1323
379.635	0.1311
379.964	0.13
380.294	0.1284
380.623	0.1267
380.953	0.1262
381.282	0.1241
381.611	0.1227
381.941	0.1216
382.27	0.12
382.599	0.1181
382.928	0.117
383.257	0.1156
383.585	0.1142
383.914	0.1122
384.243	0.1112
384.571	0.1088
384.9	0.1076
385.228	0.1053
385.557	0.104
385.885	0.1025
386.213	0.1009
386.541	0.0991
386.869	0.097
387.197	0.0953
387.525	0.094
387.853	0.0919
388.181	0.0911
388.508	0.0902
388.836	0.089
389.164	0.0875
389.491	0.0863
389.818	0.0851
390.146	0.0837
390.473	0.0817
390.8	0.081
391.127	0.0793
391.454	0.079
391.781	0.0781
392.108	0.0771
392.435	0.0752
392.761	0.074
393.088	0.0738
393.415	0.0724
393.741	0.0728
394.067	0.0709
394.394	0.0708
394.72	0.0695
395.046	0.0687
395.372	0.0673
395.698	0.0664
396.024	0.0657
396.35	0.0651
396.676	0.0646
397.001	0.0635
397.327	0.062
397.653	0.0605
397.978	0.0602
398.303	0.0593
398.629	0.0586
398.954	0.0584
399.279	0.0575
399.604	0.0567
399.929	0.056
400.254	0.0553
400.579	0.0543
400.904	0.054
401.229	0.0528
401.553	0.0518
401.878	0.0516
402.202	0.0511
402.527	0.0502
402.851	0.0502
403.175	0.0494
403.5	0.0493
403.824	0.0495
404.148	0.049
404.472	0.0486
404.796	0.0473
405.119	0.047
405.443	0.0468
405.767	0.0465
406.09	0.0465
406.414	0.0465
406.737	0.0453
407.061	0.0459
407.384	0.0462
407.707	0.0445
408.03	0.0454
408.353	0.0451
408.676	0.0448
408.999	0.0445
409.322	0.0445
409.645	0.0448
409.968	0.0443
410.29	0.0437
410.613	0.0434
410.935	0.0436
411.258	0.0442
411.58	0.0434
411.902	0.0438
412.224	0.0435
412.546	0.0437
412.868	0.0433
413.19	0.0433
413.512	0.0432
413.834	0.0434
414.156	0.0436
414.477	0.043
414.799	0.0432
415.121	0.0439
415.442	0.0434
415.763	0.0433
416.085	0.0431
416.406	0.0428
416.727	0.0433
417.048	0.0437
417.369	0.0435
417.69	0.0428
418.011	0.0432
418.331	0.0435
418.652	0.0435
418.973	0.0437
419.293	0.0436
419.614	0.0435
419.934	0.0434
420.254	0.0435
420.574	0.0433
420.895	0.043
421.215	0.0431
421.535	0.043
421.855	0.0433
422.174	0.0428
422.494	0.0433
422.814	0.044
423.134	0.0435
423.453	0.0438
423.773	0.0434
424.092	0.0433
424.411	0.0432
424.731	0.044
425.05	0.0436
425.369	0.0436
425.688	0.0441
426.007	0.0447
426.326	0.0444
426.644	0.0449
426.963	0.044
427.282	0.0446
427.6	0.0445
427.919	0.0444
428.237	0.0444
428.556	0.0446
428.874	0.0441
429.192	0.0445
429.51	0.0441
429.828	0.0447
430.146	0.0445
430.464	0.0449
430.782	0.0448
431.1	0.045
431.418	0.0444
431.735	0.0445
432.053	0.0453
432.37	0.045
432.688	0.0447
433.005	0.0446
433.322	0.0448
433.639	0.0452
433.957	0.0449
434.274	0.0456
434.591	0.0451
434.907	0.0454
435.224	0.0451
435.541	0.046
435.858	0.0462
436.174	0.0459
436.491	0.0455
436.807	0.0453
437.124	0.0447
437.44	0.0446
437.756	0.0449
438.072	0.0442
438.388	0.0459
438.704	0.045
439.02	0.0456
439.336	0.0448
439.652	0.0456
439.968	0.0452
440.283	0.0448
440.599	0.0445
440.914	0.0454
441.23	0.0447
441.545	0.0453
441.86	0.0447
442.175	0.045
442.491	0.0449
442.806	0.045
443.121	0.0447
443.435	0.044
443.75	0.0448
444.065	0.0444
444.38	0.0453
444.694	0.045
445.009	0.0446
445.323	0.0443
445.638	0.0449
445.952	0.0446
446.266	0.0447
446.58	0.0448
446.894	0.0451
447.208	0.0449
447.522	0.0444
447.836	0.0432
448.15	0.0437
448.464	0.0436
448.777	0.0436
449.091	0.0428
449.404	0.0434
449.718	0.0439
450.031	0.0429
450.345	0.0431
450.658	0.0432
450.971	0.043
451.284	0.0429
451.597	0.0431
451.91	0.0432
452.223	0.0428
452.535	0.0433
452.848	0.0424
453.161	0.0425
453.473	0.043
453.786	0.0431
454.098	0.0419
454.411	0.0421
454.723	0.0412
455.035	0.0418
455.347	0.042
455.659	0.0416
455.971	0.0417
456.283	0.0416
456.595	0.0413
456.907	0.0419
457.218	0.0416
457.53	0.0412
457.841	0.0404
458.153	0.0404
458.464	0.0404
458.776	0.0394
459.087	0.0402
459.398	0.0404
459.709	0.0397
460.02	0.0397
460.331	0.0392
460.642	0.0386
460.953	0.0389
461.263	0.0395
461.574	0.0388
461.885	0.0389
462.195	0.0386
462.506	0.0394
462.816	0.0378
463.126	0.0378
463.437	0.0377
463.747	0.0372
464.057	0.0369
464.367	0.0364
464.677	0.0365
464.987	0.0367
465.296	0.0365
465.606	0.0363
465.916	0.0358
466.225	0.0356
466.535	0.0362
466.844	0.0352
467.154	0.035
467.463	0.0349
467.772	0.0353
468.081	0.0341
468.39	0.0344
468.699	0.0339
469.008	0.0343
469.317	0.034
469.626	0.0345
469.935	0.0339
470.243	0.0333
470.552	0.0339
470.86	0.0337
471.169	0.0329
471.477	0.0333
471.785	0.0329
472.093	0.0327
472.402	0.0323
472.71	0.0321
473.018	0.0316
473.326	0.0313
473.633	0.0314
473.941	0.0305
474.249	0.0298
474.556	0.0303
474.864	0.0302
475.171	0.0291
475.479	0.0295
475.786	0.0308
476.094	0.0308
476.401	0.0297
476.708	0.0293
477.015	0.0296
477.322	0.0291
477.629	0.0285
477.936	0.0281
478.242	0.0282
478.549	0.0284
478.856	0.0278
479.162	0.028
479.469	0.0278
479.775	0.0286
480.081	0.0264
480.388	0.0275
480.694	0.0263
481	0.026
481.306	0.0264
481.612	0.0267
481.918	0.0251
482.224	0.0269
482.53	0.0253
482.835	0.0254
483.141	0.0244
483.446	0.0238
483.752	0.0245
484.057	0.0235
484.363	0.0236
484.668	0.0228
484.973	0.0234
485.278	0.023
485.583	0.0227
485.888	0.0224
486.193	0.0219
486.498	0.0228
486.803	0.0236
487.107	0.0228
487.412	0.0217
487.717	0.0214
488.021	0.0213
488.325	0.0212
488.63	0.0206
488.934	0.0207
489.238	0.0217
489.542	0.0213
489.846	0.0193
490.15	0.0213
490.454	0.02
490.758	0.0202
491.062	0.02
491.366	0.0188
491.669	0.0198
491.973	0.0196
492.276	0.0191
492.58	0.0173
492.883	0.0185
493.186	0.0187
493.489	0.0184
493.792	0.0185
494.096	0.0185
494.399	0.0178
494.701	0.0189
495.004	0.0171
495.307	0.0171
495.61	0.0169
495.912	0.0155
496.215	0.0158
496.517	0.0162
496.82	0.0159
497.122	0.0161
497.424	0.0152
497.727	0.0151
498.029	0.0157
498.331	0.016
498.633	0.0154
498.935	0.0149
499.237	0.0149
499.538	0.0144
499.84	0.0144
500.142	0.0145
500.443	0.0146
500.745	0.0136
501.046	0.0143
501.348	0.0133
501.649	0.0135
501.95	0.0128
502.251	0.0132
502.552	0.0126
502.853	0.0122
503.154	0.0126
503.455	0.0118
503.756	0.0125
504.057	0.0125
504.357	0.0124
504.658	0.0114
504.958	0.0114
505.259	0.0121
505.559	0.0122
505.859	0.0117
506.16	0.0116
506.46	0.0115
506.76	0.011
507.06	0.0112
507.36	0.0111
507.66	0.0118
507.96	0.0115
508.259	0.0107
508.559	0.01
508.859	0.0114
509.158	0.0103
509.457	0.0091
509.757	0.011
510.056	0.0098
510.355	0.0096
510.655	0.0084
510.954	0.0099
511.253	0.0098
511.552	0.0092
511.851	0.0083
512.149	0.0089
512.448	0.0083
512.747	0.0094
513.045	0.0074
513.344	0.0097
513.642	0.009
513.941	0.0086
514.239	0.0088
514.537	0.0083
514.836	0.008
515.134	0.0081
515.432	0.0084
515.73	0.0085
516.028	0.0071
516.326	0.0082
516.623	0.0077
516.921	0.0079
517.219	0.009
517.516	0.0079
517.814	0.0068
518.111	0.0073
518.409	0.0078
518.706	0.0078
519.003	0.0079
519.3	0.0064
519.597	0.0069
519.894	0.0075
520.191	0.008
520.488	0.0072
520.785	0.0061
521.082	0.0071
521.378	0.0071
521.675	0.0062
521.971	0.0061
522.268	0.0071
522.564	0.0066
522.861	0.0061
523.157	0.0046
523.453	0.0058
523.749	0.0064
524.045	0.0074
524.341	0.0062
524.637	0.0056
524.933	0.0051
525.229	0.0055
525.524	0.0054
525.82	0.0058
526.115	0.0048
526.411	0.0055
526.706	0.006
527.002	0.0053
527.297	0.0037
527.592	0.0063
527.887	0.0053
528.182	0.0054
528.477	0.007
528.772	0.0048
529.067	0.0059
529.362	0.0061
529.657	0.0047
529.951	0.0048
530.246	0.0047
530.54	0.0027
530.835	0.0045
531.129	0.004
531.423	0.0051
531.718	0.0036
532.012	0.0049
532.306	0.004
532.6	0.0039
532.894	0.0036
533.188	0.0044
533.482	0.0031
533.775	0.0048
534.069	0.0038
534.363	0.0029
534.656	0.0039
534.95	0.0036
535.243	0.0034
535.536	0.0036
535.83	0.0039
536.123	0.0029
536.416	0.0036
536.709	0.0036
537.002	0.0045
537.295	0.004
537.588	0.0038
537.881	0.0032
538.173	0.003
538.466	0.0032
538.759	0.0026
539.051	0.0031
539.344	0.0028
539.636	0.0034
539.928	0.0035
540.22	0.0032
540.513	0.0039
540.805	0.0035
541.097	0.0038
541.389	0.003
541.681	0.0023
541.972	0.0042
542.264	0.0027
542.556	0.0033
542.847	0.0041
543.139	0.0036
543.431	0.0044
543.722	0.0021
544.013	0.0052
544.305	0.0047
544.596	0.0045
544.887	0.0033
545.178	0.0036
545.469	0.0028
545.76	0.0026
546.051	0.0034
546.342	0.0046
546.632	0.0024
546.923	0.0032
547.214	0.0027
547.504	0.0029
547.795	0.0037
548.085	0.0036
548.375	0.0023
548.666	0.0036
548.956	0.0026
549.246	0.0034
549.536	0.0025
549.826	0.0032
550.116	0.0035
550.406	0.0037
550.695	0.0042
550.985	0.004
551.275	0.0036
551.564	0.0031
551.854	0.0034
552.143	0.0037
552.433	0.0031
552.722	0.0041
553.011	0.0035
553.3	0.0034
553.589	0.0048
553.879	0.0031
554.167	0.0045
554.456	0.0029
554.745	0.003
555.034	0.0035
555.323	0.0019
555.611	0.0027
555.9	0.0035
556.188	0.0032
556.477	0.0022
556.765	0.0024
557.053	0.0028
557.342	0.0019
557.63	0.0035
557.918	0.0031
558.206	0.0028
558.494	0.0041
558.782	0.0032
559.069	0.0029
559.357	0.0029
559.645	0.0019
559.932	0.0026
560.22	0.003
560.507	0.0031
560.795	0.0019
561.082	0.0022
561.37	0.0029
561.657	0.0039
561.944	0.0029
562.231	0.0028
562.518	0.0019
562.805	0.003
563.092	0.0039
563.379	0.0029
563.665	0.0031
563.952	0.0032
564.239	0.0041
564.525	0.0031
564.811	0.0042
565.098	0.0039
565.384	0.004
565.67	0.0034
565.957	0.0027
566.243	0.0035
566.529	0.0038
566.815	0.0041
567.101	0.0021
567.387	0.0029
567.672	0.0037
567.958	0.0033
568.244	0.0031
568.529	0.0031
568.815	0.0022
569.1	0.0038
569.386	0.003
569.671	0.0034
569.956	0.0029
570.242	0.0028
570.527	0.0034
570.812	0.0036
571.097	0.0034
571.382	0.0027
571.666	0.0032
571.951	0.0034
572.236	0.0033
572.521	0.0034
572.805	0.004
573.09	0.0032
573.374	0.0029
573.659	0.0022
573.943	0.0035
574.227	0.0029
574.511	0.0037
574.795	0.0029
575.079	0.0034
575.363	0.0029
575.647	0.0043
575.931	0.0037
576.215	0.0028
576.499	0.0033
576.782	0.0033
577.066	0.0028
577.349	0.003
577.633	0.0029
577.916	0.003
578.2	0.0044
578.483	0.0041
578.766	0.0033
579.049	0.004
579.332	0.0033
579.615	0.0031
579.898	0.0034
580.181	0.0037
580.464	0.0021
580.746	0.0017
581.029	0.0026
581.312	0.0022
581.594	0.0026
581.877	0.0033
582.159	0.0038
582.441	0.0035
582.724	0.0032
583.006	0.0027
583.288	0.0023
583.57	0.0024
583.852	0.0019
584.134	0.002
584.416	0.0028
584.697	0.0027
584.979	0.0027
585.261	0.0027
585.542	0.0033
585.824	0.0033
586.105	0.0038
586.387	0.0024
586.668	0.0025
586.949	0.0026
587.231	0.0024
587.512	0.0034
587.793	0.0027
588.074	0.0032
588.355	0.0033
588.636	0.0029
588.916	0.0032
589.197	0.0032
589.478	0.0031
589.758	0.0032
590.039	0.0031
590.319	0.0034
590.6	0.0027
590.88	0.0021
591.16	0.0031
591.441	0.0031
591.721	0.0027
592.001	0.0023
592.281	0.0034
592.561	0.0025
592.841	0.0023
593.12	0.0026
593.4	0.0027
593.68	0.0032
593.959	0.003
594.239	0.004
594.518	0.0024
594.798	0.0025
595.077	0.003
595.356	0.0026
595.636	0.0027
595.915	0.0032
596.194	0.003
596.473	0.003
596.752	0.0022
597.031	0.0016
597.31	0.0016
597.588	0.0015
597.867	0.0023
598.146	0.0021
598.424	0.0025
598.703	0.0021
598.981	0.0022
599.259	0.0032
599.538	0.0038
599.816	0.0035
600.094	0.003
600.372	0.0031
600.65	0.0035
600.928	0.003
601.206	0.0033
601.484	0.0037
601.762	0.0028
602.04	0.0018
602.317	0.003
602.595	0.0026
602.872	0.0029
603.15	0.0024
603.427	0.0018
603.704	0.0019
603.982	0.0024
604.259	0.0019
604.536	0.002
604.813	0.0016
605.09	0.0016
605.367	0.0016
605.644	0.0023
605.921	0.003
606.197	0.0027
606.474	0.0033
606.751	0.0026
607.027	0.0021
607.304	0.0018
607.58	0.002
607.856	0.0023
608.133	0.0033
608.409	0.0024
608.685	0.0021
608.961	0.0032
609.237	0.0028
609.513	0.0024
609.789	0.0026
610.065	0.0018
610.341	0.0021
610.616	0.0031
610.892	0.0033
611.167	0.0033
611.443	0.0026
611.718	0.0025
611.994	0.002
612.269	0.0037
612.544	0.003
612.819	0.0026
613.095	0.0032
613.37	0.0036
613.645	0.0025
613.919	0.0022
614.194	0.0027
614.469	0.0015
614.744	0.0011
615.019	0.0016
615.293	0.0012
615.568	0.0009
615.842	0.0015
616.116	0.0012
616.391	0.0005
616.665	0.0016
616.939	0.0021
617.213	0.0013
617.488	0.0014
617.762	0.0018
618.035	0.0012
618.309	0.001
618.583	0.0021
618.857	0.0018
619.131	0.0021
619.404	0.0008
619.678	0.0017
619.951	-0
620.225	0.0011
620.498	0.0017
620.771	0.0019
621.045	0.0023
621.318	0.002
621.591	0.0017
621.864	0.0008
622.137	0.0005
622.41	0.0019
622.683	0.0011
622.956	0.0025
623.228	0.0017
623.501	0.0019
623.774	0.0029
624.046	0.0013
624.319	0.0015
624.591	0.0002
624.863	0.0014
625.136	0.002
625.408	0.0013
625.68	0.0008
625.952	0.0015
626.224	0.0008
626.496	0.0008
626.768	-0.0001
627.04	0.0001
627.311	0.0011
627.583	0.0012
627.855	0.002
628.126	0.0014
628.398	0.0012
628.669	0.0014
628.941	0.0008
629.212	0.0001
629.483	0.0004
629.755	0.0006
630.026	-0.0006
630.297	-0.0014
630.568	-0.0005
630.839	-0.0013
631.11	-0.0014
631.38	-0.0006
631.651	-0.0003
631.922	-0.0005
632.192	-0.0009
632.463	-0.0001
632.733	-0.0003
633.004	-0.0005
633.274	-0.0006
633.545	0.001
633.815	0.0028
634.085	0.0023
634.355	0.0021
634.625	0.0035
634.895	0.0021
635.165	0.001
635.435	0.0015
635.705	0.0016
635.974	-0
636.244	0.0005
636.514	0.0007
636.783	0.0012
637.053	0.0022
637.322	0.001
637.591	0.0018
637.861	0.0015
638.13	0.002
638.399	0.0016
638.668	0.0019
638.937	0.0007
639.206	0.0015
639.475	0.001
639.744	0.0007
640.013	0.0009
640.281	0.0024
640.55	0.0022
640.819	0.0016
641.087	0.0026
641.356	0.0012
641.624	0.0007
641.892	0.0012
642.161	0.0007
642.429	0.0024
642.697	0.0011
642.965	0.0019
643.233	0.0019
643.501	0.0008
643.769	0.0012
644.037	0.0007
644.305	0.001
644.572	-0.0007
644.84	0.0001
645.108	-0.0004
645.375	-0.0008
645.643	-0.0001
645.91	0.0003
646.177	0.0019
646.445	0.0026
646.712	0.0029
646.979	0.0042
647.246	0.0038
647.513	0.0039
647.78	0.0027
648.047	0.0035
648.314	0.0023
648.58	0.0026
648.847	0.0018
649.114	-0
649.38	0
649.647	0.0001
649.913	0.0002
650.18	0.0004
650.446	0.0003
650.712	0.0011
650.978	0.0011
651.245	0.0021
651.511	0.0022
651.777	0.0021
652.043	0.0013
652.309	0.0014
652.574	0.0025
652.84	0.0019
653.106	0.001
653.371	0.0008
653.637	0.0023
653.903	0.002
654.168	0.0023
654.433	0.0025
654.699	0.0022
654.964	0.0024
655.229	0.0016
655.494	0.0018
655.759	-0.001
656.024	0.0005
656.289	-0
656.554	0.002
656.819	0.0008
657.084	0.002
657.349	0.0031
657.613	0.0029
657.878	0.0027
658.142	0.0031
658.407	0.0024
658.671	0.0021
658.936	0.0018
659.2	0.001
659.464	0.0011
659.728	0.0001
659.992	0.0019
660.256	-0.0006
660.52	-0.0005
660.784	-0.0007
661.048	-0.0001
661.312	-0.0017
661.575	-0.0013
661.839	-0.0022
662.103	-0.0023
662.366	-0.0024
662.63	-0.0013
662.893	-0.0014
663.156	-0.0009
663.42	-0.0006
663.683	0.0007
663.946	0.001
664.209	0.002
664.472	0.0023
664.735	0.0024
664.998	0.0019
665.261	0.0014
665.524	0.0005
665.786	0.0003
666.049	0.0001
666.312	-0.0004
666.574	0.0008
666.837	-0
667.099	-0.0004
667.361	-0.0009
667.624	-0.0008
667.886	-0.0008
668.148	0.0001
668.41	0.0012
668.672	-0.0006
668.934	-0.0003
669.196	0.0003
669.458	0.001
669.72	0.001
669.982	0.0012
670.243	0.001
670.505	0.0018
670.766	0.0011
671.028	0.0017
671.289	0.0011
671.551	0.0006
671.812	-0.0003
672.073	0.001
672.334	0.0005
672.596	0.0012
672.857	-0.0001
673.118	-0.0002
673.379	-0.0004
673.639	-0.0014
673.9	-0.0007
674.161	-0.0019
674.422	-0.003
674.682	-0.0027
674.943	-0.0022
675.203	-0.001
675.464	-0.0012
675.724	0.0001
675.985	0.0004
676.245	0.0002
676.505	0.0009
676.765	0.0003
677.025	0.0004
677.285	-0
677.545	0.0015
677.805	0.0008
678.065	0.0023
678.325	0.0017
678.585	0.0003
678.844	0.0016
679.104	0.0005
679.363	0.001
679.623	0.0019
679.882	0.0029
680.142	0.0028
680.401	0.0022
680.66	0.0034
680.919	0.003
681.178	0.0035
681.437	0.0021
681.696	0.0024
681.955	0.0024
682.214	0.0031
682.473	0.0034
682.732	0.0017
682.99	0.0014
683.249	0.0012
683.508	0.002
683.766	0.0017
684.024	0.002
684.283	0.0028
684.541	0.0024
684.799	0.0032
685.058	0.0022
685.316	0.0017
685.574	0.0025
685.832	0.0032
686.09	0.0024
686.348	0.0028
686.606	0.0027
686.863	0.0024
687.121	0.0026
687.379	0.0017
687.636	0.0028
687.894	0.003
688.151	0.003
688.409	0.0028
688.666	0.0024
688.923	0.0028
689.181	0.0025
689.438	0.0006
689.695	0.0008
689.952	0.0006
690.209	0.0003
690.466	0.0013
690.723	0.0027
690.979	0.0019
691.236	0.0004
691.493	0.0013
691.75	0.0024
692.006	0.0023
692.263	0.0016
692.519	0.0018
692.775	0.0006
693.032	-0.0005
693.288	0
693.544	0.0022
693.8	0.0013
694.056	0.0018
694.313	0.0023
694.568	0.0015
694.824	0.0022
695.08	0.0023
695.336	0.0027
695.592	0.0015
695.847	0.0023
696.103	0.0018
696.359	0.0018
696.614	0.0021
696.869	0.0014
697.125	0.001
697.38	0.0011
697.635	-0.0004
697.891	0.0005
698.146	0.0007
698.401	0.0012
698.656	0.0007
698.911	0.0022
699.166	0.0013
699.42	0.0012
699.675	0.0011
699.93	0.0007
700.185	0.0011
700.439	0.0016
700.694	0.0011
700.948	0.0017
701.203	0.0016
701.457	0.0014
701.711	0.0013
701.965	-0.0006
702.22	-0.0005
702.474	-0.0005
702.728	-0.0013
702.982	-0.0012
703.236	-0.0005
703.49	-0.0011
703.743	-0.0011
703.997	-0.0007
704.251	-0.0004
704.504	-0.0001
704.758	-0.0009
705.012	-0.0002
705.265	-0.0001
705.518	-0.0011
705.772	-0.0014
706.025	-0.001
706.278	-0.0019
706.531	-0.0023
706.785	-0.0026
707.038	-0.0008
707.291	-0.0008
707.543	-0.0003
707.796	0.0004
708.049	-0.0005
708.302	-0.0013
708.555	0.0002
708.807	-0.0006
709.06	-0.0012
709.312	-0.0028
709.565	-0.0021
709.817	-0.0031
710.069	-0.0016
710.322	-0.0014
710.574	-0.0015
710.826	-0.0012
711.078	0.0004
711.33	0.0001
711.582	-0.0001
711.834	0.001
712.086	0.0007
712.338	0.002
712.59	0.0021
712.841	0.0014
713.093	0.0017
713.344	0.0012
713.596	0.0008
713.847	0.0023
714.099	0.002
714.35	0.0022
714.601	0.0029
714.853	0.0039
715.104	0.0033
715.355	0.0019
715.606	0.0024
715.857	0.0023
716.108	0.0025
716.359	0.0025
716.609	0.0029
716.86	0.0019
717.111	0.0009
717.361	-0
717.612	0.0004
717.863	-0.0002
718.113	-0.0003
718.363	0.0004
718.614	0.0009
718.864	0.0005
719.114	-0.0002
719.364	-0.0004
719.614	-0.0014
719.865	-0.0013
720.114	-0.0008
720.364	-0.0006
720.614	0.0007
720.864	0.001
721.114	0.0015
721.364	0.0023
721.613	0.0022
721.863	0.0035
722.112	0.0028
722.362	0.0025
722.611	0.0031
722.86	0.0017
723.11	-0.0003
723.359	0.0007
723.608	0.002
723.857	0.0024
724.106	0.0033
724.355	0.0038
724.604	0.0037
724.853	0.0027
725.102	0.0025
725.351	0.0021
725.599	0.0017
725.848	0.0024
726.097	0.0006
726.345	0.001
726.594	0.0009
726.842	-0.0005
727.09	-0.0005
727.339	-0.0002
727.587	-0.0006
727.835	-0.0019
728.083	-0.0012
728.331	-0.0018
728.579	-0.0021
728.827	-0.0006
729.075	0.0004
729.323	0.0011
729.571	0.0012
729.818	0.001
730.066	0.0017
730.314	0.0017
730.561	0.0002
730.809	-0.0003
731.056	-0.0004
731.303	-0.0005
731.551	0.0003
731.798	-0.0002
732.045	0.0003
732.292	0.0001
732.539	-0.0005
732.786	0.0003
733.033	0.0015
733.28	0.0017
733.527	0.0035
733.774	0.0014
734.021	0.0033
734.267	0.0035
734.514	0.003
734.76	0.0035
735.007	0.0047
735.253	0.0042
735.5	0.0038
735.746	0.0047
735.992	0.0039
736.238	0.0035
736.485	0.0055
736.731	0.0038
736.977	0.0033
737.223	0.0032
737.469	0.0045
737.715	0.0045
737.96	0.0049
738.206	0.005
738.452	0.0065
738.697	0.0069
738.943	0.0067
739.189	0.0046
739.434	0.0032
739.679	0.0032
739.925	0.0026
740.17	0.0017
740.415	0.0021
740.66	0.0021
740.906	0.0024
741.151	0.0024
741.396	0.0017
741.641	0.004
741.886	0.0045
742.13	0.0046
742.375	0.0047
742.62	0.0054
742.865	0.0041
743.109	0.0041
743.354	0.004
743.598	0.0027
743.843	0.0035
744.087	0.0038
744.331	0.0043
744.576	0.0038
744.82	0.0047
745.064	0.0033
745.308	0.0025
745.552	0.0024
745.796	0.0022
746.04	0.0023
746.284	0.0016
746.528	-0.0004
746.771	0.0007
747.015	-0.0002
747.259	0.0002
747.502	0.0003
747.746	0.0011
747.989	0.0003
748.233	0.0017
748.476	0.0019
748.719	0.0029
748.963	0.0033
749.206	0.0026
749.449	0.0032
749.692	0.003
749.935	0.0035
750.178	0.0029
750.421	0.003
750.664	0.0033
750.906	0.0026
751.149	0.0015
751.392	0.0008
751.635	-0.001
751.877	-0.0009
752.12	-0.0013
752.362	-0.0007
752.604	-0.0016
752.847	-0.0004
753.089	-0
753.331	0.0002
753.573	0.0006
753.816	0.0026
754.058	0.0029
754.3	0.0027
754.542	0.0033
754.783	0.0024
755.025	0.0021
755.267	0.0003
755.509	0.0012
755.75	0.001
755.992	0.0024
756.234	0.0011
756.475	-0.0005
756.716	-0.0003
756.958	0
757.199	0
757.44	0.0009
757.682	0.0008
757.923	0.0002
758.164	-0.0001
758.405	-0.0002
758.646	-0.0003
758.887	-0.0001
759.128	0
759.369	0.0001
759.609	-0.0005
759.85	-0.0003
760.091	0.0007
760.331	-0.0001
760.572	-0.0005
760.812	-0.0001
761.053	0.0003
761.293	0.0008
761.533	0.0011
761.774	0.0009
762.014	0.0014
762.254	0.0009
762.494	0.0005
762.734	-0.0002
762.974	0.0001
763.214	-0.0007
763.454	-0.0011
763.694	-0.0013
763.933	-0.0019
764.173	-0.001
764.413	-0.0012
764.652	0.0004
764.892	0.001
765.131	0.0009
765.371	0.0005
765.61	0.0009
765.849	-0.0004
766.089	0.0003
766.328	0.0008
766.567	0.0007
766.806	0.0013
767.045	0.0019
767.284	0.0022
767.523	0.0028
767.762	0.0032
768.001	0.0022
768.239	0.0016
768.478	0.0013
768.717	0.0021
768.955	0.0025
769.194	0.0018
769.432	0.0022
769.671	0.0028
769.909	0.0023
770.148	0.0025
770.386	0.0029
770.624	0.002
770.862	0.0024
771.1	0.0018
771.338	0.0017
771.576	0.0014
771.814	0.0019
772.052	0.0016
772.29	0.0023
772.528	0.0026
772.765	0.0019
773.003	0.0033
773.24	0.0025
773.478	0.0018
773.716	0.0023
773.953	0.0019
774.19	0.0021
774.428	0.0016
774.665	0.0025
774.902	0.0024
775.139	0.0019
775.376	0.0017
775.613	0.0011
775.85	0.0022
776.087	0.0014
776.324	0.0021
776.561	0.003
776.798	0.0032
777.034	0.004
777.271	0.0056
777.508	0.0056
777.744	0.0048
777.981	0.0043
778.217	0.004
778.454	0.0043
778.69	0.0041
778.926	0.0042
779.162	0.0033
779.399	0.0033
779.635	0.0035
779.871	0.0024
780.107	0.0041
780.343	0.0048
780.579	0.0045
780.814	0.0045
781.05	0.0039
781.286	0.0044
781.522	0.0039
781.757	0.0056
781.993	0.0052
782.228	0.0054
782.464	0.0051
782.699	0.0043
782.934	0.0037
783.17	0.0042
783.405	0.0034
783.64	0.0028
783.875	0.0027
784.11	0.0034
784.345	0.0045
784.58	0.0038
784.815	0.0037
785.05	0.0045
785.285	0.0026
785.52	0.0016
785.754	0.0027
785.989	0.002
786.223	0.0016
786.458	0.0023
786.692	0.0026
786.927	0.0019
787.161	0.0019
787.396	0.001
787.63	0.0008
787.864	0.001
788.098	0.0007
788.332	0.0012
788.566	0.0011
788.8	0.0002
789.034	0.0011
789.268	0.0016
789.502	0.0016
789.736	0.0022
789.969	0.0023
790.203	0.0026
790.437	0.0016
790.67	0.0011
790.904	0.0022
791.137	0.0005
791.37	0.0002
791.604	-0
791.837	0.0005
792.07	0.0004
792.303	0.0004
792.537	0.0005
792.77	0.0005
793.003	0.0001
793.236	-0.0009
793.469	-0.0006
793.701	0.0005
793.934	0.0001
794.167	0.0002
794.4	0.0006
794.632	0.0011
794.865	0.0005
795.097	0.0009
795.33	0.0017
795.562	0.0012
795.795	0.0022
796.027	0.0018
796.259	0.0019
796.491	0.0015
796.724	0.0007
796.956	0.0013
797.188	0.0013
797.42	0.0008
797.652	0.0006
797.883	0.0002
798.115	0.0004
798.347	0.0002
798.579	-0.0013
798.81	-0.0019
799.042	-0.0015
799.274	-0.0017
799.505	-0.001
799.737	-0.0021
799.968	-0.0011
800.199	-0.001
800.431	-0.0014
800.662	-0.0014
800.893	-0.0008
801.124	-0.0011
801.355	-0.0004
801.586	-0.0002
801.817	-0.0001
802.048	-0.0007
802.279	-0.0007
802.51	-0.0007
802.741	-0.0015
802.971	-0.0015
803.202	-0.0024
803.433	-0.0017
803.663	-0.0011
803.894	-0.0003
804.124	0
804.354	0.0004
804.585	-0.0004
804.815	-0.0003
805.045	-0.0001
805.275	-0.0003
805.506	-0.0248
805.736	0.1033
805.966	-0.0624
806.196	0.1098
