Data from 03 0.2 mM BQDS 0.4 mM K2Cr2O7 1 M H2SO4 5 min_Absorbance_08-52-42-440.txt Node
Date: Wed Dec 08 08:52:42 EST 2021
User: kwabilab-user
Spectrometer: HDX00518
Trigger mode: 0
Integration Time (sec): 5.000000E-2
Scans to average: 50
Nonlinearity correction enabled: false
Boxcar width: 0
Storing dark spectrum: false
XAxis mode: Wavelengths
Number of Pixels in Spectrum: 2068
>>>>>Begin Spectral Data<<<<<
195.27	-0.0012
195.642	0.0552
196.014	0.0171
196.386	-0.0043
196.758	-0.0467
197.129	-0.0185
197.501	0.0194
197.872	0.0696
198.244	0.0865
198.615	0.0934
198.986	0.0937
199.357	0.0658
199.728	0.0876
200.099	0.0781
200.47	0.089
200.841	0.0971
201.212	0.0969
201.582	0.0762
201.953	0.0843
202.323	0.0836
202.694	0.0671
203.064	0.0783
203.434	0.0731
203.804	0.0972
204.174	0.0789
204.544	0.0714
204.914	0.0728
205.284	0.0811
205.653	0.0819
206.023	0.0874
206.393	0.0816
206.762	0.088
207.131	0.0836
207.501	0.094
207.87	0.091
208.239	0.0882
208.608	0.09
208.977	0.0984
209.346	0.0986
209.715	0.0875
210.083	0.1138
210.452	0.0937
210.82	0.1015
211.189	0.1104
211.557	0.0974
211.925	0.1196
212.294	0.1293
212.662	0.134
213.03	0.115
213.398	0.1216
213.766	0.1461
214.133	0.1698
214.501	0.173
214.869	0.1698
215.236	0.1877
215.604	0.1995
215.971	0.2072
216.338	0.2244
216.705	0.253
217.072	0.2577
217.439	0.2857
217.806	0.321
218.173	0.3349
218.54	0.3613
218.907	0.4052
219.273	0.4347
219.64	0.4785
220.006	0.5106
220.373	0.5438
220.739	0.5908
221.105	0.6235
221.471	0.6532
221.837	0.6977
222.203	0.7299
222.569	0.7599
222.935	0.7971
223.3	0.8126
223.666	0.8614
224.031	0.8745
224.397	0.8945
224.762	0.9068
225.127	0.9307
225.493	0.9519
225.858	0.9541
226.223	0.9759
226.588	0.9716
226.952	0.9788
227.317	0.987
227.682	0.9824
228.046	0.9827
228.411	0.9865
228.775	0.9808
229.14	0.9821
229.504	0.9747
229.868	0.9729
230.232	0.9665
230.596	0.9604
230.96	0.9539
231.324	0.9436
231.688	0.9389
232.052	0.9279
232.415	0.919
232.779	0.9156
233.142	0.9098
233.505	0.8957
233.869	0.8874
234.232	0.8813
234.595	0.8681
234.958	0.86
235.321	0.8494
235.684	0.8412
236.047	0.8292
236.409	0.8233
236.772	0.8123
237.134	0.8072
237.497	0.7939
237.859	0.7881
238.222	0.7806
238.584	0.773
238.946	0.7628
239.308	0.755
239.67	0.7466
240.032	0.7413
240.393	0.7325
240.755	0.7269
241.117	0.7205
241.478	0.7134
241.84	0.7079
242.201	0.6979
242.562	0.695
242.924	0.6857
243.285	0.6815
243.646	0.6742
244.007	0.6742
244.368	0.6695
244.728	0.6619
245.089	0.6588
245.45	0.6546
245.81	0.6514
246.171	0.6466
246.531	0.64
246.891	0.6368
247.252	0.6324
247.612	0.6284
247.972	0.6276
248.332	0.6242
248.692	0.6202
249.051	0.6175
249.411	0.6192
249.771	0.6142
250.13	0.6102
250.49	0.6093
250.849	0.6054
251.208	0.6032
251.568	0.6014
251.927	0.6006
252.286	0.5982
252.645	0.595
253.004	0.5928
253.363	0.5908
253.721	0.5925
254.08	0.5871
254.439	0.5871
254.797	0.5848
255.155	0.583
255.514	0.5829
255.872	0.58
256.23	0.5786
256.588	0.5768
256.946	0.5745
257.304	0.575
257.662	0.5729
258.02	0.5721
258.377	0.5702
258.735	0.5689
259.093	0.5684
259.45	0.5678
259.807	0.5655
260.165	0.5643
260.522	0.5636
260.879	0.5595
261.236	0.559
261.593	0.557
261.95	0.5533
262.306	0.5531
262.663	0.5516
263.02	0.5504
263.376	0.5482
263.733	0.5461
264.089	0.5443
264.445	0.5443
264.802	0.5403
265.158	0.5377
265.514	0.5372
265.87	0.5346
266.226	0.5328
266.581	0.5297
266.937	0.5278
267.293	0.5262
267.648	0.524
268.004	0.5226
268.359	0.5197
268.714	0.5168
269.07	0.5146
269.425	0.5128
269.78	0.5104
270.135	0.5065
270.49	0.5044
270.844	0.5023
271.199	0.4994
271.554	0.4962
271.908	0.4924
272.263	0.4901
272.617	0.4891
272.972	0.4858
273.326	0.4824
273.68	0.4794
274.034	0.4762
274.388	0.4722
274.742	0.4692
275.096	0.4662
275.45	0.4637
275.803	0.4608
276.157	0.4558
276.51	0.4544
276.864	0.4498
277.217	0.4478
277.571	0.4429
277.924	0.4387
278.277	0.4355
278.63	0.4326
278.983	0.4283
279.336	0.4247
279.688	0.4216
280.041	0.4174
280.394	0.4138
280.746	0.41
281.099	0.4067
281.451	0.4016
281.803	0.3983
282.156	0.3949
282.508	0.3919
282.86	0.3867
283.212	0.3842
283.564	0.38
283.916	0.376
284.267	0.3722
284.619	0.3697
284.971	0.3651
285.322	0.3615
285.673	0.3574
286.025	0.3555
286.376	0.3503
286.727	0.3458
287.078	0.3424
287.429	0.339
287.78	0.3339
288.131	0.3308
288.482	0.3259
288.833	0.3231
289.183	0.3187
289.534	0.3159
289.884	0.312
290.235	0.3084
290.585	0.3038
290.935	0.3007
291.285	0.2965
291.635	0.2933
291.985	0.2888
292.335	0.2851
292.685	0.2823
293.035	0.2783
293.384	0.2736
293.734	0.2711
294.083	0.2664
294.433	0.2631
294.782	0.2602
295.131	0.2566
295.48	0.2534
295.829	0.2503
296.179	0.2457
296.527	0.243
296.876	0.2401
297.225	0.2371
297.574	0.233
297.922	0.231
298.271	0.2278
298.619	0.2241
298.968	0.2227
299.316	0.2185
299.664	0.2154
300.012	0.2127
300.36	0.2095
300.708	0.2075
301.056	0.2049
301.404	0.2025
301.752	0.1996
302.099	0.1971
302.447	0.1955
302.794	0.1928
303.142	0.1908
303.489	0.1883
303.836	0.1858
304.183	0.1846
304.531	0.1821
304.878	0.1808
305.224	0.1786
305.571	0.1776
305.918	0.1754
306.265	0.1738
306.611	0.1724
306.958	0.1714
307.304	0.1698
307.651	0.1682
307.997	0.1672
308.343	0.1658
308.689	0.1651
309.035	0.1644
309.381	0.1636
309.727	0.1618
310.073	0.162
310.419	0.1609
310.764	0.1604
311.11	0.1593
311.455	0.1592
311.801	0.1578
312.146	0.1579
312.491	0.1572
312.837	0.1565
313.182	0.1573
313.527	0.1563
313.872	0.1565
314.216	0.1565
314.561	0.1559
314.906	0.1564
315.251	0.1559
315.595	0.1554
315.94	0.1563
316.284	0.1566
316.628	0.1559
316.972	0.1562
317.317	0.1563
317.661	0.157
318.005	0.1578
318.348	0.1577
318.692	0.1581
319.036	0.1582
319.38	0.1585
319.723	0.1594
320.067	0.1594
320.41	0.1607
320.754	0.1611
321.097	0.1621
321.44	0.1628
321.783	0.1632
322.126	0.1639
322.469	0.1649
322.812	0.1661
323.155	0.1669
323.498	0.1682
323.84	0.1693
324.183	0.17
324.525	0.1707
324.868	0.172
325.21	0.1737
325.552	0.1738
325.894	0.1748
326.236	0.1761
326.578	0.1776
326.92	0.1784
327.262	0.1791
327.604	0.1809
327.946	0.1814
328.287	0.1826
328.629	0.1839
328.97	0.185
329.312	0.1868
329.653	0.187
329.994	0.1884
330.335	0.1904
330.676	0.191
331.017	0.1922
331.358	0.1935
331.699	0.1954
332.04	0.196
332.38	0.197
332.721	0.1992
333.061	0.2001
333.402	0.2009
333.742	0.2025
334.083	0.2043
334.423	0.2052
334.763	0.2057
335.103	0.2068
335.443	0.2079
335.783	0.2095
336.123	0.2102
336.462	0.2102
336.802	0.2121
337.141	0.2125
337.481	0.2136
337.82	0.2141
338.16	0.2158
338.499	0.2169
338.838	0.2177
339.177	0.2189
339.516	0.2195
339.855	0.2207
340.194	0.2217
340.533	0.2227
340.872	0.2229
341.21	0.2246
341.549	0.2253
341.887	0.2252
342.226	0.2258
342.564	0.2255
342.902	0.2263
343.24	0.2271
343.578	0.2267
343.916	0.2279
344.254	0.2273
344.592	0.2282
344.93	0.2286
345.268	0.2287
345.605	0.2282
345.943	0.228
346.28	0.229
346.618	0.2285
346.955	0.2291
347.292	0.2289
347.629	0.2301
347.966	0.2301
348.303	0.2299
348.64	0.2301
348.977	0.2293
349.314	0.2296
349.65	0.2295
349.987	0.2296
350.324	0.2282
350.66	0.2285
350.996	0.2291
351.333	0.2276
351.669	0.227
352.005	0.2264
352.341	0.2259
352.677	0.2247
353.013	0.2242
353.349	0.223
353.685	0.2228
354.02	0.2215
354.356	0.2207
354.691	0.2197
355.027	0.2184
355.362	0.2173
355.697	0.2169
356.033	0.2152
356.368	0.2149
356.703	0.2142
357.038	0.2135
357.373	0.2128
357.707	0.2115
358.042	0.2104
358.377	0.2101
358.711	0.2086
359.046	0.208
359.38	0.2067
359.715	0.2055
360.049	0.2048
360.383	0.2035
360.717	0.2026
361.051	0.2007
361.385	0.1991
361.719	0.1978
362.053	0.1971
362.387	0.1944
362.72	0.1931
363.054	0.191
363.387	0.1902
363.721	0.1882
364.054	0.1857
364.387	0.184
364.721	0.1833
365.054	0.1812
365.387	0.18
365.72	0.1779
366.053	0.1766
366.385	0.1749
366.718	0.1744
367.051	0.1725
367.383	0.1705
367.716	0.1694
368.048	0.169
368.381	0.1679
368.713	0.1659
369.045	0.1652
369.377	0.163
369.709	0.1616
370.041	0.1605
370.373	0.1596
370.705	0.1575
371.037	0.1561
371.368	0.1547
371.7	0.1532
372.031	0.1518
372.363	0.1496
372.694	0.1488
373.025	0.1463
373.356	0.1445
373.688	0.1425
374.019	0.1403
374.35	0.1388
374.68	0.137
375.011	0.135
375.342	0.1332
375.673	0.1316
376.003	0.1298
376.334	0.1282
376.664	0.1258
376.995	0.1244
377.325	0.1238
377.655	0.1228
377.985	0.1204
378.315	0.1199
378.645	0.118
378.975	0.1168
379.305	0.116
379.635	0.1151
379.964	0.1133
380.294	0.1119
380.623	0.1108
380.953	0.1096
381.282	0.1083
381.611	0.1074
381.941	0.1058
382.27	0.1042
382.599	0.1023
382.928	0.1014
383.257	0.1005
383.585	0.0994
383.914	0.0979
384.243	0.0968
384.571	0.0946
384.9	0.093
385.228	0.0916
385.557	0.0899
385.885	0.0894
386.213	0.0874
386.541	0.0861
386.869	0.084
387.197	0.0826
387.525	0.0811
387.853	0.0799
388.181	0.0784
388.508	0.0776
388.836	0.0767
389.164	0.0752
389.491	0.0746
389.818	0.0731
390.146	0.0716
390.473	0.0701
390.8	0.0694
391.127	0.0683
391.454	0.0677
391.781	0.0672
392.108	0.0662
392.435	0.0646
392.761	0.0635
393.088	0.0631
393.415	0.063
393.741	0.0624
394.067	0.061
394.394	0.0604
394.72	0.0597
395.046	0.0587
395.372	0.0578
395.698	0.0568
396.024	0.0562
396.35	0.0551
396.676	0.0547
397.001	0.0539
397.327	0.0526
397.653	0.0521
397.978	0.0513
398.303	0.0506
398.629	0.0493
398.954	0.0492
399.279	0.0485
399.604	0.0479
399.929	0.0469
400.254	0.0468
400.579	0.0468
400.904	0.0459
401.229	0.0445
401.553	0.0437
401.878	0.0441
402.202	0.0432
402.527	0.0429
402.851	0.0431
403.175	0.0421
403.5	0.0419
403.824	0.0424
404.148	0.0414
404.472	0.0414
404.796	0.0405
405.119	0.0401
405.443	0.0396
405.767	0.0393
406.09	0.0393
406.414	0.0391
406.737	0.0392
407.061	0.0391
407.384	0.0393
407.707	0.0384
408.03	0.0389
408.353	0.0387
408.676	0.0385
408.999	0.0381
409.322	0.0383
409.645	0.0388
409.968	0.0373
410.29	0.0383
410.613	0.0377
410.935	0.0375
411.258	0.0383
411.58	0.0377
411.902	0.0374
412.224	0.038
412.546	0.0373
412.868	0.0372
413.19	0.0377
413.512	0.0377
413.834	0.0377
414.156	0.0377
414.477	0.0371
414.799	0.0376
415.121	0.0379
415.442	0.0375
415.763	0.0378
416.085	0.0378
416.406	0.0381
416.727	0.0379
417.048	0.0375
417.369	0.0372
417.69	0.037
418.011	0.0377
418.331	0.038
418.652	0.0374
418.973	0.0381
419.293	0.0372
419.614	0.038
419.934	0.0379
420.254	0.0383
420.574	0.0381
420.895	0.0376
421.215	0.0374
421.535	0.0375
421.855	0.0376
422.174	0.0376
422.494	0.0378
422.814	0.0388
423.134	0.0377
423.453	0.0381
423.773	0.0379
424.092	0.0383
424.411	0.0379
424.731	0.038
425.05	0.0384
425.369	0.039
425.688	0.0386
426.007	0.039
426.326	0.0395
426.644	0.0401
426.963	0.0392
427.282	0.0387
427.6	0.039
427.919	0.0389
428.237	0.0395
428.556	0.0397
428.874	0.039
429.192	0.0394
429.51	0.0395
429.828	0.0397
430.146	0.0395
430.464	0.0397
430.782	0.0393
431.1	0.0396
431.418	0.0399
431.735	0.0394
432.053	0.0397
432.37	0.0402
432.688	0.0401
433.005	0.0398
433.322	0.0404
433.639	0.0399
433.957	0.0401
434.274	0.0401
434.591	0.0403
434.907	0.0399
435.224	0.0398
435.541	0.041
435.858	0.0415
436.174	0.0404
436.491	0.0401
436.807	0.0402
437.124	0.0399
437.44	0.0396
437.756	0.0394
438.072	0.0394
438.388	0.0405
438.704	0.0397
439.02	0.04
439.336	0.0396
439.652	0.0396
439.968	0.0399
440.283	0.0393
440.599	0.04
440.914	0.0403
441.23	0.0394
441.545	0.0399
441.86	0.0394
442.175	0.0398
442.491	0.0399
442.806	0.0392
443.121	0.0396
443.435	0.0393
443.75	0.0392
444.065	0.0396
444.38	0.0403
444.694	0.0398
445.009	0.0398
445.323	0.0396
445.638	0.0395
445.952	0.0395
446.266	0.0388
446.58	0.0398
446.894	0.0397
447.208	0.0403
447.522	0.0392
447.836	0.0379
448.15	0.0389
448.464	0.039
448.777	0.0383
449.091	0.0382
449.404	0.039
449.718	0.0396
450.031	0.0381
450.345	0.0382
450.658	0.0381
450.971	0.0379
451.284	0.038
451.597	0.0383
451.91	0.0388
452.223	0.0378
452.535	0.0384
452.848	0.0379
453.161	0.0379
453.473	0.0383
453.786	0.0375
454.098	0.0374
454.411	0.0371
454.723	0.0369
455.035	0.0366
455.347	0.0379
455.659	0.0382
455.971	0.0371
456.283	0.0377
456.595	0.0368
456.907	0.0371
457.218	0.0363
457.53	0.0368
457.841	0.0361
458.153	0.0364
458.464	0.0356
458.776	0.0349
459.087	0.0351
459.398	0.0356
459.709	0.035
460.02	0.0341
460.331	0.0349
460.642	0.0341
460.953	0.0342
461.263	0.0347
461.574	0.0346
461.885	0.0349
462.195	0.034
462.506	0.0346
462.816	0.0333
463.126	0.0328
463.437	0.0334
463.747	0.032
464.057	0.0332
464.367	0.0332
464.677	0.0325
464.987	0.0322
465.296	0.0324
465.606	0.0317
465.916	0.032
466.225	0.0317
466.535	0.0319
466.844	0.0311
467.154	0.0314
467.463	0.031
467.772	0.0311
468.081	0.0312
468.39	0.0307
468.699	0.0303
469.008	0.0304
469.317	0.0301
469.626	0.0293
469.935	0.0301
470.243	0.0304
470.552	0.0293
470.86	0.0304
471.169	0.0289
471.477	0.0293
471.785	0.0296
472.093	0.029
472.402	0.0283
472.71	0.0288
473.018	0.0271
473.326	0.0271
473.633	0.0278
473.941	0.0276
474.249	0.0274
474.556	0.0266
474.864	0.0271
475.171	0.0256
475.479	0.0264
475.786	0.0265
476.094	0.0269
476.401	0.0266
476.708	0.0259
477.015	0.0263
477.322	0.0262
477.629	0.0253
477.936	0.0249
478.242	0.0254
478.549	0.0251
478.856	0.0246
479.162	0.0248
479.469	0.0245
479.775	0.0242
480.081	0.0239
480.388	0.0239
480.694	0.0235
481	0.0234
481.306	0.0236
481.612	0.0237
481.918	0.0225
482.224	0.0234
482.53	0.0223
482.835	0.0223
483.141	0.0212
483.446	0.0221
483.752	0.0214
484.057	0.021
484.363	0.0215
484.668	0.0201
484.973	0.0203
485.278	0.0203
485.583	0.0198
485.888	0.02
486.193	0.0196
486.498	0.02
486.803	0.0195
487.107	0.0192
487.412	0.0191
487.717	0.019
488.021	0.0196
488.325	0.0181
488.63	0.0175
488.934	0.0181
489.238	0.0191
489.542	0.0181
489.846	0.0171
490.15	0.0185
490.454	0.0178
490.758	0.0178
491.062	0.017
491.366	0.017
491.669	0.0179
491.973	0.0168
492.276	0.0163
492.58	0.0152
492.883	0.0166
493.186	0.0171
493.489	0.0161
493.792	0.0164
494.096	0.0161
494.399	0.0155
494.701	0.0156
495.004	0.0151
495.307	0.0152
495.61	0.0141
495.912	0.0146
496.215	0.0139
496.517	0.014
496.82	0.0133
497.122	0.014
497.424	0.0135
497.727	0.0134
498.029	0.0142
498.331	0.0147
498.633	0.0137
498.935	0.0136
499.237	0.0134
499.538	0.0128
499.84	0.0129
500.142	0.0133
500.443	0.0134
500.745	0.0128
501.046	0.0127
501.348	0.0108
501.649	0.013
501.95	0.0114
502.251	0.0116
502.552	0.0108
502.853	0.011
503.154	0.011
503.455	0.0114
503.756	0.0107
504.057	0.0114
504.357	0.0103
504.658	0.0103
504.958	0.0109
505.259	0.0115
505.559	0.0101
505.859	0.0099
506.16	0.0102
506.46	0.0105
506.76	0.0104
507.06	0.0101
507.36	0.0107
507.66	0.0102
507.96	0.0096
508.259	0.0091
508.559	0.0082
508.859	0.0091
509.158	0.0088
509.457	0.0091
509.757	0.0099
510.056	0.0092
510.355	0.0086
510.655	0.0071
510.954	0.0083
511.253	0.0083
511.552	0.0084
511.851	0.0075
512.149	0.0072
512.448	0.0071
512.747	0.0077
513.045	0.0069
513.344	0.0082
513.642	0.0078
513.941	0.0082
514.239	0.008
514.537	0.0076
514.836	0.0068
515.134	0.0062
515.432	0.008
515.73	0.0082
516.028	0.0064
516.326	0.0067
516.623	0.0062
516.921	0.0067
517.219	0.0071
517.516	0.0076
517.814	0.0068
518.111	0.0067
518.409	0.0079
518.706	0.0073
519.003	0.0063
519.3	0.0056
519.597	0.0066
519.894	0.0059
520.191	0.0071
520.488	0.0066
520.785	0.0053
521.082	0.0056
521.378	0.0068
521.675	0.0054
521.971	0.0058
522.268	0.0055
522.564	0.0055
522.861	0.0061
523.157	0.0043
523.453	0.0057
523.749	0.0053
524.045	0.0064
524.341	0.0054
524.637	0.0047
524.933	0.0048
525.229	0.0056
525.524	0.0042
525.82	0.0049
526.115	0.0048
526.411	0.0049
526.706	0.0045
527.002	0.0054
527.297	0.0045
527.592	0.0054
527.887	0.0053
528.182	0.0048
528.477	0.006
528.772	0.0048
529.067	0.0052
529.362	0.0052
529.657	0.0054
529.951	0.0046
530.246	0.0036
530.54	0.0034
530.835	0.0031
531.129	0.0033
531.423	0.0047
531.718	0.0044
532.012	0.0038
532.306	0.0037
532.6	0.004
532.894	0.0038
533.188	0.0042
533.482	0.0036
533.775	0.0035
534.069	0.0034
534.363	0.0038
534.656	0.003
534.95	0.0023
535.243	0.0031
535.536	0.0036
535.83	0.0041
536.123	0.0033
536.416	0.0036
536.709	0.0037
537.002	0.005
537.295	0.0029
537.588	0.0041
537.881	0.0039
538.173	0.0035
538.466	0.0036
538.759	0.0029
539.051	0.0028
539.344	0.0027
539.636	0.0029
539.928	0.0038
540.22	0.0032
540.513	0.0038
540.805	0.0031
541.097	0.0033
541.389	0.0034
541.681	0.0029
541.972	0.0037
542.264	0.0033
542.556	0.0041
542.847	0.0043
543.139	0.0042
543.431	0.0048
543.722	0.0038
544.013	0.0051
544.305	0.0047
544.596	0.0055
544.887	0.0044
545.178	0.0035
545.469	0.0038
545.76	0.0033
546.051	0.0043
546.342	0.0052
546.632	0.0023
546.923	0.003
547.214	0.004
547.504	0.0026
547.795	0.004
548.085	0.0033
548.375	0.0029
548.666	0.0039
548.956	0.0031
549.246	0.0039
549.536	0.0031
549.826	0.0039
550.116	0.0037
550.406	0.0028
550.695	0.0042
550.985	0.0038
551.275	0.004
551.564	0.0027
551.854	0.0039
552.143	0.0034
552.433	0.0037
552.722	0.0035
553.011	0.0033
553.3	0.004
553.589	0.0036
553.879	0.0027
554.167	0.002
554.456	0.0034
554.745	0.0033
555.034	0.0023
555.323	0.0018
555.611	0.0022
555.9	0.0043
556.188	0.0025
556.477	0.0031
556.765	0.0027
557.053	0.0027
557.342	0.0021
557.63	0.0032
557.918	0.0027
558.206	0.0021
558.494	0.0043
558.782	0.0026
559.069	0.0027
559.357	0.0029
559.645	0.003
559.932	0.0032
560.22	0.0035
560.507	0.0041
560.795	0.0024
561.082	0.003
561.37	0.0033
561.657	0.0034
561.944	0.004
562.231	0.0038
562.518	0.0027
562.805	0.0031
563.092	0.0033
563.379	0.0037
563.665	0.0036
563.952	0.0037
564.239	0.0039
564.525	0.0044
564.811	0.0045
565.098	0.0035
565.384	0.0049
565.67	0.0034
565.957	0.0036
566.243	0.0028
566.529	0.0041
566.815	0.0056
567.101	0.0031
567.387	0.0032
567.672	0.0034
567.958	0.0033
568.244	0.0034
568.529	0.0037
568.815	0.0028
569.1	0.0032
569.386	0.0026
569.671	0.003
569.956	0.0029
570.242	0.0028
570.527	0.0032
570.812	0.0033
571.097	0.0032
571.382	0.0022
571.666	0.0032
571.951	0.0028
572.236	0.003
572.521	0.0031
572.805	0.0038
573.09	0.0031
573.374	0.0026
573.659	0.0024
573.943	0.0032
574.227	0.0027
574.511	0.0032
574.795	0.0038
575.079	0.0024
575.363	0.0031
575.647	0.0034
575.931	0.0035
576.215	0.0032
576.499	0.0026
576.782	0.003
577.066	0.0026
577.349	0.003
577.633	0.0037
577.916	0.0031
578.2	0.004
578.483	0.0036
578.766	0.003
579.049	0.0045
579.332	0.0036
579.615	0.0026
579.898	0.0033
580.181	0.003
580.464	0.0036
580.746	0.0021
581.029	0.0031
581.312	0.0029
581.594	0.0024
581.877	0.0031
582.159	0.004
582.441	0.0035
582.724	0.0027
583.006	0.0028
583.288	0.0017
583.57	0.0022
583.852	0.0025
584.134	0.0018
584.416	0.0032
584.697	0.003
584.979	0.0027
585.261	0.0024
585.542	0.0032
585.824	0.0037
586.105	0.0037
586.387	0.0026
586.668	0.0032
586.949	0.0031
587.231	0.003
587.512	0.0028
587.793	0.0032
588.074	0.0033
588.355	0.0035
588.636	0.004
588.916	0.0035
589.197	0.0034
589.478	0.0037
589.758	0.0026
590.039	0.0032
590.319	0.0034
590.6	0.003
590.88	0.003
591.16	0.0031
591.441	0.0034
591.721	0.003
592.001	0.0035
592.281	0.0032
592.561	0.0037
592.841	0.0033
593.12	0.0031
593.4	0.0029
593.68	0.0037
593.959	0.003
594.239	0.004
594.518	0.0036
594.798	0.0039
595.077	0.0035
595.356	0.0027
595.636	0.003
595.915	0.0036
596.194	0.0033
596.473	0.0039
596.752	0.0033
597.031	0.0031
597.31	0.0019
597.588	0.0026
597.867	0.0023
598.146	0.0028
598.424	0.0023
598.703	0.0027
598.981	0.0019
599.259	0.0027
599.538	0.0035
599.816	0.0031
600.094	0.0028
600.372	0.0029
600.65	0.0033
600.928	0.0035
601.206	0.0031
601.484	0.0032
601.762	0.0042
602.04	0.0033
602.317	0.0026
602.595	0.0022
602.872	0.0025
603.15	0.0023
603.427	0.0015
603.704	0.0022
603.982	0.0026
604.259	0.0017
604.536	0.0028
604.813	0.0027
605.09	0.0028
605.367	0.0015
605.644	0.0019
605.921	0.0032
606.197	0.0021
606.474	0.0028
606.751	0.0035
607.027	0.0031
607.304	0.0024
607.58	0.0027
607.856	0.0024
608.133	0.0036
608.409	0.0033
608.685	0.0023
608.961	0.0034
609.237	0.0037
609.513	0.0037
609.789	0.0031
610.065	0.0025
610.341	0.0024
610.616	0.0032
610.892	0.0039
611.167	0.0033
611.443	0.0035
611.718	0.0029
611.994	0.003
612.269	0.0034
612.544	0.0025
612.819	0.0023
613.095	0.0033
613.37	0.0032
613.645	0.0029
613.919	0.0023
614.194	0.0027
614.469	0.002
614.744	0.0022
615.019	0.0022
615.293	0.0018
615.568	0.0021
615.842	0.0015
616.116	0.002
616.391	0.0013
616.665	0.0029
616.939	0.0024
617.213	0.003
617.488	0.0016
617.762	0.0023
618.035	0.0018
618.309	0.0022
618.583	0.0017
618.857	0.0026
619.131	0.0023
619.404	0.0018
619.678	0.003
619.951	0.001
620.225	0.0011
620.498	0.002
620.771	0.0017
621.045	0.0023
621.318	0.0027
621.591	0.0024
621.864	0.0014
622.137	0.0005
622.41	0.0015
622.683	0.0013
622.956	0.0022
623.228	0.0015
623.501	0.0029
623.774	0.0033
624.046	0.003
624.319	0.0018
624.591	0.0017
624.863	0.0022
625.136	0.0022
625.408	0.0023
625.68	0.0022
625.952	0.0031
626.224	0.0031
626.496	0.0022
626.768	0.0018
627.04	0.0019
627.311	0.0024
627.583	0.0026
627.855	0.0024
628.126	0.003
628.398	0.0035
628.669	0.0031
628.941	0.0021
629.212	0.0007
629.483	0.0017
629.755	0.0019
630.026	0.0009
630.297	0.0015
630.568	0.0015
630.839	0.001
631.11	0.0006
631.38	0.0001
631.651	0.0015
631.922	-0.0004
632.192	-0.0002
632.463	0.0002
632.733	0.0001
633.004	-0.0001
633.274	-0.0008
633.545	0.0007
633.815	0.0015
634.085	0.0021
634.355	0.0012
634.625	0.0027
634.895	0.0016
635.165	0
635.435	0.0006
635.705	0.001
635.974	0.0001
636.244	0.0017
636.514	0.0017
636.783	0.0021
637.053	0.003
637.322	0.0018
637.591	0.003
637.861	0.0026
638.13	0.0023
638.399	0.0016
638.668	0.0018
638.937	0.001
639.206	0.0023
639.475	0.0022
639.744	0.0016
640.013	0.002
640.281	0.0028
640.55	0.0026
640.819	0.0022
641.087	0.0034
641.356	0.0026
641.624	0.0018
641.892	0.0024
642.161	0.0022
642.429	0.0032
642.697	0.0026
642.965	0.0032
643.233	0.004
643.501	0.0016
643.769	0.0021
644.037	0.0022
644.305	0.0017
644.572	0.001
644.84	0.0007
645.108	0.0016
645.375	0.0012
645.643	0.0014
645.91	0.0015
646.177	0.0026
646.445	0.0047
646.712	0.004
646.979	0.0042
647.246	0.0032
647.513	0.0042
647.78	0.0033
648.047	0.0048
648.314	0.0032
648.58	0.0039
648.847	0.002
649.114	0.0025
649.38	0.0019
649.647	0.002
649.913	0.0018
650.18	0.0021
650.446	0.0024
650.712	0.0041
650.978	0.0035
651.245	0.0032
651.511	0.0036
651.777	0.0026
652.043	0.003
652.309	0.0033
652.574	0.0038
652.84	0.0014
653.106	0.0004
653.371	0.0005
653.637	0.0018
653.903	0.0023
654.168	0.0025
654.433	0.0027
654.699	0.0034
654.964	0.0028
655.229	0.0023
655.494	0.0029
655.759	0.0014
656.024	0.0009
656.289	-0
656.554	0.0025
656.819	0.0023
657.084	0.0016
657.349	0.0033
657.613	0.0035
657.878	0.0024
658.142	0.0036
658.407	0.0027
658.671	0.0015
658.936	0.0014
659.2	0.0008
659.464	0.0007
659.728	-0
659.992	0.0011
660.256	0.0002
660.52	0.0012
660.784	0.0003
661.048	0.0006
661.312	-0.0002
661.575	-0.0009
661.839	-0.0015
662.103	-0.0007
662.366	-0.001
662.63	-0.0002
662.893	0.0005
663.156	0.0001
663.42	-0.0006
663.683	0.0003
663.946	0.0007
664.209	0.0032
664.472	0.0026
664.735	0.0026
664.998	0.002
665.261	0.0013
665.524	0.0004
665.786	0.0009
666.049	0.0011
666.312	0.0006
666.574	0.0003
666.837	-0
667.099	-0.0007
667.361	-0.0011
667.624	-0.0015
667.886	0.0002
668.148	0
668.41	0.0017
668.672	0.0005
668.934	0.0009
669.196	0.0009
669.458	0.001
669.72	0.0013
669.982	0.0011
670.243	0.0018
670.505	0.0018
670.766	0.0011
671.028	0.0019
671.289	0.0018
671.551	0.0013
671.812	0.0002
672.073	0.0013
672.334	0.0009
672.596	0.0012
672.857	0.0006
673.118	0.0008
673.379	0.0002
673.639	-0.0004
673.9	0.0004
674.161	-0.0006
674.422	-0.0014
674.682	-0.0007
674.943	-0.0016
675.203	0.0002
675.464	0.0001
675.724	0.0008
675.985	0.0018
676.245	0.0031
676.505	0.0025
676.765	0.0024
677.025	0.0029
677.285	0.0027
677.545	0.0029
677.805	0.0033
678.065	0.0031
678.325	0.0037
678.585	0.0037
678.844	0.0029
679.104	0.0026
679.363	0.003
679.623	0.0036
679.882	0.0032
680.142	0.0037
680.401	0.0042
680.66	0.0046
680.919	0.0033
681.178	0.0047
681.437	0.0044
681.696	0.0037
681.955	0.0042
682.214	0.0043
682.473	0.0047
682.732	0.0036
682.99	0.0027
683.249	0.0029
683.508	0.0035
683.766	0.0028
684.024	0.0036
684.283	0.0033
684.541	0.0033
684.799	0.0045
685.058	0.0037
685.316	0.003
685.574	0.0038
685.832	0.0039
686.09	0.0036
686.348	0.0041
686.606	0.0031
686.863	0.0046
687.121	0.005
687.379	0.0044
687.636	0.0034
687.894	0.0042
688.151	0.0054
688.409	0.0043
688.666	0.0044
688.923	0.0047
689.181	0.004
689.438	0.0033
689.695	0.003
689.952	0.0023
690.209	0.0019
690.466	0.0017
690.723	0.0031
690.979	0.0016
691.236	0.0019
691.493	0.0016
691.75	0.0025
692.006	0.0037
692.263	0.004
692.519	0.0043
692.775	0.0032
693.032	0.002
693.288	0.0029
693.544	0.0029
693.8	0.003
694.056	0.0032
694.313	0.0033
694.568	0.0024
694.824	0.0026
695.08	0.0044
695.336	0.0041
695.592	0.0036
695.847	0.004
696.103	0.0036
696.359	0.0033
696.614	0.0033
696.869	0.0022
697.125	0.0006
697.38	0.0009
697.635	0.0004
697.891	0.0008
698.146	0.001
698.401	0.0019
698.656	0.0005
698.911	0.0024
699.166	0.0006
699.42	0.0011
699.675	0.0001
699.93	-0
700.185	0.0016
700.439	0.0025
700.694	0.0013
700.948	0.0012
701.203	0.0026
701.457	0.0015
701.711	0.0016
701.965	0.0001
702.22	0.0003
702.474	0.0011
702.728	-0.0001
702.982	0.0005
703.236	0.0015
703.49	0.0011
703.743	0.0004
703.997	0.0014
704.251	0.0015
704.504	0.0018
704.758	0.0016
705.012	0.0007
705.265	0.0001
705.518	-0.0002
705.772	-0.0004
706.025	0.0007
706.278	0.0001
706.531	-0.0002
706.785	-0.0008
707.038	0.0002
707.291	-0.0004
707.543	0.0006
707.796	-0.0008
708.049	-0.0008
708.302	-0.0015
708.555	-0.0003
708.807	-0.0006
709.06	-0.0007
709.312	-0.0018
709.565	-0.0019
709.817	-0.0021
710.069	-0.0017
710.322	-0.0013
710.574	-0.0007
710.826	-0.0009
711.078	-0.0003
711.33	-0.0002
711.582	-0.0011
711.834	0.0004
712.086	0.0008
712.338	0.0013
712.59	0.0022
712.841	0.0016
713.093	0.0008
713.344	0.0006
713.596	0.0012
713.847	0.0016
714.099	0.002
714.35	0.002
714.601	0.0021
714.853	0.0035
715.104	0.0025
715.355	0.0012
715.606	0.002
715.857	0.0017
716.108	0.0028
716.359	0.0024
716.609	0.0028
716.86	0.0017
717.111	0.0014
717.361	-0.0002
717.612	-0.0007
717.863	-0.0003
718.113	0.0002
718.363	0.0001
718.614	0.0007
718.864	0.0006
719.114	0.0012
719.364	0.0002
719.614	0.0003
719.865	-0.0006
720.114	0.0004
720.364	0.0011
720.614	0.0014
720.864	0.0025
721.114	0.0022
721.364	0.0032
721.613	0.0027
721.863	0.004
722.112	0.0026
722.362	0.0032
722.611	0.0032
722.86	0.0021
723.11	0.0014
723.359	0.0013
723.608	0.0031
723.857	0.0035
724.106	0.0058
724.355	0.0055
724.604	0.0063
724.853	0.0048
725.102	0.0035
725.351	0.0029
725.599	0.0029
725.848	0.0029
726.097	0.0021
726.345	0.0021
726.594	0.0025
726.842	0.0015
727.09	0.0018
727.339	0.0023
727.587	0.001
727.835	0.0002
728.083	0.0003
728.331	-0.0004
728.579	-0.0011
728.827	-0.0012
729.075	-0.0002
729.323	0.0006
729.571	0.001
729.818	0.0014
730.066	0.0015
730.314	0.002
730.561	-0.0002
730.809	-0.0009
731.056	-0.0006
731.303	-0.0005
731.551	-0.0001
731.798	0.0001
732.045	0.0008
732.292	0.0003
732.539	0
732.786	0.0008
733.033	0.0013
733.28	0.0019
733.527	0.0031
733.774	0.0017
734.021	0.0034
734.267	0.0042
734.514	0.0041
734.76	0.004
735.007	0.0061
735.253	0.006
735.5	0.0057
735.746	0.0057
735.992	0.005
736.238	0.0048
736.485	0.0051
736.731	0.0051
736.977	0.0044
737.223	0.004
737.469	0.005
737.715	0.0047
737.96	0.0064
738.206	0.0054
738.452	0.0066
738.697	0.0065
738.943	0.0055
739.189	0.0036
739.434	0.0018
739.679	0.0017
739.925	0.0013
740.17	0.0006
740.415	0.0004
740.66	0.0013
740.906	0.0016
741.151	0.0018
741.396	0.0018
741.641	0.0043
741.886	0.004
742.13	0.0047
742.375	0.0053
742.62	0.0057
742.865	0.0048
743.109	0.0043
743.354	0.0038
743.598	0.0042
743.843	0.0032
744.087	0.0041
744.331	0.0031
744.576	0.0037
744.82	0.0043
745.064	0.0038
745.308	0.0029
745.552	0.0027
745.796	0.0029
746.04	0.0032
746.284	0.002
746.528	-0.0001
746.771	0.0004
747.015	0.0007
747.259	0.0011
747.502	0.0014
747.746	0.0018
747.989	0.0022
748.233	0.0032
748.476	0.0033
748.719	0.0037
748.963	0.0041
749.206	0.0028
749.449	0.0029
749.692	0.0027
749.935	0.0033
750.178	0.0028
750.421	0.0036
750.664	0.0034
750.906	0.004
751.149	0.0034
751.392	0.0031
751.635	0.002
751.877	0.0003
752.12	0.0002
752.362	0.0007
752.604	0.0009
752.847	0.0019
753.089	0.0019
753.331	0.0015
753.573	0.0018
753.816	0.0024
754.058	0.0025
754.3	0.003
754.542	0.0036
754.783	0.0031
755.025	0.0021
755.267	0.0007
755.509	0.0004
755.75	0
755.992	0.0012
756.234	0.0005
756.475	-0.0003
756.716	-0.0002
756.958	0.0001
757.199	0.0003
757.44	0.0018
757.682	0.0012
757.923	0.0004
758.164	0.0012
758.405	0.0006
758.646	0.0008
758.887	0.0007
759.128	0.0005
759.369	0.0002
759.609	-0
759.85	-0.0004
760.091	0.0008
760.331	0.0002
760.572	-0.0003
760.812	-0.0006
761.053	-0.0009
761.293	0.0002
761.533	0
761.774	-0.0001
762.014	-0.0004
762.254	-0.0001
762.494	-0.0007
762.734	-0.0016
762.974	-0.0013
763.214	-0.001
763.454	-0.0017
763.694	-0.0011
763.933	-0.0012
764.173	-0.0007
764.413	-0.0008
764.652	-0.0001
764.892	0.0006
765.131	0.001
765.371	0.0015
765.61	0.0024
765.849	0.0019
766.089	0.0021
766.328	0.0028
766.567	0.0022
766.806	0.0024
767.045	0.0031
767.284	0.003
767.523	0.003
767.762	0.0031
768.001	0.0024
768.239	0.002
768.478	0.0011
768.717	0.0016
768.955	0.0027
769.194	0.0019
769.432	0.0013
769.671	0.0025
769.909	0.0018
770.148	0.0018
770.386	0.0027
770.624	0.0019
770.862	0.0023
771.1	0.0017
771.338	0.0005
771.576	0.0018
771.814	0.0012
772.052	0.0005
772.29	0.0013
772.528	0.0022
772.765	0.002
773.003	0.0025
773.24	0.0016
773.478	0.0022
773.716	0.0035
773.953	0.0031
774.19	0.0039
774.428	0.0035
774.665	0.0032
774.902	0.0037
775.139	0.0024
775.376	0.0029
775.613	0.0022
775.85	0.002
776.087	0.0013
776.324	0.0016
776.561	0.0014
776.798	0.0034
777.034	0.0039
777.271	0.0055
777.508	0.0053
777.744	0.0046
777.981	0.0038
778.217	0.0043
778.454	0.0036
778.69	0.003
778.926	0.0038
779.162	0.0032
779.399	0.0031
779.635	0.0035
779.871	0.003
780.107	0.0038
780.343	0.0039
780.579	0.004
780.814	0.0037
781.05	0.0038
781.286	0.0037
781.522	0.0034
781.757	0.0048
781.993	0.0044
782.228	0.0048
782.464	0.0043
782.699	0.0039
782.934	0.0023
783.17	0.0027
783.405	0.0023
783.64	0.0021
783.875	0.0027
784.11	0.0026
784.345	0.0033
784.58	0.0031
784.815	0.0034
785.05	0.0029
785.285	0.0022
785.52	0.0015
785.754	0.0018
785.989	0.0009
786.223	0.0006
786.458	0.0011
786.692	0.0007
786.927	-0
787.161	0.0002
787.396	-0.0005
787.63	-0.0003
787.864	-0.0006
788.098	-0.0011
788.332	-0.0002
788.566	-0.0008
788.8	0.0002
789.034	0.0006
789.268	0.0008
789.502	0.0016
789.736	0.0025
789.969	0.0029
790.203	0.003
790.437	0.0027
790.67	0.0026
790.904	0.003
791.137	0.0012
791.37	0.0004
791.604	-0.0002
791.837	0.0002
792.07	-0.0009
792.303	0.0009
792.537	0.0001
792.77	0.0001
793.003	0.0002
793.236	-0.0008
793.469	-0.0004
793.701	-0.0007
793.934	-0.0007
794.167	-0.0013
794.4	-0.0003
794.632	-0.0001
794.865	-0.0002
795.097	-0.0001
795.33	0.0008
795.562	0.0004
795.795	0.0008
796.027	0.0002
796.259	0.001
796.491	-0.0002
796.724	-0.0004
796.956	0.0008
797.188	0.0012
797.42	0.0006
797.652	0.0005
797.883	-0.0001
798.115	-0.0007
798.347	-0.0014
798.579	-0.0018
798.81	-0.0021
799.042	-0.0015
799.274	-0.0026
799.505	-0.0017
799.737	-0.0023
799.968	-0.0018
800.199	-0.0017
800.431	-0.0021
800.662	-0.0011
800.893	-0.0004
801.124	0.0001
801.355	-0.0005
801.586	0.0001
801.817	-0.0004
802.048	0.0005
802.279	0.0008
802.51	0.0015
802.741	-0.0001
802.971	0.0008
803.202	-0.0006
803.433	-0.0005
803.663	-0.0009
803.894	0.0001
804.124	0.0006
804.354	-0.0007
804.585	-0
804.815	-0.0003
805.045	0.0003
805.275	-0.0018
805.506	-0.0214
805.736	0.0619
805.966	-0.0562
806.196	0.0298
