Data from 03 0.2 mM BQDS 0.4 mM K2Cr2O7 1 M H2SO4 5 min_Absorbance_13-32-42-725.txt Node
Date: Wed Dec 08 13:32:42 EST 2021
User: kwabilab-user
Spectrometer: HDX00518
Trigger mode: 0
Integration Time (sec): 5.000000E-2
Scans to average: 50
Nonlinearity correction enabled: false
Boxcar width: 0
Storing dark spectrum: false
XAxis mode: Wavelengths
Number of Pixels in Spectrum: 2068
>>>>>Begin Spectral Data<<<<<
195.27	0.2704
195.642	0.1447
196.014	0.1889
196.386	0.0531
196.758	0.0356
197.129	0.0259
197.501	0.0607
197.872	0.09
198.244	0.1028
198.615	0.1281
198.986	0.1147
199.357	0.1045
199.728	0.1136
200.099	0.0998
200.47	0.1071
200.841	0.099
201.212	0.1091
201.582	0.1068
201.953	0.1159
202.323	0.1162
202.694	0.0985
203.064	0.1185
203.434	0.1003
203.804	0.114
204.174	0.1207
204.544	0.1202
204.914	0.1005
205.284	0.1041
205.653	0.1212
206.023	0.1203
206.393	0.1136
206.762	0.1173
207.131	0.1152
207.501	0.1115
207.87	0.1165
208.239	0.1283
208.608	0.0964
208.977	0.1434
209.346	0.1395
209.715	0.1457
210.083	0.1423
210.452	0.1431
210.82	0.1513
211.189	0.1437
211.557	0.1394
211.925	0.1516
212.294	0.172
212.662	0.1685
213.03	0.1546
213.398	0.1557
213.766	0.1888
214.133	0.2005
214.501	0.1989
214.869	0.2043
215.236	0.2314
215.604	0.2169
215.971	0.2411
216.338	0.276
216.705	0.2938
217.072	0.3066
217.439	0.3132
217.806	0.3439
218.173	0.3671
218.54	0.4017
218.907	0.4385
219.273	0.4805
219.64	0.5118
220.006	0.5558
220.373	0.5862
220.739	0.6199
221.105	0.6651
221.471	0.68
221.837	0.7325
222.203	0.7693
222.569	0.7956
222.935	0.8282
223.3	0.8467
223.666	0.8796
224.031	0.9082
224.397	0.9235
224.762	0.943
225.127	0.9601
225.493	0.9822
225.858	0.9911
226.223	0.9931
226.588	0.9958
226.952	1.0057
227.317	1.0156
227.682	1.013
228.046	0.9989
228.411	1.0086
228.775	1.0093
229.14	1.0039
229.504	1.0016
229.868	0.9964
230.232	0.9839
230.596	0.9763
230.96	0.9725
231.324	0.961
231.688	0.9511
232.052	0.9409
232.415	0.9359
232.779	0.9284
233.142	0.9235
233.505	0.9125
233.869	0.907
234.232	0.8929
234.595	0.8833
234.958	0.8735
235.321	0.8645
235.684	0.8543
236.047	0.846
236.409	0.8379
236.772	0.8268
237.134	0.8195
237.497	0.8124
237.859	0.8012
238.222	0.7948
238.584	0.7845
238.946	0.7752
239.308	0.7653
239.67	0.7583
240.032	0.7536
240.393	0.7429
240.755	0.7363
241.117	0.7311
241.478	0.7227
241.84	0.7181
242.201	0.7099
242.562	0.7033
242.924	0.6981
243.285	0.6928
243.646	0.6847
244.007	0.6833
244.368	0.6781
244.728	0.6704
245.089	0.6642
245.45	0.6584
245.81	0.6564
246.171	0.651
246.531	0.6458
246.891	0.6429
247.252	0.6401
247.612	0.6348
247.972	0.6309
248.332	0.6278
248.692	0.6248
249.051	0.6216
249.411	0.6211
249.771	0.6131
250.13	0.6116
250.49	0.6103
250.849	0.6069
251.208	0.6037
251.568	0.601
251.927	0.5981
252.286	0.5976
252.645	0.5956
253.004	0.5916
253.363	0.5897
253.721	0.5906
254.08	0.5852
254.439	0.5849
254.797	0.5799
255.155	0.5803
255.514	0.5788
255.872	0.5782
256.23	0.5742
256.588	0.5706
256.946	0.5724
257.304	0.5714
257.662	0.5673
258.02	0.5657
258.377	0.5649
258.735	0.5629
259.093	0.562
259.45	0.5612
259.807	0.558
260.165	0.5568
260.522	0.5559
260.879	0.5519
261.236	0.5496
261.593	0.549
261.95	0.5454
262.306	0.5456
262.663	0.5432
263.02	0.5441
263.376	0.5406
263.733	0.5365
264.089	0.5355
264.445	0.5342
264.802	0.5321
265.158	0.5298
265.514	0.5273
265.87	0.5265
266.226	0.5223
266.581	0.521
266.937	0.5187
267.293	0.5174
267.648	0.5159
268.004	0.5121
268.359	0.5093
268.714	0.506
269.07	0.5039
269.425	0.502
269.78	0.5004
270.135	0.4976
270.49	0.4958
270.844	0.4932
271.199	0.4907
271.554	0.487
271.908	0.4857
272.263	0.4832
272.617	0.4811
272.972	0.4772
273.326	0.4741
273.68	0.4708
274.034	0.4681
274.388	0.466
274.742	0.461
275.096	0.4598
275.45	0.4564
275.803	0.4547
276.157	0.4499
276.51	0.447
276.864	0.4428
277.217	0.4399
277.571	0.4367
277.924	0.4345
278.277	0.4299
278.63	0.426
278.983	0.4228
279.336	0.4203
279.688	0.4164
280.041	0.4132
280.394	0.4085
280.746	0.4068
281.099	0.4017
281.451	0.3978
281.803	0.3942
282.156	0.3927
282.508	0.3877
282.86	0.3843
283.212	0.3814
283.564	0.3773
283.916	0.3729
284.267	0.3683
284.619	0.3663
284.971	0.3615
285.322	0.3581
285.673	0.3539
286.025	0.3524
286.376	0.3466
286.727	0.3421
287.078	0.3397
287.429	0.3373
287.78	0.3315
288.131	0.3287
288.482	0.3234
288.833	0.3216
289.183	0.3164
289.534	0.3128
289.884	0.3088
290.235	0.3058
290.585	0.3019
290.935	0.2979
291.285	0.2953
291.635	0.2911
291.985	0.2869
292.335	0.2832
292.685	0.2803
293.035	0.2771
293.384	0.2722
293.734	0.2686
294.083	0.2643
294.433	0.2608
294.782	0.2587
295.131	0.2542
295.48	0.2516
295.829	0.2483
296.179	0.2438
296.527	0.2411
296.876	0.238
297.225	0.2358
297.574	0.2313
297.922	0.2284
298.271	0.2261
298.619	0.2216
298.968	0.2197
299.316	0.2163
299.664	0.2143
300.012	0.2109
300.36	0.2075
300.708	0.2049
301.056	0.203
301.404	0.2004
301.752	0.1975
302.099	0.1953
302.447	0.1933
302.794	0.191
303.142	0.1887
303.489	0.1865
303.836	0.1837
304.183	0.1822
304.531	0.1803
304.878	0.1785
305.224	0.1766
305.571	0.1754
305.918	0.1735
306.265	0.172
306.611	0.1701
306.958	0.1689
307.304	0.1679
307.651	0.1664
307.997	0.1652
308.343	0.1638
308.689	0.1632
309.035	0.1621
309.381	0.1613
309.727	0.1598
310.073	0.1595
310.419	0.1583
310.764	0.1579
311.11	0.1569
311.455	0.1565
311.801	0.1561
312.146	0.1556
312.491	0.1548
312.837	0.1553
313.182	0.1549
313.527	0.1542
313.872	0.1539
314.216	0.1536
314.561	0.1536
314.906	0.1533
315.251	0.1539
315.595	0.1537
315.94	0.153
316.284	0.1533
316.628	0.1532
316.972	0.1533
317.317	0.154
317.661	0.1545
318.005	0.1548
318.348	0.155
318.692	0.155
319.036	0.1551
319.38	0.1556
319.723	0.1563
320.067	0.1564
320.41	0.1571
320.754	0.1576
321.097	0.1589
321.44	0.1594
321.783	0.1597
322.126	0.1609
322.469	0.1623
322.812	0.1627
323.155	0.1631
323.498	0.164
323.84	0.1653
324.183	0.166
324.525	0.167
324.868	0.1673
325.21	0.1687
325.552	0.1703
325.894	0.1706
326.236	0.1716
326.578	0.173
326.92	0.1741
327.262	0.1749
327.604	0.1757
327.946	0.1773
328.287	0.1788
328.629	0.1796
328.97	0.1801
329.312	0.1823
329.653	0.1831
329.994	0.1846
330.335	0.1856
330.676	0.1864
331.017	0.1875
331.358	0.1887
331.699	0.1901
332.04	0.1915
332.38	0.192
332.721	0.1943
333.061	0.1945
333.402	0.1962
333.742	0.1973
334.083	0.199
334.423	0.1994
334.763	0.2004
335.103	0.202
335.443	0.2024
335.783	0.2031
336.123	0.2038
336.462	0.2052
336.802	0.2065
337.141	0.2073
337.481	0.2089
337.82	0.2088
338.16	0.2096
338.499	0.2109
338.838	0.2117
339.177	0.2129
339.516	0.2134
339.855	0.215
340.194	0.2159
340.533	0.2169
340.872	0.2177
341.21	0.2188
341.549	0.2186
341.887	0.2196
342.226	0.2201
342.564	0.2196
342.902	0.2205
343.24	0.221
343.578	0.2216
343.916	0.2216
344.254	0.2216
344.592	0.2223
344.93	0.2218
345.268	0.222
345.605	0.2216
345.943	0.2225
346.28	0.2225
346.618	0.2227
346.955	0.2227
347.292	0.2226
347.629	0.2235
347.966	0.2235
348.303	0.2233
348.64	0.2236
348.977	0.2229
349.314	0.2236
349.65	0.2236
349.987	0.2231
350.324	0.2222
350.66	0.2219
350.996	0.2225
351.333	0.2207
351.669	0.2202
352.005	0.2197
352.341	0.2192
352.677	0.2183
353.013	0.2174
353.349	0.2168
353.685	0.2157
354.02	0.2149
354.356	0.214
354.691	0.213
355.027	0.2124
355.362	0.2109
355.697	0.2103
356.033	0.209
356.368	0.2082
356.703	0.2069
357.038	0.2067
357.373	0.2062
357.707	0.2055
358.042	0.2042
358.377	0.2031
358.711	0.2025
359.046	0.2014
359.38	0.1993
359.715	0.1995
360.049	0.198
360.383	0.1971
360.717	0.1961
361.051	0.1944
361.385	0.1942
361.719	0.1917
362.053	0.1905
362.387	0.1883
362.72	0.1871
363.054	0.1848
363.387	0.1836
363.721	0.1815
364.054	0.1809
364.387	0.1782
364.721	0.1777
365.054	0.1753
365.387	0.1744
365.72	0.1726
366.053	0.1711
366.385	0.1693
366.718	0.1682
367.051	0.1671
367.383	0.1656
367.716	0.1645
368.048	0.1636
368.381	0.1618
368.713	0.1605
369.045	0.1591
369.377	0.1575
369.709	0.1565
370.041	0.1557
370.373	0.154
370.705	0.1528
371.037	0.1509
371.368	0.1491
371.7	0.1484
372.031	0.147
372.363	0.1451
372.694	0.1432
373.025	0.1405
373.356	0.139
373.688	0.1373
374.019	0.1357
374.35	0.1342
374.68	0.1318
375.011	0.1301
375.342	0.1277
375.673	0.1266
376.003	0.1245
376.334	0.1231
376.664	0.1216
376.995	0.12
377.325	0.1193
377.655	0.1175
377.985	0.116
378.315	0.1153
378.645	0.1137
378.975	0.1123
379.305	0.1111
379.635	0.1105
379.964	0.1087
380.294	0.1075
380.623	0.106
380.953	0.1057
381.282	0.104
381.611	0.1026
381.941	0.1015
382.27	0.1002
382.599	0.0984
382.928	0.0976
383.257	0.0965
383.585	0.0954
383.914	0.0937
384.243	0.0925
384.571	0.0911
384.9	0.0882
385.228	0.0878
385.557	0.0862
385.885	0.0846
386.213	0.0835
386.541	0.0825
386.869	0.0804
387.197	0.0789
387.525	0.0773
387.853	0.0759
388.181	0.075
388.508	0.0746
388.836	0.0736
389.164	0.0716
389.491	0.0709
389.818	0.07
390.146	0.0687
390.473	0.0673
390.8	0.0666
391.127	0.065
391.454	0.0645
391.781	0.0634
392.108	0.0628
392.435	0.0613
392.761	0.0604
393.088	0.0596
393.415	0.0592
393.741	0.0589
394.067	0.0575
394.394	0.0577
394.72	0.0564
395.046	0.0558
395.372	0.0548
395.698	0.0534
396.024	0.0539
396.35	0.0522
396.676	0.0519
397.001	0.0514
397.327	0.0501
397.653	0.0498
397.978	0.0482
398.303	0.0475
398.629	0.0467
398.954	0.0465
399.279	0.0456
399.604	0.0456
399.929	0.0452
400.254	0.0444
400.579	0.0439
400.904	0.0429
401.229	0.0428
401.553	0.0414
401.878	0.0412
402.202	0.0413
402.527	0.041
402.851	0.0404
403.175	0.0398
403.5	0.0395
403.824	0.0404
404.148	0.0392
404.472	0.039
404.796	0.038
405.119	0.0379
405.443	0.0375
405.767	0.0371
406.09	0.0371
406.414	0.0375
406.737	0.0369
407.061	0.0368
407.384	0.0371
407.707	0.0362
408.03	0.0369
408.353	0.0373
408.676	0.0362
408.999	0.0361
409.322	0.0362
409.645	0.0367
409.968	0.0354
410.29	0.036
410.613	0.0353
410.935	0.0355
411.258	0.036
411.58	0.0352
411.902	0.0354
412.224	0.0357
412.546	0.0353
412.868	0.0354
413.19	0.0352
413.512	0.0353
413.834	0.0352
414.156	0.0355
414.477	0.0353
414.799	0.0351
415.121	0.0353
415.442	0.0356
415.763	0.036
416.085	0.0355
416.406	0.0355
416.727	0.0357
417.048	0.0354
417.369	0.0354
417.69	0.0352
418.011	0.0355
418.331	0.0354
418.652	0.036
418.973	0.0358
419.293	0.0361
419.614	0.0359
419.934	0.0355
420.254	0.0356
420.574	0.0354
420.895	0.0357
421.215	0.0349
421.535	0.0355
421.855	0.0354
422.174	0.0354
422.494	0.0354
422.814	0.0367
423.134	0.0361
423.453	0.0359
423.773	0.0365
424.092	0.0358
424.411	0.0356
424.731	0.0363
425.05	0.0364
425.369	0.0365
425.688	0.0367
426.007	0.037
426.326	0.0368
426.644	0.0379
426.963	0.037
427.282	0.0373
427.6	0.0374
427.919	0.0374
428.237	0.037
428.556	0.0378
428.874	0.037
429.192	0.0371
429.51	0.0369
429.828	0.0373
430.146	0.0374
430.464	0.037
430.782	0.0371
431.1	0.0376
431.418	0.0371
431.735	0.0377
432.053	0.038
432.37	0.037
432.688	0.0377
433.005	0.0378
433.322	0.038
433.639	0.0374
433.957	0.0376
434.274	0.0379
434.591	0.0385
434.907	0.0385
435.224	0.0381
435.541	0.038
435.858	0.0387
436.174	0.0385
436.491	0.0381
436.807	0.0382
437.124	0.0379
437.44	0.0375
437.756	0.0376
438.072	0.037
438.388	0.0385
438.704	0.0377
439.02	0.0388
439.336	0.0377
439.652	0.0377
439.968	0.0383
440.283	0.0376
440.599	0.0383
440.914	0.0384
441.23	0.0376
441.545	0.0377
441.86	0.0375
442.175	0.0386
442.491	0.0371
442.806	0.0373
443.121	0.0382
443.435	0.0374
443.75	0.0377
444.065	0.0375
444.38	0.0378
444.694	0.0375
445.009	0.0376
445.323	0.0382
445.638	0.0374
445.952	0.0378
446.266	0.0372
446.58	0.038
446.894	0.0375
447.208	0.0378
447.522	0.0378
447.836	0.0366
448.15	0.0367
448.464	0.0366
448.777	0.0369
449.091	0.0368
449.404	0.0374
449.718	0.0373
450.031	0.0364
450.345	0.0361
450.658	0.0362
450.971	0.0363
451.284	0.0362
451.597	0.0363
451.91	0.0365
452.223	0.0356
452.535	0.0361
452.848	0.0361
453.161	0.0358
453.473	0.0362
453.786	0.036
454.098	0.0356
454.411	0.0349
454.723	0.0351
455.035	0.0357
455.347	0.036
455.659	0.0354
455.971	0.0356
456.283	0.0359
456.595	0.0353
456.907	0.0353
457.218	0.035
457.53	0.035
457.841	0.0342
458.153	0.0344
458.464	0.0336
458.776	0.0332
459.087	0.0334
459.398	0.034
459.709	0.0335
460.02	0.0334
460.331	0.0331
460.642	0.0323
460.953	0.0327
461.263	0.0328
461.574	0.0322
461.885	0.0321
462.195	0.033
462.506	0.0323
462.816	0.0321
463.126	0.032
463.437	0.0322
463.747	0.0308
464.057	0.0317
464.367	0.0311
464.677	0.0311
464.987	0.0313
465.296	0.0302
465.606	0.0305
465.916	0.0299
466.225	0.0296
466.535	0.03
466.844	0.0293
467.154	0.0302
467.463	0.0287
467.772	0.0295
468.081	0.0284
468.39	0.0292
468.699	0.0287
469.008	0.0291
469.317	0.029
469.626	0.0277
469.935	0.0283
470.243	0.0286
470.552	0.0287
470.86	0.0282
471.169	0.0279
471.477	0.0282
471.785	0.0285
472.093	0.0278
472.402	0.0263
472.71	0.0267
473.018	0.0266
473.326	0.0263
473.633	0.0257
473.941	0.0256
474.249	0.0264
474.556	0.0258
474.864	0.0255
475.171	0.0244
475.479	0.0251
475.786	0.0253
476.094	0.0261
476.401	0.0248
476.708	0.0247
477.015	0.0251
477.322	0.0251
477.629	0.0243
477.936	0.0235
478.242	0.0242
478.549	0.0239
478.856	0.0235
479.162	0.0237
479.469	0.0228
479.775	0.0237
480.081	0.0223
480.388	0.0235
480.694	0.0219
481	0.0224
481.306	0.0225
481.612	0.0224
481.918	0.0216
482.224	0.0215
482.53	0.0216
482.835	0.0213
483.141	0.0198
483.446	0.0199
483.752	0.0205
484.057	0.0193
484.363	0.0195
484.668	0.0189
484.973	0.0194
485.278	0.0187
485.583	0.0188
485.888	0.018
486.193	0.0179
486.498	0.0181
486.803	0.0185
487.107	0.0182
487.412	0.0178
487.717	0.0178
488.021	0.0177
488.325	0.0177
488.63	0.0169
488.934	0.0168
489.238	0.018
489.542	0.0172
489.846	0.0158
490.15	0.0178
490.454	0.0163
490.758	0.0167
491.062	0.0154
491.366	0.0155
491.669	0.0162
491.973	0.0158
492.276	0.0158
492.58	0.0141
492.883	0.0158
493.186	0.0158
493.489	0.0151
493.792	0.0146
494.096	0.0145
494.399	0.0146
494.701	0.015
495.004	0.0144
495.307	0.0142
495.61	0.0139
495.912	0.0127
496.215	0.0132
496.517	0.0133
496.82	0.0136
497.122	0.013
497.424	0.0121
497.727	0.0128
498.029	0.0129
498.331	0.013
498.633	0.0123
498.935	0.0123
499.237	0.0117
499.538	0.0115
499.84	0.0118
500.142	0.0129
500.443	0.0119
500.745	0.0116
501.046	0.012
501.348	0.0106
501.649	0.0114
501.95	0.0107
502.251	0.01
502.552	0.0101
502.853	0.0098
503.154	0.0103
503.455	0.0097
503.756	0.0094
504.057	0.0098
504.357	0.01
504.658	0.0091
504.958	0.0097
505.259	0.01
505.559	0.0101
505.859	0.0094
506.16	0.0094
506.46	0.0098
506.76	0.0103
507.06	0.009
507.36	0.0091
507.66	0.0099
507.96	0.0089
508.259	0.0088
508.559	0.0076
508.859	0.009
509.158	0.0082
509.457	0.0079
509.757	0.0096
510.056	0.0089
510.355	0.0074
510.655	0.0067
510.954	0.0074
511.253	0.0073
511.552	0.0084
511.851	0.0075
512.149	0.007
512.448	0.0075
512.747	0.0075
513.045	0.0065
513.344	0.0081
513.642	0.0074
513.941	0.0071
514.239	0.0074
514.537	0.0068
514.836	0.0067
515.134	0.0057
515.432	0.007
515.73	0.0072
516.028	0.006
516.326	0.0064
516.623	0.0071
516.921	0.0054
517.219	0.0069
517.516	0.0073
517.814	0.0069
518.111	0.0068
518.409	0.0083
518.706	0.0065
519.003	0.0061
519.3	0.0052
519.597	0.0058
519.894	0.0068
520.191	0.0064
520.488	0.0067
520.785	0.0045
521.082	0.0053
521.378	0.0058
521.675	0.0048
521.971	0.0048
522.268	0.0045
522.564	0.0059
522.861	0.0052
523.157	0.0042
523.453	0.005
523.749	0.0055
524.045	0.0067
524.341	0.0048
524.637	0.0049
524.933	0.0044
525.229	0.0055
525.524	0.0045
525.82	0.0062
526.115	0.0043
526.411	0.0049
526.706	0.0046
527.002	0.0047
527.297	0.0036
527.592	0.0061
527.887	0.0059
528.182	0.0054
528.477	0.0063
528.772	0.0046
529.067	0.0043
529.362	0.0051
529.657	0.0046
529.951	0.0038
530.246	0.0031
530.54	0.0025
530.835	0.003
531.129	0.003
531.423	0.0039
531.718	0.003
532.012	0.0037
532.306	0.0041
532.6	0.0035
532.894	0.0027
533.188	0.0047
533.482	0.0028
533.775	0.0046
534.069	0.0035
534.363	0.0029
534.656	0.0031
534.95	0.0027
535.243	0.0036
535.536	0.0031
535.83	0.0031
536.123	0.0019
536.416	0.0029
536.709	0.003
537.002	0.0037
537.295	0.0032
537.588	0.0041
537.881	0.0019
538.173	0.0032
538.466	0.002
538.759	0.0024
539.051	0.0018
539.344	0.002
539.636	0.0035
539.928	0.0031
540.22	0.003
540.513	0.0034
540.805	0.0028
541.097	0.0038
541.389	0.0029
541.681	0.0028
541.972	0.0032
542.264	0.0029
542.556	0.0024
542.847	0.0023
543.139	0.0029
543.431	0.0035
543.722	0.0037
544.013	0.0036
544.305	0.0039
544.596	0.004
544.887	0.0033
545.178	0.0024
545.469	0.0024
545.76	0.0024
546.051	0.0035
546.342	0.004
546.632	0.0023
546.923	0.0035
547.214	0.0025
547.504	0.003
547.795	0.003
548.085	0.0034
548.375	0.0025
548.666	0.0029
548.956	0.0024
549.246	0.0038
549.536	0.0015
549.826	0.0033
550.116	0.0038
550.406	0.0036
550.695	0.0036
550.985	0.0036
551.275	0.0042
551.564	0.004
551.854	0.0043
552.143	0.0033
552.433	0.0034
552.722	0.0035
553.011	0.0027
553.3	0.0036
553.589	0.0033
553.879	0.0031
554.167	0.0037
554.456	0.0035
554.745	0.0022
555.034	0.0029
555.323	0.0014
555.611	0.0016
555.9	0.0032
556.188	0.0032
556.477	0.0033
556.765	0.0021
557.053	0.0027
557.342	0.0025
557.63	0.0031
557.918	0.0026
558.206	0.0032
558.494	0.0039
558.782	0.003
559.069	0.0042
559.357	0.0038
559.645	0.0026
559.932	0.0022
560.22	0.0048
560.507	0.003
560.795	0.0033
561.082	0.0023
561.37	0.0027
561.657	0.0033
561.944	0.0035
562.231	0.0032
562.518	0.0015
562.805	0.0035
563.092	0.004
563.379	0.003
563.665	0.0028
563.952	0.0029
564.239	0.0047
564.525	0.0042
564.811	0.0039
565.098	0.0038
565.384	0.0042
565.67	0.0036
565.957	0.0045
566.243	0.0042
566.529	0.0039
566.815	0.0056
567.101	0.0033
567.387	0.0026
567.672	0.0028
567.958	0.0033
568.244	0.0037
568.529	0.0029
568.815	0.0031
569.1	0.0032
569.386	0.0023
569.671	0.0026
569.956	0.0029
570.242	0.0031
570.527	0.0037
570.812	0.0032
571.097	0.0039
571.382	0.0031
571.666	0.0033
571.951	0.0028
572.236	0.0032
572.521	0.0023
572.805	0.0029
573.09	0.0029
573.374	0.003
573.659	0.0026
573.943	0.0025
574.227	0.0028
574.511	0.0027
574.795	0.0029
575.079	0.0023
575.363	0.0026
575.647	0.0036
575.931	0.0028
576.215	0.0034
576.499	0.0023
576.782	0.0023
577.066	0.0024
577.349	0.0025
577.633	0.0029
577.916	0.003
578.2	0.003
578.483	0.0029
578.766	0.0033
579.049	0.0039
579.332	0.0034
579.615	0.0028
579.898	0.0031
580.181	0.0028
580.464	0.002
580.746	0.0014
581.029	0.0028
581.312	0.0021
581.594	0.0025
581.877	0.0027
582.159	0.0031
582.441	0.0031
582.724	0.0029
583.006	0.0027
583.288	0.0023
583.57	0.0021
583.852	0.0022
584.134	0.0019
584.416	0.0022
584.697	0.0021
584.979	0.0026
585.261	0.0026
585.542	0.002
585.824	0.0031
586.105	0.0033
586.387	0.0022
586.668	0.0024
586.949	0.0026
587.231	0.0021
587.512	0.0025
587.793	0.0023
588.074	0.003
588.355	0.0029
588.636	0.0038
588.916	0.0034
589.197	0.0038
589.478	0.0029
589.758	0.0025
590.039	0.0026
590.319	0.0025
590.6	0.0024
590.88	0.0026
591.16	0.0023
591.441	0.0033
591.721	0.0033
592.001	0.0033
592.281	0.0032
592.561	0.0034
592.841	0.0033
593.12	0.002
593.4	0.0019
593.68	0.0027
593.959	0.0021
594.239	0.0035
594.518	0.0034
594.798	0.0033
595.077	0.0032
595.356	0.0026
595.636	0.003
595.915	0.0028
596.194	0.0023
596.473	0.0039
596.752	0.0025
597.031	0.0028
597.31	0.001
597.588	0.0021
597.867	0.0012
598.146	0.0025
598.424	0.0024
598.703	0.0027
598.981	0.0018
599.259	0.0027
599.538	0.0032
599.816	0.0029
600.094	0.0027
600.372	0.0033
600.65	0.0034
600.928	0.0031
601.206	0.0035
601.484	0.0037
601.762	0.0026
602.04	0.0031
602.317	0.0029
602.595	0.003
602.872	0.0027
603.15	0.0031
603.427	0.002
603.704	0.0015
603.982	0.002
604.259	0.0011
604.536	0.0027
604.813	0.0017
605.09	0.0024
605.367	0.0019
605.644	0.0022
605.921	0.0029
606.197	0.0021
606.474	0.0022
606.751	0.0024
607.027	0.0028
607.304	0.0022
607.58	0.0024
607.856	0.001
608.133	0.0024
608.409	0.0026
608.685	0.0028
608.961	0.0032
609.237	0.0028
609.513	0.0026
609.789	0.0028
610.065	0.002
610.341	0.0025
610.616	0.0022
610.892	0.0028
611.167	0.0028
611.443	0.003
611.718	0.0026
611.994	0.0019
612.269	0.0025
612.544	0.0023
612.819	0.0022
613.095	0.0023
613.37	0.0023
613.645	0.0029
613.919	0.002
614.194	0.0025
614.469	0.0013
614.744	0.0014
615.019	0.0011
615.293	0.0008
615.568	0.0007
615.842	0.0007
616.116	0.0012
616.391	0.0013
616.665	0.0026
616.939	0.0014
617.213	0.0018
617.488	0.001
617.762	0.0022
618.035	0.0023
618.309	0.0021
618.583	0.0018
618.857	0.0024
619.131	0.0022
619.404	0.0016
619.678	0.0013
619.951	0.0013
620.225	0.0013
620.498	0.0016
620.771	0.0023
621.045	0.0034
621.318	0.003
621.591	0.0025
621.864	0.0008
622.137	0.0011
622.41	0.0015
622.683	0.0015
622.956	0.0023
623.228	0.0023
623.501	0.0028
623.774	0.0026
624.046	0.0025
624.319	0.0025
624.591	0.0014
624.863	0.0022
625.136	0.0028
625.408	0.0025
625.68	0.0023
625.952	0.002
626.224	0.0033
626.496	0.0017
626.768	0.0019
627.04	0.0019
627.311	0.002
627.583	0.0024
627.855	0.0021
628.126	0.0027
628.398	0.003
628.669	0.0029
628.941	0.0022
629.212	0.0009
629.483	0.0014
629.755	0.0013
630.026	0.0007
630.297	0.0013
630.568	0.0002
630.839	0.0002
631.11	0.0006
631.38	0.0001
631.651	0.0006
631.922	0.0009
632.192	0.0006
632.463	0.0002
632.733	0.0007
633.004	0.0013
633.274	-0.0001
633.545	0.0022
633.815	0.0032
634.085	0.0032
634.355	0.0021
634.625	0.0033
634.895	0.0022
635.165	0.0014
635.435	0.0022
635.705	0.0015
635.974	0.0013
636.244	0.0019
636.514	0.0018
636.783	0.0022
637.053	0.0031
637.322	0.0012
637.591	0.0022
637.861	0.0023
638.13	0.002
638.399	0.0023
638.668	0.0027
638.937	0.0018
639.206	0.0026
639.475	0.0016
639.744	0.0018
640.013	0.0032
640.281	0.0043
640.55	0.0036
640.819	0.0034
641.087	0.0031
641.356	0.0029
641.624	0.0024
641.892	0.0026
642.161	0.0028
642.429	0.0033
642.697	0.003
642.965	0.0044
643.233	0.0039
643.501	0.0024
643.769	0.0017
644.037	0.0017
644.305	0.0018
644.572	0.0004
644.84	0.0013
645.108	0.0019
645.375	0.0013
645.643	0.0013
645.91	0.0013
646.177	0.0025
646.445	0.0042
646.712	0.0047
646.979	0.0046
647.246	0.0043
647.513	0.0047
647.78	0.004
648.047	0.0052
648.314	0.0037
648.58	0.0031
648.847	0.0017
649.114	0.0012
649.38	0.0012
649.647	0.0016
649.913	0.0011
650.18	0.0019
650.446	0.0017
650.712	0.0026
650.978	0.003
651.245	0.0033
651.511	0.0031
651.777	0.0024
652.043	0.0028
652.309	0.0028
652.574	0.0043
652.84	0.0029
653.106	0.002
653.371	0.0011
653.637	0.0019
653.903	0.0032
654.168	0.0035
654.433	0.003
654.699	0.0033
654.964	0.0041
655.229	0.0037
655.494	0.0035
655.759	0.0009
656.024	0.0008
656.289	-0
656.554	-0.0009
656.819	0.0009
657.084	0.003
657.349	0.0039
657.613	0.0042
657.878	0.0041
658.142	0.0042
658.407	0.0032
658.671	0.004
658.936	0.0026
659.2	0.0022
659.464	0.0028
659.728	0.0023
659.992	0.0028
660.256	0.0018
660.52	0.0018
660.784	0.0018
661.048	0.0006
661.312	0.0004
661.575	0.0007
661.839	-0.0015
662.103	0
662.366	-0.0009
662.63	0.0001
662.893	0.0008
663.156	0.0006
663.42	0.0005
663.683	0.0008
663.946	0.0023
664.209	0.0034
664.472	0.0034
664.735	0.0032
664.998	0.003
665.261	0.0019
665.524	0.0016
665.786	0.0022
666.049	0.0012
666.312	0.0019
666.574	0.0022
666.837	0.0014
667.099	0.0006
667.361	0.0012
667.624	0.0006
667.886	0.0005
668.148	0.0008
668.41	0.0029
668.672	0.0013
668.934	0.0013
669.196	0.0017
669.458	0.0015
669.72	0.0031
669.982	0.0029
670.243	0.0035
670.505	0.003
670.766	0.0032
671.028	0.0027
671.289	0.0024
671.551	0.0016
671.812	0.0005
672.073	0.0015
672.334	0.0017
672.596	0.0012
672.857	-0.0002
673.118	0.0011
673.379	0.0013
673.639	0.0002
673.9	-0.0002
674.161	-0.0007
674.422	-0.0019
674.682	-0.0013
674.943	-0.0014
675.203	0.0003
675.464	0.0002
675.724	0.0013
675.985	0.0008
676.245	0.0023
676.505	0.0026
676.765	0.0022
677.025	0.0023
677.285	0.0024
677.545	0.0046
677.805	0.0032
678.065	0.0036
678.325	0.0034
678.585	0.0034
678.844	0.0024
679.104	0.0029
679.363	0.0031
679.623	0.0039
679.882	0.0036
680.142	0.0034
680.401	0.0032
680.66	0.0047
680.919	0.0044
681.178	0.0054
681.437	0.0045
681.696	0.0037
681.955	0.0044
682.214	0.0043
682.473	0.0045
682.732	0.0034
682.99	0.0026
683.249	0.0026
683.508	0.0031
683.766	0.0032
684.024	0.0036
684.283	0.0036
684.541	0.0033
684.799	0.0034
685.058	0.0024
685.316	0.0025
685.574	0.0034
685.832	0.0035
686.09	0.0033
686.348	0.0035
686.606	0.0044
686.863	0.0042
687.121	0.0047
687.379	0.0037
687.636	0.0038
687.894	0.0044
688.151	0.0044
688.409	0.0049
688.666	0.0046
688.923	0.0049
689.181	0.004
689.438	0.0029
689.695	0.0027
689.952	0.0015
690.209	0.0028
690.466	0.0023
690.723	0.0044
690.979	0.0031
691.236	0.003
691.493	0.0022
691.75	0.003
692.006	0.0028
692.263	0.0036
692.519	0.0037
692.775	0.0025
693.032	0.0012
693.288	0.0017
693.544	0.0023
693.8	0.0027
694.056	0.0028
694.313	0.0031
694.568	0.0021
694.824	0.0024
695.08	0.0037
695.336	0.0035
695.592	0.0029
695.847	0.0039
696.103	0.0034
696.359	0.0036
696.614	0.0028
696.869	0.0025
697.125	0
697.38	0.0004
697.635	0.0008
697.891	0.0012
698.146	0.0011
698.401	0.0023
698.656	0.0021
698.911	0.0026
699.166	0.0025
699.42	0.0021
699.675	0.0015
699.93	0.001
700.185	0.002
700.439	0.0024
700.694	0.0028
700.948	0.0033
701.203	0.0029
701.457	0.0024
701.711	0.0024
701.965	0.0015
702.22	0.0005
702.474	0.0006
702.728	0.0004
702.982	-0.0009
703.236	-0.0001
703.49	0.0009
703.743	0.0013
703.997	0.0017
704.251	0.0011
704.504	0.0019
704.758	0.0009
705.012	0.0013
705.265	0.0015
705.518	0.0008
705.772	0.0008
706.025	0.0006
706.278	0.0001
706.531	0.0002
706.785	-0.001
707.038	-0.0001
707.291	0.0002
707.543	0.0001
707.796	0.0009
708.049	-0.0001
708.302	-0.0002
708.555	0.0007
708.807	0.0008
709.06	-0.0002
709.312	-0.0014
709.565	-0.0005
709.817	-0.0015
710.069	-0.0011
710.322	0.0001
710.574	-0
710.826	-0.0002
711.078	0.0013
711.33	0.0007
711.582	0.0002
711.834	0.0022
712.086	0.0025
712.338	0.0027
712.59	0.0032
712.841	0.0024
713.093	0.0021
713.344	0.0015
713.596	0.0022
713.847	0.0022
714.099	0.003
714.35	0.0039
714.601	0.0034
714.853	0.0043
715.104	0.0037
715.355	0.0023
715.606	0.0029
715.857	0.0024
716.108	0.0037
716.359	0.0031
716.609	0.0036
716.86	0.0021
717.111	0.0016
717.361	0.0005
717.612	0.0007
717.863	0.0015
718.113	0.0008
718.363	0.0007
718.614	0.0012
718.864	0.0015
719.114	0.0018
719.364	0.0009
719.614	0.0006
719.865	-0.0007
720.114	0.0006
720.364	0.001
720.614	0.0025
720.864	0.0025
721.114	0.0024
721.364	0.0032
721.613	0.0036
721.863	0.0037
722.112	0.0034
722.362	0.0034
722.611	0.0034
722.86	0.0025
723.11	0.0013
723.359	0.002
723.608	0.0032
723.857	0.0038
724.106	0.0056
724.355	0.005
724.604	0.0058
724.853	0.0054
725.102	0.0039
725.351	0.0036
725.599	0.003
725.848	0.0026
726.097	0.0022
726.345	0.002
726.594	0.0015
726.842	0.002
727.09	0.0024
727.339	0.0015
727.587	0.0019
727.835	0.0004
728.083	0.0003
728.331	0.0001
728.579	-0.0009
728.827	-0.0001
729.075	0.0004
729.323	0.0015
729.571	0.0019
729.818	0.0026
730.066	0.0022
730.314	0.0018
730.561	0.0011
730.809	0.0007
731.056	0.0002
731.303	-0.0005
731.551	0.0007
731.798	0.0003
732.045	0.0006
732.292	0.001
732.539	0.0011
732.786	0.0012
733.033	0.0017
733.28	0.0023
733.527	0.0045
733.774	0.0032
734.021	0.0037
734.267	0.0038
734.514	0.0039
734.76	0.0042
735.007	0.0053
735.253	0.006
735.5	0.0054
735.746	0.0055
735.992	0.0053
736.238	0.0048
736.485	0.0063
736.731	0.0057
736.977	0.0054
737.223	0.0047
737.469	0.0057
737.715	0.0057
737.96	0.0075
738.206	0.0071
738.452	0.0088
738.697	0.0086
738.943	0.0074
739.189	0.0058
739.434	0.0034
739.679	0.0029
739.925	0.0034
740.17	0.0026
740.415	0.0024
740.66	0.0035
740.906	0.0042
741.151	0.0039
741.396	0.0031
741.641	0.0061
741.886	0.006
742.13	0.0059
742.375	0.0057
742.62	0.0074
742.865	0.0054
743.109	0.0051
743.354	0.0052
743.598	0.0052
743.843	0.0057
744.087	0.005
744.331	0.0057
744.576	0.0049
744.82	0.0056
745.064	0.0047
745.308	0.0037
745.552	0.0036
745.796	0.0035
746.04	0.0035
746.284	0.0022
746.528	0.0003
746.771	0.0014
747.015	0.0011
747.259	0.0013
747.502	0.0011
747.746	0.0024
747.989	0.0031
748.233	0.0039
748.476	0.0029
748.719	0.0047
748.963	0.0056
749.206	0.0043
749.449	0.005
749.692	0.004
749.935	0.0055
750.178	0.0043
750.421	0.0042
750.664	0.0045
750.906	0.0049
751.149	0.0029
751.392	0.0027
751.635	0.0014
751.877	0.0005
752.12	0.0002
752.362	0.0018
752.604	0.0006
752.847	0.0019
753.089	0.002
753.331	0.0021
753.573	0.0026
753.816	0.0032
754.058	0.0037
754.3	0.0046
754.542	0.0049
754.783	0.0046
755.025	0.0041
755.267	0.0027
755.509	0.0017
755.75	0.0014
755.992	0.0021
756.234	0.0014
756.475	0.0006
756.716	0.0003
756.958	0
757.199	0.0004
757.44	0.0016
757.682	0.0016
757.923	0.0002
758.164	0.0003
758.405	-0.0002
758.646	0.0012
758.887	0.0006
759.128	0.0012
759.369	0.0004
759.609	0.0002
759.85	-0
760.091	0.0012
760.331	0.0006
760.572	-0
760.812	-0.0003
761.053	-0.0002
761.293	0.0012
761.533	0.0011
761.774	0.0014
762.014	0.002
762.254	0.0012
762.494	0.0012
762.734	0.001
762.974	0.001
763.214	-0.0004
763.454	-0.0004
763.694	0.0005
763.933	-0.0004
764.173	0.0012
764.413	0.0005
764.652	0.0007
764.892	0.0012
765.131	0.0016
765.371	0.0016
765.61	0.0023
765.849	0.0017
766.089	0.0024
766.328	0.0033
766.567	0.0035
766.806	0.004
767.045	0.0038
767.284	0.0041
767.523	0.0046
767.762	0.0051
768.001	0.0042
768.239	0.0044
768.478	0.0022
768.717	0.0023
768.955	0.0035
769.194	0.0023
769.432	0.0024
769.671	0.0042
769.909	0.0031
770.148	0.0037
770.386	0.0035
770.624	0.0033
770.862	0.0034
771.1	0.0028
771.338	0.0024
771.576	0.0029
771.814	0.0027
772.052	0.0026
772.29	0.0029
772.528	0.0039
772.765	0.0035
773.003	0.0044
773.24	0.0038
773.478	0.0035
773.716	0.0042
773.953	0.004
774.19	0.0046
774.428	0.0051
774.665	0.0049
774.902	0.0045
775.139	0.0029
775.376	0.004
775.613	0.0033
775.85	0.0032
776.087	0.0028
776.324	0.0031
776.561	0.0034
776.798	0.0058
777.034	0.0067
777.271	0.0069
777.508	0.007
777.744	0.007
777.981	0.0058
778.217	0.0061
778.454	0.0051
778.69	0.0049
778.926	0.006
779.162	0.0045
779.399	0.0049
779.635	0.0039
779.871	0.0047
780.107	0.0054
780.343	0.0049
780.579	0.006
780.814	0.0051
781.05	0.0057
781.286	0.0047
781.522	0.0044
781.757	0.006
781.993	0.0058
782.228	0.0063
782.464	0.0064
782.699	0.0056
782.934	0.0043
783.17	0.0047
783.405	0.0049
783.64	0.0034
783.875	0.0037
784.11	0.0042
784.345	0.0046
784.58	0.0035
784.815	0.0041
785.05	0.0046
785.285	0.0026
785.52	0.0022
785.754	0.0026
785.989	0.0022
786.223	0.0018
786.458	0.0022
786.692	0.0022
786.927	0.0021
787.161	0.0023
787.396	0.001
787.63	0.0014
787.864	0.0002
788.098	0.0004
788.332	0.0016
788.566	0.0008
788.8	0.0013
789.034	0.001
789.268	0.0013
789.502	0.002
789.736	0.002
789.969	0.0031
790.203	0.0026
790.437	0.0029
790.67	0.0026
790.904	0.003
791.137	0.0014
791.37	0.0008
791.604	0.0003
791.837	0.0011
792.07	0.0002
792.303	0.0011
792.537	0.0003
792.77	0.001
793.003	0.0008
793.236	-0.0008
793.469	-0.0002
793.701	0.0001
793.934	0.001
794.167	0.0006
794.4	0.0007
794.632	0.0006
794.865	-0.0003
795.097	0.0007
795.33	0.0018
795.562	0.0007
795.795	0.0017
796.027	0.0013
796.259	0.0019
796.491	0.0011
796.724	0.0006
796.956	0.0018
797.188	0.0019
797.42	0.001
797.652	0.0015
797.883	0.0002
798.115	-0
798.347	-0.0006
798.579	-0.0013
798.81	-0.0019
799.042	-0.0014
799.274	-0.0018
799.505	-0.0018
799.737	-0.002
799.968	-0.0006
800.199	-0.0002
800.431	-0.0004
800.662	0.0004
800.893	0.0006
801.124	-0.0001
801.355	0.0015
801.586	0.0007
801.817	0.001
802.048	0.0008
802.279	0.0011
802.51	0.0012
802.741	-0.0001
802.971	0.0001
803.202	-0.0015
803.433	-0.0009
803.663	0.0002
803.894	0.0001
804.124	0.001
804.354	0.001
804.585	0.0005
804.815	-0.0004
805.045	0.0002
805.275	-0.001
805.506	-0.0592
805.736	0.1757
805.966	-0.0277
806.196	0.1288
