Data from 03 0.2 mM BQDS 0.4 mM K2Cr2O7 1 M H2SO4 5 min_Absorbance_04-47-42-615.txt Node
Date: Wed Dec 08 04:47:42 EST 2021
User: kwabilab-user
Spectrometer: HDX00518
Trigger mode: 0
Integration Time (sec): 5.000000E-2
Scans to average: 50
Nonlinearity correction enabled: false
Boxcar width: 0
Storing dark spectrum: false
XAxis mode: Wavelengths
Number of Pixels in Spectrum: 2068
>>>>>Begin Spectral Data<<<<<
195.27	0.0061
195.642	0.0248
196.014	0.0972
196.386	0.0101
196.758	-0.0331
197.129	-0.0155
197.501	0.0108
197.872	0.0745
198.244	0.0829
198.615	0.0939
198.986	0.0804
199.357	0.08
199.728	0.0858
200.099	0.0811
200.47	0.0957
200.841	0.0732
201.212	0.0818
201.582	0.0716
201.953	0.1018
202.323	0.0834
202.694	0.0665
203.064	0.0759
203.434	0.0729
203.804	0.0912
204.174	0.0919
204.544	0.0753
204.914	0.0827
205.284	0.0848
205.653	0.0969
206.023	0.0841
206.393	0.0776
206.762	0.0844
207.131	0.0831
207.501	0.0866
207.87	0.0973
208.239	0.0858
208.608	0.0805
208.977	0.0963
209.346	0.094
209.715	0.0892
210.083	0.0966
210.452	0.1042
210.82	0.1055
211.189	0.1063
211.557	0.1066
211.925	0.1214
212.294	0.117
212.662	0.1333
213.03	0.1376
213.398	0.1185
213.766	0.1552
214.133	0.1655
214.501	0.1604
214.869	0.1608
215.236	0.1961
215.604	0.1978
215.971	0.2052
216.338	0.2298
216.705	0.2447
217.072	0.2695
217.439	0.2776
217.806	0.3144
218.173	0.3304
218.54	0.3634
218.907	0.4107
219.273	0.4336
219.64	0.4583
220.006	0.5105
220.373	0.5386
220.739	0.5825
221.105	0.6078
221.471	0.6445
221.837	0.6963
222.203	0.7324
222.569	0.7584
222.935	0.7897
223.3	0.8193
223.666	0.8568
224.031	0.8717
224.397	0.8776
224.762	0.9158
225.127	0.9302
225.493	0.9403
225.858	0.956
226.223	0.959
226.588	0.9689
226.952	0.9802
227.317	0.9852
227.682	0.9871
228.046	0.9762
228.411	0.9839
228.775	0.9821
229.14	0.9743
229.504	0.9723
229.868	0.9684
230.232	0.964
230.596	0.9567
230.96	0.9426
231.324	0.9354
231.688	0.9309
232.052	0.9235
232.415	0.9114
232.779	0.9039
233.142	0.8979
233.505	0.8914
233.869	0.8809
234.232	0.871
234.595	0.8628
234.958	0.8539
235.321	0.8438
235.684	0.8349
236.047	0.8242
236.409	0.8165
236.772	0.806
237.134	0.8021
237.497	0.7882
237.859	0.7826
238.222	0.7757
238.584	0.7673
238.946	0.7577
239.308	0.7509
239.67	0.7427
240.032	0.7385
240.393	0.733
240.755	0.7249
241.117	0.7179
241.478	0.7131
241.84	0.7054
242.201	0.6967
242.562	0.6909
242.924	0.6881
243.285	0.6817
243.646	0.6753
244.007	0.6734
244.368	0.6668
244.728	0.6632
245.089	0.658
245.45	0.6535
245.81	0.6509
246.171	0.6463
246.531	0.6403
246.891	0.6404
247.252	0.6343
247.612	0.6327
247.972	0.6301
248.332	0.6298
248.692	0.6263
249.051	0.6204
249.411	0.6207
249.771	0.6149
250.13	0.6115
250.49	0.612
250.849	0.6095
251.208	0.6085
251.568	0.6058
251.927	0.6034
252.286	0.604
252.645	0.602
253.004	0.6006
253.363	0.5967
253.721	0.5976
254.08	0.5963
254.439	0.5949
254.797	0.593
255.155	0.5916
255.514	0.592
255.872	0.5911
256.23	0.588
256.588	0.5877
256.946	0.5865
257.304	0.5841
257.662	0.5851
258.02	0.5823
258.377	0.5821
258.735	0.5794
259.093	0.5796
259.45	0.5784
259.807	0.576
260.165	0.5746
260.522	0.5733
260.879	0.5718
261.236	0.57
261.593	0.5693
261.95	0.5667
262.306	0.5681
262.663	0.5644
263.02	0.5641
263.376	0.561
263.733	0.5595
264.089	0.5566
264.445	0.555
264.802	0.5543
265.158	0.552
265.514	0.5503
265.87	0.5489
266.226	0.5445
266.581	0.5446
266.937	0.541
267.293	0.5399
267.648	0.5393
268.004	0.5351
268.359	0.5332
268.714	0.5286
269.07	0.5276
269.425	0.5241
269.78	0.5235
270.135	0.5202
270.49	0.5186
270.844	0.5147
271.199	0.5126
271.554	0.5086
271.908	0.5053
272.263	0.5026
272.617	0.5005
272.972	0.4975
273.326	0.4949
273.68	0.4909
274.034	0.487
274.388	0.4849
274.742	0.4817
275.096	0.4771
275.45	0.4763
275.803	0.4702
276.157	0.4671
276.51	0.4635
276.864	0.4623
277.217	0.4568
277.571	0.4524
277.924	0.4493
278.277	0.4453
278.63	0.4423
278.983	0.4354
279.336	0.4342
279.688	0.4305
280.041	0.4269
280.394	0.4224
280.746	0.4186
281.099	0.4147
281.451	0.4081
281.803	0.4053
282.156	0.4037
282.508	0.3983
282.86	0.3941
283.212	0.3891
283.564	0.3864
283.916	0.3824
284.267	0.3783
284.619	0.3753
284.971	0.371
285.322	0.3679
285.673	0.3629
286.025	0.3606
286.376	0.3554
286.727	0.3515
287.078	0.347
287.429	0.3445
287.78	0.3391
288.131	0.3355
288.482	0.3313
288.833	0.3286
289.183	0.324
289.534	0.3209
289.884	0.3166
290.235	0.3124
290.585	0.3083
290.935	0.3055
291.285	0.3012
291.635	0.298
291.985	0.2936
292.335	0.2901
292.685	0.2864
293.035	0.2831
293.384	0.2782
293.734	0.2745
294.083	0.2705
294.433	0.2671
294.782	0.2645
295.131	0.2607
295.48	0.2576
295.829	0.2535
296.179	0.2497
296.527	0.2466
296.876	0.2439
297.225	0.2407
297.574	0.237
297.922	0.234
298.271	0.2313
298.619	0.227
298.968	0.225
299.316	0.222
299.664	0.2191
300.012	0.2165
300.36	0.2118
300.708	0.2102
301.056	0.2078
301.404	0.2056
301.752	0.2029
302.099	0.2007
302.447	0.1988
302.794	0.1962
303.142	0.1936
303.489	0.1912
303.836	0.1889
304.183	0.1872
304.531	0.1851
304.878	0.1833
305.224	0.1818
305.571	0.1802
305.918	0.1783
306.265	0.1767
306.611	0.1754
306.958	0.1745
307.304	0.1722
307.651	0.1717
307.997	0.1696
308.343	0.1689
308.689	0.1678
309.035	0.1663
309.381	0.166
309.727	0.1649
310.073	0.1645
310.419	0.1639
310.764	0.163
311.11	0.1618
311.455	0.1613
311.801	0.1603
312.146	0.1606
312.491	0.1599
312.837	0.1601
313.182	0.1596
313.527	0.1599
313.872	0.1591
314.216	0.1586
314.561	0.159
314.906	0.1592
315.251	0.1588
315.595	0.159
315.94	0.1586
316.284	0.1592
316.628	0.159
316.972	0.1592
317.317	0.1596
317.661	0.1606
318.005	0.1604
318.348	0.1606
318.692	0.1614
319.036	0.1612
319.38	0.1625
319.723	0.1627
320.067	0.1631
320.41	0.1643
320.754	0.1643
321.097	0.1655
321.44	0.1661
321.783	0.1672
322.126	0.1678
322.469	0.1692
322.812	0.1699
323.155	0.1711
323.498	0.1719
323.84	0.1725
324.183	0.1741
324.525	0.1749
324.868	0.1758
325.21	0.1771
325.552	0.178
325.894	0.1797
326.236	0.1803
326.578	0.1822
326.92	0.183
327.262	0.1836
327.604	0.1849
327.946	0.1859
328.287	0.1877
328.629	0.1885
328.97	0.1896
329.312	0.191
329.653	0.1921
329.994	0.1937
330.335	0.1953
330.676	0.1963
331.017	0.1972
331.358	0.1993
331.699	0.2001
332.04	0.2015
332.38	0.2031
332.721	0.2044
333.061	0.2053
333.402	0.2066
333.742	0.2081
334.083	0.2099
334.423	0.2102
334.763	0.2117
335.103	0.2131
335.443	0.2137
335.783	0.2146
336.123	0.2154
336.462	0.2167
336.802	0.2175
337.141	0.219
337.481	0.2202
337.82	0.2204
338.16	0.2221
338.499	0.2228
338.838	0.2232
339.177	0.2256
339.516	0.2256
339.855	0.2273
340.194	0.2279
340.533	0.229
340.872	0.2298
341.21	0.2308
341.549	0.2313
341.887	0.233
342.226	0.2331
342.564	0.2328
342.902	0.2334
343.24	0.2334
343.578	0.2333
343.916	0.2346
344.254	0.2348
344.592	0.2354
344.93	0.2353
345.268	0.2357
345.605	0.2353
345.943	0.2356
346.28	0.2358
346.618	0.236
346.955	0.2356
347.292	0.2365
347.629	0.237
347.966	0.2367
348.303	0.2366
348.64	0.2365
348.977	0.2366
349.314	0.2367
349.65	0.2369
349.987	0.2363
350.324	0.2361
350.66	0.2356
350.996	0.2357
351.333	0.2348
351.669	0.2342
352.005	0.2339
352.341	0.233
352.677	0.2321
353.013	0.2306
353.349	0.2309
353.685	0.2292
354.02	0.2287
354.356	0.2275
354.691	0.2266
355.027	0.2255
355.362	0.2244
355.697	0.2233
356.033	0.2223
356.368	0.2214
356.703	0.2214
357.038	0.2196
357.373	0.2196
357.707	0.2183
358.042	0.2175
358.377	0.2169
358.711	0.2153
359.046	0.2143
359.38	0.213
359.715	0.2123
360.049	0.2109
360.383	0.2101
360.717	0.2086
361.051	0.2062
361.385	0.2061
361.719	0.2045
362.053	0.2032
362.387	0.2005
362.72	0.1991
363.054	0.1972
363.387	0.1959
363.721	0.1947
364.054	0.1926
364.387	0.1902
364.721	0.1895
365.054	0.1871
365.387	0.1853
365.72	0.184
366.053	0.183
366.385	0.1807
366.718	0.1794
367.051	0.178
367.383	0.1769
367.716	0.1755
368.048	0.1753
368.381	0.1731
368.713	0.1719
369.045	0.1705
369.377	0.1689
369.709	0.1672
370.041	0.1662
370.373	0.1655
370.705	0.1635
371.037	0.1616
371.368	0.1599
371.7	0.1587
372.031	0.1567
372.363	0.1549
372.694	0.1537
373.025	0.1517
373.356	0.1495
373.688	0.1477
374.019	0.1451
374.35	0.1434
374.68	0.1419
375.011	0.14
375.342	0.1378
375.673	0.1364
376.003	0.1346
376.334	0.1328
376.664	0.1307
376.995	0.1296
377.325	0.1287
377.655	0.1275
377.985	0.1256
378.315	0.1246
378.645	0.1225
378.975	0.1214
379.305	0.1206
379.635	0.1193
379.964	0.1175
380.294	0.1169
380.623	0.1148
380.953	0.1138
381.282	0.113
381.611	0.1109
381.941	0.1102
382.27	0.1089
382.599	0.1071
382.928	0.1061
383.257	0.1046
383.585	0.1039
383.914	0.1021
384.243	0.1005
384.571	0.0987
384.9	0.0968
385.228	0.0953
385.557	0.094
385.885	0.093
386.213	0.0905
386.541	0.0891
386.869	0.0878
387.197	0.0861
387.525	0.0845
387.853	0.0828
388.181	0.0821
388.508	0.0814
388.836	0.0802
389.164	0.0788
389.491	0.0777
389.818	0.0762
390.146	0.0751
390.473	0.0738
390.8	0.0724
391.127	0.0716
391.454	0.0714
391.781	0.0696
392.108	0.0686
392.435	0.0674
392.761	0.0666
393.088	0.0664
393.415	0.0652
393.741	0.0648
394.067	0.064
394.394	0.0632
394.72	0.0624
395.046	0.0613
395.372	0.06
395.698	0.0593
396.024	0.0586
396.35	0.0578
396.676	0.0576
397.001	0.0566
397.327	0.0555
397.653	0.0543
397.978	0.0536
398.303	0.0523
398.629	0.0518
398.954	0.0518
399.279	0.0512
399.604	0.0508
399.929	0.0497
400.254	0.0491
400.579	0.0483
400.904	0.0475
401.229	0.047
401.553	0.0461
401.878	0.0458
402.202	0.045
402.527	0.045
402.851	0.0447
403.175	0.0445
403.5	0.0437
403.824	0.0444
404.148	0.0433
404.472	0.0432
404.796	0.0424
405.119	0.0416
405.443	0.0414
405.767	0.0409
406.09	0.0411
406.414	0.042
406.737	0.0409
407.061	0.041
407.384	0.0409
407.707	0.0401
408.03	0.041
408.353	0.0406
408.676	0.0404
408.999	0.0401
409.322	0.0398
409.645	0.0406
409.968	0.0392
410.29	0.0394
410.613	0.0395
410.935	0.0387
411.258	0.0402
411.58	0.0397
411.902	0.0396
412.224	0.0398
412.546	0.0389
412.868	0.0391
413.19	0.0393
413.512	0.0386
413.834	0.039
414.156	0.0405
414.477	0.0394
414.799	0.0391
415.121	0.0396
415.442	0.0395
415.763	0.0397
416.085	0.0389
416.406	0.0395
416.727	0.0389
417.048	0.0394
417.369	0.0396
417.69	0.0391
418.011	0.0389
418.331	0.0393
418.652	0.0392
418.973	0.04
419.293	0.0394
419.614	0.0402
419.934	0.0395
420.254	0.0399
420.574	0.0396
420.895	0.0393
421.215	0.0391
421.535	0.0391
421.855	0.0396
422.174	0.0388
422.494	0.0394
422.814	0.0401
423.134	0.0402
423.453	0.0401
423.773	0.0399
424.092	0.0397
424.411	0.0398
424.731	0.0402
425.05	0.0399
425.369	0.0396
425.688	0.0407
426.007	0.0408
426.326	0.0403
426.644	0.041
426.963	0.0407
427.282	0.0415
427.6	0.0408
427.919	0.0409
428.237	0.0403
428.556	0.0413
428.874	0.0405
429.192	0.0409
429.51	0.0408
429.828	0.0411
430.146	0.0415
430.464	0.041
430.782	0.0408
431.1	0.0408
431.418	0.0408
431.735	0.0409
432.053	0.0416
432.37	0.0415
432.688	0.0408
433.005	0.0413
433.322	0.0413
433.639	0.0416
433.957	0.0418
434.274	0.0418
434.591	0.0416
434.907	0.042
435.224	0.0415
435.541	0.0418
435.858	0.0426
436.174	0.042
436.491	0.0419
436.807	0.042
437.124	0.0412
437.44	0.0411
437.756	0.0417
438.072	0.0408
438.388	0.0418
438.704	0.0415
439.02	0.0414
439.336	0.041
439.652	0.0415
439.968	0.0416
440.283	0.0412
440.599	0.0414
440.914	0.0411
441.23	0.0417
441.545	0.0409
441.86	0.0412
442.175	0.0417
442.491	0.0407
442.806	0.0408
443.121	0.041
443.435	0.0405
443.75	0.0412
444.065	0.0402
444.38	0.0407
444.694	0.0409
445.009	0.0409
445.323	0.0404
445.638	0.0409
445.952	0.0403
446.266	0.04
446.58	0.0409
446.894	0.0409
447.208	0.041
447.522	0.0408
447.836	0.04
448.15	0.0402
448.464	0.0396
448.777	0.0402
449.091	0.0392
449.404	0.0402
449.718	0.0408
450.031	0.04
450.345	0.0395
450.658	0.0402
450.971	0.0394
451.284	0.0383
451.597	0.0396
451.91	0.0401
452.223	0.039
452.535	0.04
452.848	0.0393
453.161	0.0393
453.473	0.0392
453.786	0.0392
454.098	0.0387
454.411	0.0387
454.723	0.0382
455.035	0.0384
455.347	0.0397
455.659	0.039
455.971	0.0388
456.283	0.0382
456.595	0.0379
456.907	0.0389
457.218	0.0381
457.53	0.038
457.841	0.0364
458.153	0.0367
458.464	0.0369
458.776	0.0358
459.087	0.0367
459.398	0.0363
459.709	0.0364
460.02	0.0361
460.331	0.0361
460.642	0.0353
460.953	0.0357
461.263	0.0358
461.574	0.0355
461.885	0.036
462.195	0.0356
462.506	0.0352
462.816	0.0352
463.126	0.0344
463.437	0.0348
463.747	0.0336
464.057	0.0338
464.367	0.0334
464.677	0.0337
464.987	0.0334
465.296	0.0335
465.606	0.0336
465.916	0.033
466.225	0.0325
466.535	0.0326
466.844	0.0323
467.154	0.032
467.463	0.0318
467.772	0.0326
468.081	0.0318
468.39	0.0318
468.699	0.0313
469.008	0.0312
469.317	0.0313
469.626	0.0304
469.935	0.0307
470.243	0.0312
470.552	0.031
470.86	0.0304
471.169	0.0304
471.477	0.0305
471.785	0.031
472.093	0.0303
472.402	0.0292
472.71	0.0295
473.018	0.0286
473.326	0.0288
473.633	0.0288
473.941	0.0283
474.249	0.0283
474.556	0.0286
474.864	0.0279
475.171	0.0276
475.479	0.0275
475.786	0.0281
476.094	0.0281
476.401	0.0273
476.708	0.0273
477.015	0.0274
477.322	0.0265
477.629	0.0268
477.936	0.0259
478.242	0.0256
478.549	0.0263
478.856	0.0255
479.162	0.0257
479.469	0.0249
479.775	0.0254
480.081	0.024
480.388	0.0251
480.694	0.0239
481	0.024
481.306	0.0244
481.612	0.0244
481.918	0.0231
482.224	0.0242
482.53	0.0236
482.835	0.0236
483.141	0.0216
483.446	0.0227
483.752	0.0225
484.057	0.0216
484.363	0.0222
484.668	0.022
484.973	0.0219
485.278	0.0211
485.583	0.0205
485.888	0.0209
486.193	0.0205
486.498	0.0204
486.803	0.0208
487.107	0.0205
487.412	0.0193
487.717	0.0196
488.021	0.0198
488.325	0.019
488.63	0.0187
488.934	0.0186
489.238	0.0198
489.542	0.019
489.846	0.0177
490.15	0.0188
490.454	0.0179
490.758	0.0182
491.062	0.0178
491.366	0.0176
491.669	0.0176
491.973	0.0177
492.276	0.0175
492.58	0.0163
492.883	0.0173
493.186	0.0168
493.489	0.0172
493.792	0.0164
494.096	0.0165
494.399	0.0163
494.701	0.0165
495.004	0.0156
495.307	0.0162
495.61	0.0153
495.912	0.0156
496.215	0.0147
496.517	0.0149
496.82	0.0149
497.122	0.0142
497.424	0.0139
497.727	0.0149
498.029	0.015
498.331	0.015
498.633	0.015
498.935	0.0138
499.237	0.0142
499.538	0.0133
499.84	0.013
500.142	0.0141
500.443	0.0139
500.745	0.0128
501.046	0.0133
501.348	0.0127
501.649	0.0129
501.95	0.0122
502.251	0.0131
502.552	0.0107
502.853	0.0109
503.154	0.0115
503.455	0.0109
503.756	0.0113
504.057	0.0117
504.357	0.0107
504.658	0.0107
504.958	0.0112
505.259	0.0125
505.559	0.0115
505.859	0.0108
506.16	0.0114
506.46	0.0112
506.76	0.0107
507.06	0.0102
507.36	0.0101
507.66	0.0107
507.96	0.0101
508.259	0.0096
508.559	0.0089
508.859	0.0105
509.158	0.0101
509.457	0.0089
509.757	0.0103
510.056	0.0092
510.355	0.0075
510.655	0.0081
510.954	0.0089
511.253	0.0093
511.552	0.0096
511.851	0.0082
512.149	0.0076
512.448	0.0083
512.747	0.0091
513.045	0.0074
513.344	0.009
513.642	0.0088
513.941	0.0082
514.239	0.0083
514.537	0.0077
514.836	0.0069
515.134	0.0069
515.432	0.0076
515.73	0.008
516.028	0.0063
516.326	0.008
516.623	0.0069
516.921	0.0061
517.219	0.0078
517.516	0.0063
517.814	0.007
518.111	0.0067
518.409	0.0086
518.706	0.008
519.003	0.007
519.3	0.006
519.597	0.0063
519.894	0.0069
520.191	0.0079
520.488	0.0075
520.785	0.0048
521.082	0.0062
521.378	0.0058
521.675	0.0057
521.971	0.0055
522.268	0.0063
522.564	0.0049
522.861	0.0059
523.157	0.0044
523.453	0.0057
523.749	0.0058
524.045	0.0058
524.341	0.0056
524.637	0.0046
524.933	0.0049
525.229	0.0057
525.524	0.0043
525.82	0.0066
526.115	0.005
526.411	0.0051
526.706	0.0041
527.002	0.0052
527.297	0.0038
527.592	0.006
527.887	0.0051
528.182	0.0048
528.477	0.0057
528.772	0.0057
529.067	0.0049
529.362	0.0051
529.657	0.0048
529.951	0.0051
530.246	0.0044
530.54	0.0032
530.835	0.0041
531.129	0.0027
531.423	0.005
531.718	0.0039
532.012	0.0039
532.306	0.004
532.6	0.0036
532.894	0.0032
533.188	0.0043
533.482	0.0034
533.775	0.004
534.069	0.0035
534.363	0.0022
534.656	0.0036
534.95	0.0025
535.243	0.0039
535.536	0.0036
535.83	0.004
536.123	0.0033
536.416	0.0039
536.709	0.0042
537.002	0.004
537.295	0.003
537.588	0.0039
537.881	0.0037
538.173	0.0032
538.466	0.0039
538.759	0.002
539.051	0.0023
539.344	0.0038
539.636	0.0032
539.928	0.0029
540.22	0.0032
540.513	0.0032
540.805	0.003
541.097	0.0034
541.389	0.0022
541.681	0.0028
541.972	0.0033
542.264	0.0021
542.556	0.0031
542.847	0.0027
543.139	0.0039
543.431	0.0046
543.722	0.0042
544.013	0.0038
544.305	0.0047
544.596	0.0058
544.887	0.0037
545.178	0.0041
545.469	0.0033
545.76	0.0036
546.051	0.0048
546.342	0.0047
546.632	0.0027
546.923	0.0041
547.214	0.0037
547.504	0.0038
547.795	0.0036
548.085	0.0038
548.375	0.0033
548.666	0.0042
548.956	0.0031
549.246	0.0033
549.536	0.003
549.826	0.003
550.116	0.0043
550.406	0.0032
550.695	0.0043
550.985	0.0044
551.275	0.0043
551.564	0.0034
551.854	0.0037
552.143	0.0034
552.433	0.0031
552.722	0.0025
553.011	0.0019
553.3	0.0031
553.589	0.0028
553.879	0.0029
554.167	0.0031
554.456	0.0029
554.745	0.0019
555.034	0.0016
555.323	0.0014
555.611	0.002
555.9	0.0031
556.188	0.0028
556.477	0.0024
556.765	0.0016
557.053	0.0028
557.342	0.0016
557.63	0.0023
557.918	0.0014
558.206	0.0029
558.494	0.0032
558.782	0.0025
559.069	0.0025
559.357	0.0028
559.645	0.0023
559.932	0.0025
560.22	0.0036
560.507	0.0022
560.795	0.0026
561.082	0.0031
561.37	0.0032
561.657	0.0024
561.944	0.0031
562.231	0.0033
562.518	0.0022
562.805	0.0028
563.092	0.0042
563.379	0.0029
563.665	0.0028
563.952	0.0028
564.239	0.0037
564.525	0.0036
564.811	0.0042
565.098	0.0038
565.384	0.0037
565.67	0.0028
565.957	0.003
566.243	0.0032
566.529	0.003
566.815	0.0037
567.101	0.0026
567.387	0.0028
567.672	0.003
567.958	0.0032
568.244	0.003
568.529	0.0035
568.815	0.002
569.1	0.0034
569.386	0.0025
569.671	0.0027
569.956	0.0026
570.242	0.0023
570.527	0.0029
570.812	0.003
571.097	0.0033
571.382	0.0023
571.666	0.0024
571.951	0.003
572.236	0.0033
572.521	0.0018
572.805	0.0037
573.09	0.0025
573.374	0.0028
573.659	0.0019
573.943	0.003
574.227	0.0024
574.511	0.0034
574.795	0.0031
575.079	0.0026
575.363	0.0026
575.647	0.0034
575.931	0.0037
576.215	0.0023
576.499	0.0027
576.782	0.0024
577.066	0.0021
577.349	0.003
577.633	0.0042
577.916	0.0038
578.2	0.003
578.483	0.0028
578.766	0.0033
579.049	0.0033
579.332	0.0037
579.615	0.0028
579.898	0.0034
580.181	0.0033
580.464	0.0031
580.746	0.0022
581.029	0.0036
581.312	0.0028
581.594	0.0028
581.877	0.0031
582.159	0.0038
582.441	0.0029
582.724	0.0023
583.006	0.0032
583.288	0.0015
583.57	0.0022
583.852	0.0024
584.134	0.0019
584.416	0.003
584.697	0.0036
584.979	0.0033
585.261	0.0031
585.542	0.0029
585.824	0.0034
586.105	0.0039
586.387	0.0026
586.668	0.0027
586.949	0.0026
587.231	0.0029
587.512	0.003
587.793	0.0028
588.074	0.0033
588.355	0.004
588.636	0.0038
588.916	0.003
589.197	0.0032
589.478	0.0031
589.758	0.0031
590.039	0.0033
590.319	0.0027
590.6	0.0032
590.88	0.0025
591.16	0.0027
591.441	0.0032
591.721	0.0033
592.001	0.0028
592.281	0.0032
592.561	0.0038
592.841	0.0036
593.12	0.0031
593.4	0.0023
593.68	0.003
593.959	0.0032
594.239	0.0036
594.518	0.0018
594.798	0.0025
595.077	0.0029
595.356	0.0026
595.636	0.0028
595.915	0.0033
596.194	0.0027
596.473	0.0034
596.752	0.0029
597.031	0.0029
597.31	0.0016
597.588	0.0023
597.867	0.0024
598.146	0.0028
598.424	0.0031
598.703	0.0024
598.981	0.0024
599.259	0.0028
599.538	0.0035
599.816	0.0035
600.094	0.0029
600.372	0.0028
600.65	0.0035
600.928	0.0031
601.206	0.0038
601.484	0.0032
601.762	0.0035
602.04	0.0025
602.317	0.0027
602.595	0.0021
602.872	0.0024
603.15	0.0019
603.427	0.002
603.704	0.0018
603.982	0.0023
604.259	0.0019
604.536	0.0024
604.813	0.0021
605.09	0.0029
605.367	0.0026
605.644	0.0018
605.921	0.0023
606.197	0.0022
606.474	0.0028
606.751	0.0032
607.027	0.0027
607.304	0.0026
607.58	0.0024
607.856	0.0025
608.133	0.0031
608.409	0.0038
608.685	0.002
608.961	0.0028
609.237	0.0022
609.513	0.002
609.789	0.0026
610.065	0.0021
610.341	0.0023
610.616	0.0022
610.892	0.0028
611.167	0.0038
611.443	0.0027
611.718	0.002
611.994	0.0016
612.269	0.0023
612.544	0.0023
612.819	0.0022
613.095	0.0028
613.37	0.0029
613.645	0.0019
613.919	0.0022
614.194	0.003
614.469	0.003
614.744	0.0021
615.019	0.0017
615.293	0.0022
615.568	0.0017
615.842	0.0019
616.116	0.0015
616.391	0.0009
616.665	0.0028
616.939	0.002
617.213	0.0018
617.488	0.0026
617.762	0.0025
618.035	0.0021
618.309	0.0023
618.583	0.0013
618.857	0.0017
619.131	0.0026
619.404	0.002
619.678	0.0021
619.951	0.0013
620.225	0.0015
620.498	0.0014
620.771	0.0014
621.045	0.0017
621.318	0.0014
621.591	0.0017
621.864	0.0007
622.137	0.0003
622.41	0.0007
622.683	0.0005
622.956	0.002
623.228	0.0021
623.501	0.0021
623.774	0.0028
624.046	0.0025
624.319	0.002
624.591	0.0012
624.863	0.0019
625.136	0.0017
625.408	0.0025
625.68	0.0016
625.952	0.0025
626.224	0.0023
626.496	0.0018
626.768	0.0019
627.04	0.0021
627.311	0.0024
627.583	0.0019
627.855	0.0016
628.126	0.002
628.398	0.0019
628.669	0.0025
628.941	0.0012
629.212	0.0005
629.483	0.0014
629.755	0.0016
630.026	0.0018
630.297	0.0014
630.568	0.0008
630.839	0.0004
631.11	-0.0005
631.38	-0.0007
631.651	-0.0004
631.922	-0.0008
632.192	-0.0015
632.463	-0.0014
632.733	-0.001
633.004	-0.0007
633.274	-0.0022
633.545	0.0003
633.815	0.0005
634.085	0.0007
634.355	-0.0001
634.625	0.0023
634.895	0.0006
635.165	-0.0005
635.435	0.0003
635.705	0.0006
635.974	0.0009
636.244	0.0016
636.514	0.0018
636.783	0.0018
637.053	0.0021
637.322	0.0016
637.591	0.0029
637.861	0.0015
638.13	0.0017
638.399	0.0014
638.668	0.0026
638.937	-0.0002
639.206	0.0015
639.475	0.002
639.744	0.0017
640.013	0.0017
640.281	0.0033
640.55	0.0023
640.819	0.002
641.087	0.002
641.356	0.0019
641.624	0.0017
641.892	0.0016
642.161	0.0024
642.429	0.0019
642.697	0.0012
642.965	0.0023
643.233	0.002
643.501	0.001
643.769	0.0013
644.037	0.0013
644.305	0.0014
644.572	0.0001
644.84	0
645.108	0.0012
645.375	0.0002
645.643	0.0008
645.91	0.0008
646.177	0.003
646.445	0.0042
646.712	0.0046
646.979	0.0044
647.246	0.0039
647.513	0.0045
647.78	0.004
648.047	0.0047
648.314	0.0036
648.58	0.0032
648.847	0.0021
649.114	0.0011
649.38	0.0011
649.647	0.0003
649.913	0.0003
650.18	0.001
650.446	0.0014
650.712	0.0024
650.978	0.0023
651.245	0.0024
651.511	0.0019
651.777	0.0023
652.043	0.0013
652.309	0.0016
652.574	0.0022
652.84	0.0009
653.106	-0.0013
653.371	-0.0001
653.637	0.0007
653.903	0.0015
654.168	0.0007
654.433	0.0024
654.699	0.0025
654.964	0.003
655.229	0.0023
655.494	0.0023
655.759	0.0022
656.024	0.001
656.289	-0
656.554	0.0009
656.819	0.0005
657.084	0.0009
657.349	0.0026
657.613	0.0021
657.878	0.0016
658.142	0.0009
658.407	0.0015
658.671	0
658.936	-0.0005
659.2	-0.001
659.464	0.0004
659.728	-0.0002
659.992	0.0009
660.256	-0.0009
660.52	-0.0005
660.784	-0.0001
661.048	0.0001
661.312	-0.001
661.575	-0.0012
661.839	-0.0023
662.103	-0.0022
662.366	-0.0015
662.63	-0.0013
662.893	-0.0009
663.156	-0.0008
663.42	-0.0011
663.683	-0.0005
663.946	0.0013
664.209	0.0023
664.472	0.0018
664.735	0.0017
664.998	0.001
665.261	-0.0002
665.524	-0.0005
665.786	0.0003
666.049	0.0001
666.312	-0.0005
666.574	-0.0005
666.837	-0.0011
667.099	-0.0021
667.361	-0.0025
667.624	-0.0024
667.886	-0.0012
668.148	-0.0006
668.41	0.0016
668.672	0.0001
668.934	0.0007
669.196	0.0004
669.458	0.0005
669.72	0.0009
669.982	-0.0003
670.243	0.0005
670.505	0.0006
670.766	-0.0001
671.028	0.0003
671.289	0.0008
671.551	0.0011
671.812	-0.0002
672.073	0.0003
672.334	-0.0007
672.596	0.0003
672.857	-0.0006
673.118	-0.0004
673.379	-0.0002
673.639	-0.0005
673.9	0.0001
674.161	-0.0016
674.422	-0.0018
674.682	-0.0012
674.943	-0.0016
675.203	-0.0007
675.464	-0.0005
675.724	0.0005
675.985	0.0005
676.245	0.002
676.505	0.0024
676.765	0.002
677.025	0.0025
677.285	0.0019
677.545	0.003
677.805	0.0024
678.065	0.0022
678.325	0.0025
678.585	0.0022
678.844	0.0016
679.104	0.0011
679.363	0.0013
679.623	0.0022
679.882	0.0019
680.142	0.0021
680.401	0.0021
680.66	0.0032
680.919	0.0029
681.178	0.0041
681.437	0.0045
681.696	0.0037
681.955	0.0034
682.214	0.0039
682.473	0.0035
682.732	0.0024
682.99	0.0027
683.249	0.0036
683.508	0.0031
683.766	0.0027
684.024	0.0023
684.283	0.0027
684.541	0.0026
684.799	0.003
685.058	0.0026
685.316	0.0025
685.574	0.0029
685.832	0.0037
686.09	0.0032
686.348	0.0047
686.606	0.0039
686.863	0.0045
687.121	0.0043
687.379	0.0031
687.636	0.0031
687.894	0.0041
688.151	0.0037
688.409	0.0029
688.666	0.0025
688.923	0.0028
689.181	0.0025
689.438	0.0017
689.695	0.0016
689.952	0.0003
690.209	-0
690.466	0.0001
690.723	0.0015
690.979	0.0007
691.236	0.001
691.493	0.0011
691.75	0.0024
692.006	0.0033
692.263	0.0037
692.519	0.0042
692.775	0.0038
693.032	0.0017
693.288	0.0031
693.544	0.0026
693.8	0.0022
694.056	0.0029
694.313	0.0025
694.568	0.0024
694.824	0.0021
695.08	0.003
695.336	0.0031
695.592	0.002
695.847	0.0028
696.103	0.0026
696.359	0.002
696.614	0.0011
696.869	0.0016
697.125	0.0006
697.38	-0.0004
697.635	-0.0004
697.891	-0.0003
698.146	-0.0005
698.401	0.0001
698.656	-0.0012
698.911	-0.0001
699.166	-0.0011
699.42	-0.0009
699.675	-0.0007
699.93	-0.002
700.185	-0.0008
700.439	0.0006
700.694	-0.0003
700.948	0.0014
701.203	0.0013
701.457	0.0004
701.711	0.0009
701.965	-0.0005
702.22	-0.0003
702.474	0.0007
702.728	-0.0003
702.982	-0.0001
703.236	0.0003
703.49	0.0013
703.743	-0
703.997	0.0011
704.251	0.0005
704.504	0.0016
704.758	0.0012
705.012	-0
705.265	-0.0008
705.518	-0.0008
705.772	-0.0018
706.025	-0.0006
706.278	-0.0003
706.531	-0.0011
706.785	-0.0004
707.038	-0.0007
707.291	-0.0013
707.543	-0.0011
707.796	-0.0016
708.049	-0.0025
708.302	-0.0019
708.555	-0.0015
708.807	-0.0013
709.06	-0.0016
709.312	-0.0028
709.565	-0.0023
709.817	-0.0032
710.069	-0.0032
710.322	-0.002
710.574	-0.0016
710.826	-0.0022
711.078	-0.0016
711.33	-0.0023
711.582	-0.0028
711.834	-0.001
712.086	-0.0012
712.338	-0.0004
712.59	-0.0009
712.841	-0.0003
713.093	-0.0012
713.344	-0.0015
713.596	0.0001
713.847	0.0006
714.099	0.0005
714.35	0.0002
714.601	0.0016
714.853	0.002
715.104	0.0011
715.355	0.0012
715.606	0.0005
715.857	0.001
716.108	0.0013
716.359	0.0021
716.609	0.0016
716.86	0.0005
717.111	-0.0005
717.361	-0.0017
717.612	-0.0009
717.863	-0.0016
718.113	-0.0011
718.363	-0.0005
718.614	-0.0003
718.864	-0
719.114	0.0003
719.364	0.0004
719.614	-0.0012
719.865	-0.0013
720.114	-0.0011
720.364	-0.0006
720.614	-0.0002
720.864	0.0011
721.114	0.0008
721.364	0.0016
721.613	0.0015
721.863	0.002
722.112	0.0024
722.362	0.0032
722.611	0.0022
722.86	0.001
723.11	0.0007
723.359	0.0006
723.608	0.0021
723.857	0.0028
724.106	0.0033
724.355	0.0043
724.604	0.0045
724.853	0.0038
725.102	0.0023
725.351	0.0015
725.599	0.0027
725.848	0.0021
726.097	0.0016
726.345	0.002
726.594	0.0015
726.842	0.0009
727.09	0.0006
727.339	0.0007
727.587	-0.0002
727.835	-0.0011
728.083	-0.001
728.331	-0.0018
728.579	-0.0023
728.827	-0.0024
729.075	-0.0028
729.323	-0.0009
729.571	-0.0003
729.818	-0.0012
730.066	-0.0004
730.314	-0.0004
730.561	-0.0018
730.809	-0.0019
731.056	-0.0007
731.303	-0.0015
731.551	-0.0009
731.798	-0.0009
732.045	-0.0008
732.292	-0.0011
732.539	-0.001
732.786	-0.0004
733.033	0.0008
733.28	0.0003
733.527	0.0019
733.774	0.0009
734.021	0.0024
734.267	0.0028
734.514	0.003
734.76	0.0026
735.007	0.005
735.253	0.0056
735.5	0.0052
735.746	0.0053
735.992	0.0035
736.238	0.003
736.485	0.0035
736.731	0.0028
736.977	0.0031
737.223	0.0017
737.469	0.0025
737.715	0.0024
737.96	0.0035
738.206	0.0029
738.452	0.0045
738.697	0.0043
738.943	0.0034
739.189	0.0016
739.434	0.0001
739.679	-0.0005
739.925	-0.0013
740.17	-0.001
740.415	-0.0013
740.66	-0.0006
740.906	0.0001
741.151	0.0004
741.396	0.0005
741.641	0.0026
741.886	0.0028
742.13	0.0031
742.375	0.004
742.62	0.0048
742.865	0.0042
743.109	0.0034
743.354	0.0036
743.598	0.0032
743.843	0.0035
744.087	0.0036
744.331	0.0028
744.576	0.003
744.82	0.0028
745.064	0.0032
745.308	0.0023
745.552	0.0022
745.796	0.0025
746.04	0.0029
746.284	0.0019
746.528	-0.0002
746.771	0.0015
747.015	0.0014
747.259	0.0011
747.502	0.0011
747.746	0.0022
747.989	0.0018
748.233	0.0026
748.476	0.0018
748.719	0.0024
748.963	0.0021
749.206	0.0013
749.449	0.0023
749.692	0.0007
749.935	0.0016
750.178	0.0011
750.421	0.0021
750.664	0.0021
750.906	0.0023
751.149	0.0014
751.392	0.0012
751.635	0.0005
751.877	-0.001
752.12	0
752.362	0.0002
752.604	0.0002
752.847	0.001
753.089	0.0006
753.331	0.0001
753.573	-0
753.816	0.0007
754.058	0.0008
754.3	0.001
754.542	0.001
754.783	0.001
755.025	0.0016
755.267	-0.0001
755.509	-0.0003
755.75	0.0003
755.992	0.0009
756.234	0.0003
756.475	0.0001
756.716	0
756.958	-0
757.199	0.0009
757.44	0.002
757.682	0.0024
757.923	0.0013
758.164	-0
758.405	0.0004
758.646	0.0002
758.887	0.0007
759.128	-0.0002
759.369	-0.0009
759.609	-0.0007
759.85	-0.0003
760.091	0.0005
760.331	0.0002
760.572	0.0004
760.812	-0.0014
761.053	-0.0015
761.293	-0.0017
761.533	-0.0011
761.774	-0.0013
762.014	-0.0011
762.254	-0.001
762.494	-0.002
762.734	-0.0019
762.974	-0.0021
763.214	-0.0019
763.454	-0.0018
763.694	-0.002
763.933	-0.0023
764.173	-0.001
764.413	-0.0018
764.652	-0.0002
764.892	0.0003
765.131	0.0004
765.371	-0.0002
765.61	0.0015
765.849	0.0008
766.089	0.0008
766.328	0.0015
766.567	0.0014
766.806	0.0006
767.045	0.0014
767.284	0.0017
767.523	0.0015
767.762	0.0012
768.001	0.0009
768.239	0.0014
768.478	-0.0009
768.717	0.0006
768.955	0.0011
769.194	-0
769.432	-0.0007
769.671	0.0006
769.909	-0.0008
770.148	0.0004
770.386	0.0002
770.624	0.0006
770.862	0.001
771.1	-0.0001
771.338	-0.0001
771.576	0.0006
771.814	-0.0005
772.052	-0.0009
772.29	-0.0001
772.528	0
772.765	0.0005
773.003	0.0008
773.24	0.0005
773.478	0.001
773.716	0.0025
773.953	0.0027
774.19	0.0029
774.428	0.0029
774.665	0.0032
774.902	0.0028
775.139	0.0013
775.376	0.0015
775.613	0.0005
775.85	0.0013
776.087	0.0006
776.324	0.0005
776.561	0.0011
776.798	0.0028
777.034	0.0034
777.271	0.0041
777.508	0.0046
777.744	0.0043
777.981	0.0035
778.217	0.0038
778.454	0.0037
778.69	0.0026
778.926	0.0032
779.162	0.0026
779.399	0.0022
779.635	0.0013
779.871	0.0012
780.107	0.0015
780.343	0.0014
780.579	0.002
780.814	0.0013
781.05	0.0018
781.286	0.0017
781.522	0.0018
781.757	0.0026
781.993	0.0021
782.228	0.0023
782.464	0.0015
782.699	0.0006
782.934	0.0006
783.17	0.001
783.405	0.0003
783.64	0.0008
783.875	0.0013
784.11	0.0022
784.345	0.0029
784.58	0.0024
784.815	0.0022
785.05	0.0033
785.285	0.0012
785.52	0.0008
785.754	0.0024
785.989	0.0008
786.223	-0.0003
786.458	-0.0003
786.692	-0.0013
786.927	-0.002
787.161	-0.0024
787.396	-0.0028
787.63	-0.0026
787.864	-0.0031
788.098	-0.0021
788.332	-0.0019
788.566	-0.0009
788.8	-0.0017
789.034	-0.0007
789.268	-0.0004
789.502	0.0002
789.736	0.0011
789.969	0.0021
790.203	0.002
790.437	0.0015
790.67	0.0012
790.904	0.001
791.137	-0.0009
791.37	-0.0004
791.604	-0.0016
791.837	-0.0004
792.07	-0.0019
792.303	-0.0004
792.537	-0.0018
792.77	-0.0004
793.003	-0.0014
793.236	-0.0015
793.469	-0.0024
793.701	-0.0014
793.934	-0.0015
794.167	-0.001
794.4	-0.0011
794.632	-0.0005
794.865	-0.0017
795.097	-0.001
795.33	0.0013
795.562	-0.0004
795.795	-0
796.027	-0.0003
796.259	-0.0006
796.491	-0.0006
796.724	-0.0006
796.956	-0.0004
797.188	0.0004
797.42	-0.0006
797.652	-0.0001
797.883	-0.0015
798.115	-0.0013
798.347	-0.0028
798.579	-0.0034
798.81	-0.0042
799.042	-0.0041
799.274	-0.0046
799.505	-0.0042
799.737	-0.0052
799.968	-0.0043
800.199	-0.0034
800.431	-0.0038
800.662	-0.003
800.893	-0.0031
801.124	-0.0029
801.355	-0.0015
801.586	-0.0022
801.817	-0.0015
802.048	-0.0013
802.279	-0.001
802.51	-0.0004
802.741	-0.002
802.971	-0.0014
803.202	-0.0019
803.433	-0.0016
803.663	-0.0017
803.894	-0.0014
804.124	-0.0015
804.354	-0.0018
804.585	-0.0011
804.815	-0.0017
805.045	-0.002
805.275	-0.0022
805.506	-0.0412
805.736	0.0764
805.966	-0.0057
806.196	-0.0029
