Data from 03 0.2 mM BQDS 0.4 mM K2Cr2O7 1 M H2SO4 5 min_Absorbance_01-17-42-386.txt Node
Date: Wed Dec 08 01:17:42 EST 2021
User: kwabilab-user
Spectrometer: HDX00518
Trigger mode: 0
Integration Time (sec): 5.000000E-2
Scans to average: 50
Nonlinearity correction enabled: false
Boxcar width: 0
Storing dark spectrum: false
XAxis mode: Wavelengths
Number of Pixels in Spectrum: 2068
>>>>>Begin Spectral Data<<<<<
195.27	-0.1123
195.642	-0.0235
196.014	-0.0352
196.386	-0.1373
196.758	-0.0205
197.129	-0.0082
197.501	0.0371
197.872	0.0718
198.244	0.1087
198.615	0.0995
198.986	0.0929
199.357	0.1
199.728	0.1055
200.099	0.0932
200.47	0.0978
200.841	0.0997
201.212	0.0985
201.582	0.095
201.953	0.0989
202.323	0.0929
202.694	0.0936
203.064	0.1035
203.434	0.0906
203.804	0.1123
204.174	0.0974
204.544	0.0867
204.914	0.0829
205.284	0.0984
205.653	0.1056
206.023	0.0954
206.393	0.1034
206.762	0.0876
207.131	0.1072
207.501	0.0983
207.87	0.1108
208.239	0.1064
208.608	0.0873
208.977	0.1175
209.346	0.1168
209.715	0.1158
210.083	0.1233
210.452	0.1182
210.82	0.1299
211.189	0.1378
211.557	0.1192
211.925	0.1485
212.294	0.1504
212.662	0.1469
213.03	0.1516
213.398	0.1425
213.766	0.1615
214.133	0.1652
214.501	0.1922
214.869	0.1794
215.236	0.211
215.604	0.2317
215.971	0.2334
216.338	0.2576
216.705	0.2798
217.072	0.2908
217.439	0.3039
217.806	0.3462
218.173	0.3571
218.54	0.3935
218.907	0.4272
219.273	0.475
219.64	0.4891
220.006	0.5477
220.373	0.5748
220.739	0.61
221.105	0.6362
221.471	0.6643
221.837	0.7164
222.203	0.748
222.569	0.7859
222.935	0.8102
223.3	0.8389
223.666	0.8739
224.031	0.8927
224.397	0.9128
224.762	0.9277
225.127	0.9555
225.493	0.9642
225.858	0.9646
226.223	0.9791
226.588	0.989
226.952	0.9882
227.317	1.0002
227.682	0.9994
228.046	0.9895
228.411	0.994
228.775	0.9883
229.14	0.9891
229.504	0.9855
229.868	0.9758
230.232	0.9761
230.596	0.9647
230.96	0.9596
231.324	0.9492
231.688	0.9408
232.052	0.9341
232.415	0.9255
232.779	0.918
233.142	0.9092
233.505	0.903
233.869	0.8926
234.232	0.886
234.595	0.8708
234.958	0.8601
235.321	0.854
235.684	0.8419
236.047	0.8329
236.409	0.828
236.772	0.8156
237.134	0.8108
237.497	0.7971
237.859	0.7924
238.222	0.7838
238.584	0.7775
238.946	0.7675
239.308	0.7623
239.67	0.7557
240.032	0.7442
240.393	0.7404
240.755	0.7306
241.117	0.7262
241.478	0.7221
241.84	0.7162
242.201	0.707
242.562	0.7044
242.924	0.6975
243.285	0.6927
243.646	0.686
244.007	0.6833
244.368	0.6793
244.728	0.6739
245.089	0.6705
245.45	0.6667
245.81	0.663
246.171	0.6581
246.531	0.6543
246.891	0.6517
247.252	0.6484
247.612	0.646
247.972	0.644
248.332	0.6422
248.692	0.6395
249.051	0.6368
249.411	0.6335
249.771	0.6294
250.13	0.6303
250.49	0.6292
250.849	0.6272
251.208	0.6244
251.568	0.6232
251.927	0.6199
252.286	0.6213
252.645	0.6185
253.004	0.6174
253.363	0.6142
253.721	0.6148
254.08	0.6127
254.439	0.6128
254.797	0.6134
255.155	0.6111
255.514	0.61
255.872	0.6098
256.23	0.6069
256.588	0.608
256.946	0.6055
257.304	0.6055
257.662	0.6051
258.02	0.6037
258.377	0.6012
258.735	0.5997
259.093	0.5999
259.45	0.6
259.807	0.5962
260.165	0.5964
260.522	0.5937
260.879	0.5932
261.236	0.5928
261.593	0.5919
261.95	0.5882
262.306	0.5883
262.663	0.5864
263.02	0.5871
263.376	0.585
263.733	0.5827
264.089	0.5787
264.445	0.5778
264.802	0.5765
265.158	0.5736
265.514	0.572
265.87	0.5709
266.226	0.5675
266.581	0.5668
266.937	0.5631
267.293	0.5615
267.648	0.5603
268.004	0.5567
268.359	0.5553
268.714	0.5505
269.07	0.55
269.425	0.5462
269.78	0.545
270.135	0.5422
270.49	0.5406
270.844	0.537
271.199	0.5345
271.554	0.5303
271.908	0.5266
272.263	0.5237
272.617	0.5214
272.972	0.5185
273.326	0.5155
273.68	0.5115
274.034	0.508
274.388	0.5051
274.742	0.5009
275.096	0.4962
275.45	0.4944
275.803	0.4902
276.157	0.4858
276.51	0.4818
276.864	0.4792
277.217	0.4738
277.571	0.4702
277.924	0.4664
278.277	0.4612
278.63	0.4578
278.983	0.4543
279.336	0.4492
279.688	0.4457
280.041	0.4423
280.394	0.4371
280.746	0.4335
281.099	0.4297
281.451	0.426
281.803	0.4201
282.156	0.4164
282.508	0.4122
282.86	0.4075
283.212	0.4032
283.564	0.3984
283.916	0.3952
284.267	0.3909
284.619	0.3882
284.971	0.3823
285.322	0.3799
285.673	0.3756
286.025	0.3722
286.376	0.3675
286.727	0.3632
287.078	0.36
287.429	0.3554
287.78	0.351
288.131	0.3459
288.482	0.3435
288.833	0.3395
289.183	0.3347
289.534	0.3307
289.884	0.3266
290.235	0.3226
290.585	0.3187
290.935	0.3153
291.285	0.3109
291.635	0.3076
291.985	0.3032
292.335	0.2987
292.685	0.2961
293.035	0.2918
293.384	0.2874
293.734	0.2839
294.083	0.2789
294.433	0.2755
294.782	0.2725
295.131	0.2697
295.48	0.2658
295.829	0.263
296.179	0.2575
296.527	0.2543
296.876	0.2517
297.225	0.2489
297.574	0.2445
297.922	0.2423
298.271	0.2387
298.619	0.2347
298.968	0.2321
299.316	0.2289
299.664	0.226
300.012	0.2232
300.36	0.2193
300.708	0.2171
301.056	0.2142
301.404	0.2117
301.752	0.2094
302.099	0.207
302.447	0.2042
302.794	0.2018
303.142	0.1996
303.489	0.1974
303.836	0.195
304.183	0.1931
304.531	0.1912
304.878	0.1896
305.224	0.1876
305.571	0.1854
305.918	0.1842
306.265	0.1822
306.611	0.1808
306.958	0.1792
307.304	0.1776
307.651	0.1763
307.997	0.1752
308.343	0.1744
308.689	0.1731
309.035	0.1721
309.381	0.1712
309.727	0.1695
310.073	0.1698
310.419	0.1688
310.764	0.1677
311.11	0.1673
311.455	0.1664
311.801	0.1652
312.146	0.1652
312.491	0.1652
312.837	0.1648
313.182	0.1648
313.527	0.1644
313.872	0.1639
314.216	0.164
314.561	0.1641
314.906	0.1642
315.251	0.1632
315.595	0.1629
315.94	0.1636
316.284	0.1643
316.628	0.164
316.972	0.1639
317.317	0.1643
317.661	0.165
318.005	0.1652
318.348	0.1654
318.692	0.1666
319.036	0.1668
319.38	0.1676
319.723	0.1676
320.067	0.1678
320.41	0.1693
320.754	0.1693
321.097	0.1708
321.44	0.1716
321.783	0.1721
322.126	0.1729
322.469	0.1742
322.812	0.1749
323.155	0.1766
323.498	0.1777
323.84	0.1785
324.183	0.1795
324.525	0.1802
324.868	0.1816
325.21	0.1834
325.552	0.1845
325.894	0.1852
326.236	0.1865
326.578	0.1876
326.92	0.1892
327.262	0.1897
327.604	0.1918
327.946	0.1927
328.287	0.1935
328.629	0.1951
328.97	0.1963
329.312	0.1979
329.653	0.1987
329.994	0.2005
330.335	0.2022
330.676	0.2028
331.017	0.204
331.358	0.2057
331.699	0.2073
332.04	0.2087
332.38	0.2094
332.721	0.2117
333.061	0.2122
333.402	0.2141
333.742	0.2157
334.083	0.217
334.423	0.218
334.763	0.2192
335.103	0.2202
335.443	0.2212
335.783	0.2223
336.123	0.2229
336.462	0.2242
336.802	0.2252
337.141	0.227
337.481	0.2277
337.82	0.2286
338.16	0.2297
338.499	0.2309
338.838	0.2314
339.177	0.2334
339.516	0.2341
339.855	0.236
340.194	0.2363
340.533	0.2375
340.872	0.2379
341.21	0.2392
341.549	0.24
341.887	0.241
342.226	0.2418
342.564	0.2413
342.902	0.2416
343.24	0.2426
343.578	0.2424
343.916	0.2438
344.254	0.2438
344.592	0.2439
344.93	0.2441
345.268	0.2442
345.605	0.244
345.943	0.2447
346.28	0.2448
346.618	0.2445
346.955	0.2451
347.292	0.2453
347.629	0.2459
347.966	0.2459
348.303	0.2463
348.64	0.2457
348.977	0.2454
349.314	0.2457
349.65	0.2459
349.987	0.2462
350.324	0.2449
350.66	0.245
350.996	0.2451
351.333	0.2438
351.669	0.2433
352.005	0.2429
352.341	0.2418
352.677	0.241
353.013	0.2399
353.349	0.2389
353.685	0.2386
354.02	0.2374
354.356	0.2366
354.691	0.2352
355.027	0.2346
355.362	0.2322
355.697	0.2321
356.033	0.2311
356.368	0.2302
356.703	0.2293
357.038	0.2284
357.373	0.2282
357.707	0.2273
358.042	0.2259
358.377	0.2251
358.711	0.2241
359.046	0.2227
359.38	0.2211
359.715	0.221
360.049	0.2194
360.383	0.2191
360.717	0.2175
361.051	0.215
361.385	0.2145
361.719	0.2117
362.053	0.2116
362.387	0.2086
362.72	0.2072
363.054	0.205
363.387	0.2032
363.721	0.2025
364.054	0.1995
364.387	0.1982
364.721	0.1968
365.054	0.1949
365.387	0.1927
365.72	0.191
366.053	0.19
366.385	0.1879
366.718	0.187
367.051	0.1851
367.383	0.1842
367.716	0.1825
368.048	0.1816
368.381	0.1802
368.713	0.1786
369.045	0.1772
369.377	0.1756
369.709	0.1745
370.041	0.1734
370.373	0.1721
370.705	0.1694
371.037	0.1678
371.368	0.1664
371.7	0.1648
372.031	0.1636
372.363	0.1619
372.694	0.1601
373.025	0.1579
373.356	0.1559
373.688	0.1542
374.019	0.1515
374.35	0.1503
374.68	0.1484
375.011	0.1454
375.342	0.1436
375.673	0.1423
376.003	0.1402
376.334	0.1384
376.664	0.1367
376.995	0.135
377.325	0.134
377.655	0.1327
377.985	0.1309
378.315	0.1296
378.645	0.128
378.975	0.1269
379.305	0.1254
379.635	0.1245
379.964	0.1223
380.294	0.1217
380.623	0.1201
380.953	0.1195
381.282	0.1178
381.611	0.1158
381.941	0.1148
382.27	0.1137
382.599	0.1117
382.928	0.1105
383.257	0.1093
383.585	0.1088
383.914	0.1059
384.243	0.1045
384.571	0.103
384.9	0.1011
385.228	0.1
385.557	0.0985
385.885	0.0965
386.213	0.0951
386.541	0.0933
386.869	0.0917
387.197	0.0898
387.525	0.0883
387.853	0.087
388.181	0.0859
388.508	0.085
388.836	0.0841
389.164	0.0824
389.491	0.0808
389.818	0.0799
390.146	0.0785
390.473	0.0768
390.8	0.0767
391.127	0.0748
391.454	0.0745
391.781	0.0733
392.108	0.072
392.435	0.071
392.761	0.0694
393.088	0.0694
393.415	0.0686
393.741	0.0683
394.067	0.067
394.394	0.0662
394.72	0.0656
395.046	0.0646
395.372	0.063
395.698	0.0618
396.024	0.0618
396.35	0.0607
396.676	0.0604
397.001	0.0599
397.327	0.0582
397.653	0.057
397.978	0.056
398.303	0.0558
398.629	0.0547
398.954	0.0545
399.279	0.0532
399.604	0.053
399.929	0.0518
400.254	0.0519
400.579	0.0515
400.904	0.0498
401.229	0.0496
401.553	0.0484
401.878	0.0479
402.202	0.0478
402.527	0.0471
402.851	0.0475
403.175	0.0463
403.5	0.0459
403.824	0.0461
404.148	0.046
404.472	0.0451
404.796	0.0447
405.119	0.0441
405.443	0.0435
405.767	0.0435
406.09	0.043
406.414	0.0437
406.737	0.0433
407.061	0.0428
407.384	0.0426
407.707	0.0419
408.03	0.0423
408.353	0.043
408.676	0.042
408.999	0.0416
409.322	0.0421
409.645	0.0418
409.968	0.0416
410.29	0.0412
410.613	0.0414
410.935	0.041
411.258	0.0417
411.58	0.0411
411.902	0.0406
412.224	0.0414
412.546	0.0409
412.868	0.0407
413.19	0.041
413.512	0.041
413.834	0.0418
414.156	0.0414
414.477	0.0405
414.799	0.041
415.121	0.0417
415.442	0.0412
415.763	0.0412
416.085	0.0413
416.406	0.0413
416.727	0.0409
417.048	0.041
417.369	0.041
417.69	0.0408
418.011	0.0414
418.331	0.0413
418.652	0.0412
418.973	0.0413
419.293	0.0413
419.614	0.0413
419.934	0.041
420.254	0.0413
420.574	0.0408
420.895	0.0409
421.215	0.0406
421.535	0.0407
421.855	0.0412
422.174	0.0413
422.494	0.0415
422.814	0.0416
423.134	0.0416
423.453	0.0415
423.773	0.0418
424.092	0.0415
424.411	0.041
424.731	0.0418
425.05	0.0418
425.369	0.0415
425.688	0.0418
426.007	0.0417
426.326	0.0421
426.644	0.043
426.963	0.0426
427.282	0.0428
427.6	0.0423
427.919	0.0422
428.237	0.0419
428.556	0.0428
428.874	0.0424
429.192	0.0422
429.51	0.0423
429.828	0.0431
430.146	0.0432
430.464	0.0431
430.782	0.0427
431.1	0.043
431.418	0.0426
431.735	0.0425
432.053	0.043
432.37	0.0425
432.688	0.0431
433.005	0.0429
433.322	0.043
433.639	0.0429
433.957	0.0426
434.274	0.0432
434.591	0.0429
434.907	0.043
435.224	0.0438
435.541	0.0437
435.858	0.0438
436.174	0.0435
436.491	0.0439
436.807	0.0433
437.124	0.0427
437.44	0.0427
437.756	0.0425
438.072	0.0434
438.388	0.0434
438.704	0.0431
439.02	0.0433
439.336	0.043
439.652	0.0428
439.968	0.0431
440.283	0.0433
440.599	0.0432
440.914	0.0436
441.23	0.0424
441.545	0.0432
441.86	0.0429
442.175	0.0435
442.491	0.0426
442.806	0.0425
443.121	0.0428
443.435	0.0422
443.75	0.0427
444.065	0.0423
444.38	0.0425
444.694	0.0418
445.009	0.0427
445.323	0.0427
445.638	0.0425
445.952	0.0422
446.266	0.0419
446.58	0.0428
446.894	0.0421
447.208	0.0422
447.522	0.0424
447.836	0.0414
448.15	0.0413
448.464	0.0411
448.777	0.0419
449.091	0.0408
449.404	0.0422
449.718	0.0416
450.031	0.041
450.345	0.0407
450.658	0.0414
450.971	0.0411
451.284	0.0406
451.597	0.041
451.91	0.0413
452.223	0.0401
452.535	0.0407
452.848	0.0402
453.161	0.0407
453.473	0.0407
453.786	0.0411
454.098	0.04
454.411	0.0402
454.723	0.0396
455.035	0.04
455.347	0.0405
455.659	0.0407
455.971	0.0397
456.283	0.0398
456.595	0.0392
456.907	0.04
457.218	0.0399
457.53	0.0393
457.841	0.0388
458.153	0.0386
458.464	0.0385
458.776	0.0378
459.087	0.0376
459.398	0.038
459.709	0.038
460.02	0.0372
460.331	0.0371
460.642	0.0368
460.953	0.0372
461.263	0.0377
461.574	0.0368
461.885	0.0366
462.195	0.0371
462.506	0.0375
462.816	0.0363
463.126	0.0354
463.437	0.0362
463.747	0.0346
464.057	0.0361
464.367	0.0351
464.677	0.0343
464.987	0.0352
465.296	0.0348
465.606	0.0347
465.916	0.034
466.225	0.0342
466.535	0.0343
466.844	0.0334
467.154	0.0336
467.463	0.0329
467.772	0.0329
468.081	0.0333
468.39	0.033
468.699	0.0322
469.008	0.0327
469.317	0.033
469.626	0.0325
469.935	0.0319
470.243	0.0323
470.552	0.0317
470.86	0.0322
471.169	0.0316
471.477	0.0313
471.785	0.0319
472.093	0.0312
472.402	0.0301
472.71	0.0304
473.018	0.0303
473.326	0.0294
473.633	0.0293
473.941	0.0299
474.249	0.029
474.556	0.0291
474.864	0.0281
475.171	0.0285
475.479	0.0291
475.786	0.0287
476.094	0.0283
476.401	0.0286
476.708	0.0278
477.015	0.0287
477.322	0.0279
477.629	0.0279
477.936	0.0267
478.242	0.0266
478.549	0.0268
478.856	0.0259
479.162	0.027
479.469	0.0262
479.775	0.0271
480.081	0.0247
480.388	0.0255
480.694	0.0248
481	0.0254
481.306	0.0254
481.612	0.0256
481.918	0.0236
482.224	0.0253
482.53	0.0242
482.835	0.0239
483.141	0.0229
483.446	0.0231
483.752	0.0234
484.057	0.0222
484.363	0.0222
484.668	0.0217
484.973	0.022
485.278	0.0221
485.583	0.0213
485.888	0.0214
486.193	0.0209
486.498	0.0211
486.803	0.0216
487.107	0.0211
487.412	0.0202
487.717	0.0198
488.021	0.0205
488.325	0.0195
488.63	0.0201
488.934	0.0204
489.238	0.0196
489.542	0.0197
489.846	0.0185
490.15	0.0193
490.454	0.0189
490.758	0.0188
491.062	0.0186
491.366	0.0177
491.669	0.0182
491.973	0.0179
492.276	0.018
492.58	0.0167
492.883	0.0185
493.186	0.0177
493.489	0.0171
493.792	0.0176
494.096	0.017
494.399	0.017
494.701	0.0166
495.004	0.0162
495.307	0.0158
495.61	0.0155
495.912	0.0153
496.215	0.0148
496.517	0.0154
496.82	0.0153
497.122	0.0159
497.424	0.0143
497.727	0.0143
498.029	0.0152
498.331	0.0141
498.633	0.0146
498.935	0.0143
499.237	0.0143
499.538	0.0138
499.84	0.0138
500.142	0.0141
500.443	0.0135
500.745	0.0133
501.046	0.0143
501.348	0.0132
501.649	0.0131
501.95	0.0131
502.251	0.0131
502.552	0.0117
502.853	0.0121
503.154	0.0119
503.455	0.0118
503.756	0.0115
504.057	0.012
504.357	0.0107
504.658	0.0109
504.958	0.0111
505.259	0.012
505.559	0.0121
505.859	0.011
506.16	0.0107
506.46	0.0117
506.76	0.0113
507.06	0.0104
507.36	0.0114
507.66	0.011
507.96	0.0109
508.259	0.0092
508.559	0.0095
508.859	0.0098
509.158	0.0099
509.457	0.0098
509.757	0.011
510.056	0.0092
510.355	0.009
510.655	0.0071
510.954	0.0088
511.253	0.0098
511.552	0.0097
511.851	0.0086
512.149	0.0084
512.448	0.0081
512.747	0.0093
513.045	0.0079
513.344	0.0087
513.642	0.0084
513.941	0.0081
514.239	0.0081
514.537	0.0083
514.836	0.0079
515.134	0.0073
515.432	0.0079
515.73	0.0077
516.028	0.0068
516.326	0.0083
516.623	0.0079
516.921	0.0067
517.219	0.0076
517.516	0.0066
517.814	0.0075
518.111	0.0074
518.409	0.0085
518.706	0.0074
519.003	0.0076
519.3	0.006
519.597	0.0061
519.894	0.0072
520.191	0.007
520.488	0.0072
520.785	0.0052
521.082	0.0059
521.378	0.0063
521.675	0.0051
521.971	0.0063
522.268	0.0063
522.564	0.0063
522.861	0.0062
523.157	0.0058
523.453	0.0061
523.749	0.0066
524.045	0.0058
524.341	0.0054
524.637	0.0055
524.933	0.0045
525.229	0.0045
525.524	0.0055
525.82	0.0062
526.115	0.005
526.411	0.0039
526.706	0.0056
527.002	0.0054
527.297	0.0036
527.592	0.0064
527.887	0.0053
528.182	0.0055
528.477	0.0062
528.772	0.0041
529.067	0.0052
529.362	0.0045
529.657	0.0052
529.951	0.0046
530.246	0.0045
530.54	0.0036
530.835	0.0034
531.129	0.0039
531.423	0.0044
531.718	0.0036
532.012	0.004
532.306	0.0036
532.6	0.0042
532.894	0.0032
533.188	0.0047
533.482	0.0036
533.775	0.0041
534.069	0.003
534.363	0.0032
534.656	0.003
534.95	0.0025
535.243	0.0028
535.536	0.0034
535.83	0.004
536.123	0.0022
536.416	0.0039
536.709	0.0032
537.002	0.004
537.295	0.0027
537.588	0.0039
537.881	0.0033
538.173	0.0036
538.466	0.0028
538.759	0.0027
539.051	0.0021
539.344	0.003
539.636	0.0023
539.928	0.0028
540.22	0.0032
540.513	0.0039
540.805	0.0027
541.097	0.0035
541.389	0.0033
541.681	0.0035
541.972	0.0037
542.264	0.0033
542.556	0.0036
542.847	0.003
543.139	0.0038
543.431	0.004
543.722	0.0036
544.013	0.004
544.305	0.0054
544.596	0.0052
544.887	0.0039
545.178	0.0039
545.469	0.0041
545.76	0.0031
546.051	0.0042
546.342	0.0049
546.632	0.0029
546.923	0.0029
547.214	0.0031
547.504	0.0033
547.795	0.0041
548.085	0.0039
548.375	0.0031
548.666	0.004
548.956	0.0026
549.246	0.0035
549.536	0.0029
549.826	0.0034
550.116	0.0038
550.406	0.0036
550.695	0.0042
550.985	0.0034
551.275	0.0043
551.564	0.0039
551.854	0.0035
552.143	0.0029
552.433	0.0032
552.722	0.003
553.011	0.003
553.3	0.0036
553.589	0.0025
553.879	0.0019
554.167	0.0031
554.456	0.0025
554.745	0.0019
555.034	0.0015
555.323	0.0014
555.611	0.0024
555.9	0.0032
556.188	0.0034
556.477	0.0026
556.765	0.0011
557.053	0.0022
557.342	0.0016
557.63	0.0025
557.918	0.0024
558.206	0.0017
558.494	0.0041
558.782	0.0021
559.069	0.0034
559.357	0.0026
559.645	0.0019
559.932	0.0025
560.22	0.0035
560.507	0.0031
560.795	0.0031
561.082	0.003
561.37	0.0026
561.657	0.0026
561.944	0.0033
562.231	0.0024
562.518	0.0019
562.805	0.0031
563.092	0.0032
563.379	0.0033
563.665	0.0029
563.952	0.0034
564.239	0.0042
564.525	0.0041
564.811	0.003
565.098	0.0031
565.384	0.0041
565.67	0.0034
565.957	0.0026
566.243	0.0034
566.529	0.0036
566.815	0.0043
567.101	0.0025
567.387	0.0024
567.672	0.0024
567.958	0.0031
568.244	0.0029
568.529	0.0033
568.815	0.0017
569.1	0.0025
569.386	0.0024
569.671	0.0019
569.956	0.0022
570.242	0.0026
570.527	0.0031
570.812	0.0025
571.097	0.0031
571.382	0.0024
571.666	0.0025
571.951	0.0021
572.236	0.0023
572.521	0.0015
572.805	0.0034
573.09	0.0025
573.374	0.0024
573.659	0.0019
573.943	0.0031
574.227	0.0028
574.511	0.003
574.795	0.0022
575.079	0.0021
575.363	0.0028
575.647	0.003
575.931	0.0029
576.215	0.0021
576.499	0.0027
576.782	0.0024
577.066	0.0029
577.349	0.0019
577.633	0.0041
577.916	0.0034
578.2	0.0038
578.483	0.0037
578.766	0.0024
579.049	0.0032
579.332	0.0031
579.615	0.0022
579.898	0.0034
580.181	0.0027
580.464	0.003
580.746	0.0027
581.029	0.0034
581.312	0.0024
581.594	0.0027
581.877	0.0033
582.159	0.0035
582.441	0.0036
582.724	0.0027
583.006	0.0027
583.288	0.0012
583.57	0.0013
583.852	0.0017
584.134	0.0021
584.416	0.003
584.697	0.0032
584.979	0.0031
585.261	0.0032
585.542	0.0029
585.824	0.0035
586.105	0.0026
586.387	0.0021
586.668	0.0024
586.949	0.0028
587.231	0.0024
587.512	0.0027
587.793	0.0033
588.074	0.0033
588.355	0.0028
588.636	0.0037
588.916	0.0028
589.197	0.0037
589.478	0.0036
589.758	0.0028
590.039	0.003
590.319	0.0032
590.6	0.0029
590.88	0.0023
591.16	0.0027
591.441	0.0036
591.721	0.0032
592.001	0.0029
592.281	0.0028
592.561	0.0036
592.841	0.0032
593.12	0.0031
593.4	0.0023
593.68	0.0023
593.959	0.003
594.239	0.0033
594.518	0.0024
594.798	0.0024
595.077	0.0027
595.356	0.0029
595.636	0.0026
595.915	0.003
596.194	0.0025
596.473	0.0031
596.752	0.0026
597.031	0.0019
597.31	0.002
597.588	0.0029
597.867	0.0013
598.146	0.0026
598.424	0.0018
598.703	0.0025
598.981	0.002
599.259	0.0026
599.538	0.0034
599.816	0.0035
600.094	0.0028
600.372	0.0033
600.65	0.0032
600.928	0.0036
601.206	0.0036
601.484	0.0034
601.762	0.0026
602.04	0.0027
602.317	0.0027
602.595	0.0018
602.872	0.0026
603.15	0.0022
603.427	0.0023
603.704	0.0019
603.982	0.002
604.259	0.0016
604.536	0.0021
604.813	0.0025
605.09	0.0021
605.367	0.0022
605.644	0.0014
605.921	0.0025
606.197	0.0024
606.474	0.0024
606.751	0.0025
607.027	0.0032
607.304	0.0021
607.58	0.0023
607.856	0.0019
608.133	0.0032
608.409	0.0032
608.685	0.0021
608.961	0.0028
609.237	0.0025
609.513	0.0024
609.789	0.0028
610.065	0.0015
610.341	0.0024
610.616	0.002
610.892	0.0031
611.167	0.0036
611.443	0.0026
611.718	0.002
611.994	0.0022
612.269	0.0034
612.544	0.0019
612.819	0.0021
613.095	0.0023
613.37	0.0024
613.645	0.0023
613.919	0.002
614.194	0.0032
614.469	0.0026
614.744	0.0014
615.019	0.0021
615.293	0.0014
615.568	0.0022
615.842	0.0017
616.116	0.0018
616.391	0.0008
616.665	0.0025
616.939	0.0016
617.213	0.0021
617.488	0.0019
617.762	0.002
618.035	0.0025
618.309	0.0022
618.583	0.0022
618.857	0.002
619.131	0.0025
619.404	0.0017
619.678	0.0019
619.951	0.0016
620.225	0.0016
620.498	0.0014
620.771	0.0011
621.045	0.0015
621.318	0.001
621.591	0.0013
621.864	-0
622.137	0.0002
622.41	0.0012
622.683	0
622.956	0.0018
623.228	0.002
623.501	0.0025
623.774	0.0025
624.046	0.0021
624.319	0.0022
624.591	0.0008
624.863	0.0016
625.136	0.0012
625.408	0.0024
625.68	0.002
625.952	0.0027
626.224	0.0027
626.496	0.0021
626.768	0.0018
627.04	0.0021
627.311	0.0029
627.583	0.0021
627.855	0.0022
628.126	0.002
628.398	0.0028
628.669	0.001
628.941	0.0008
629.212	0.0006
629.483	0.0022
629.755	0.0014
630.026	0.0016
630.297	0.001
630.568	0.0011
630.839	0.0009
631.11	-0.0001
631.38	-0.0004
631.651	-0.0005
631.922	-0.0004
632.192	-0.0012
632.463	-0.0022
632.733	-0.0013
633.004	-0.0002
633.274	-0.0019
633.545	0.0003
633.815	0.0012
634.085	0.0013
634.355	0.0004
634.625	0.0016
634.895	-0.0002
635.165	-0.0005
635.435	-0.0001
635.705	0.0006
635.974	-0.0007
636.244	0.0016
636.514	0.0015
636.783	0.0014
637.053	0.0019
637.322	0.001
637.591	0.0017
637.861	0.001
638.13	0.0015
638.399	0.0009
638.668	0.0008
638.937	0.0006
639.206	0.0011
639.475	0.0015
639.744	0.0016
640.013	0.0023
640.281	0.0021
640.55	0.0024
640.819	0.0017
641.087	0.0017
641.356	0.0013
641.624	0.0014
641.892	0.0013
642.161	0.0016
642.429	0.0012
642.697	0.0006
642.965	0.0014
643.233	0.0014
643.501	0.0015
643.769	0.0001
644.037	0.0002
644.305	0.0006
644.572	0.0003
644.84	-0.0001
645.108	0.0001
645.375	0.0008
645.643	0.0005
645.91	0.0006
646.177	0.0019
646.445	0.0033
646.712	0.0037
646.979	0.0036
647.246	0.0034
647.513	0.0037
647.78	0.003
648.047	0.0036
648.314	0.0024
648.58	0.0025
648.847	0.0013
649.114	0.0004
649.38	0.0007
649.647	0.0004
649.913	-0.0001
650.18	0.0012
650.446	0.0016
650.712	0.0027
650.978	0.0026
651.245	0.0024
651.511	0.0018
651.777	0.001
652.043	0.0017
652.309	0.0022
652.574	0.0021
652.84	0.0005
653.106	-0.0008
653.371	-0.0009
653.637	-0
653.903	0.0013
654.168	0.0015
654.433	0.0015
654.699	0.0014
654.964	0.0017
655.229	0.0019
655.494	0.0017
655.759	0.0018
656.024	0.0005
656.289	-0
656.554	-0.0004
656.819	-0.0009
657.084	0.0013
657.349	0.0016
657.613	0.002
657.878	0.0008
658.142	0.0019
658.407	0.0015
658.671	0.0009
658.936	-0.0007
659.2	-0.0008
659.464	-0.0006
659.728	0.0001
659.992	0.0006
660.256	-0.0003
660.52	-0.0003
660.784	-0.0004
661.048	-0.0002
661.312	0
661.575	-0.0012
661.839	-0.0017
662.103	-0.0014
662.366	-0.0015
662.63	-0.001
662.893	-0.0001
663.156	-0.0013
663.42	-0.0008
663.683	-0.0004
663.946	0.0004
664.209	0.0023
664.472	0.0014
664.735	0.0013
664.998	0.0001
665.261	-0.0002
665.524	0.0003
665.786	0.0004
666.049	-0.0003
666.312	-0.0004
666.574	-0.0008
666.837	-0.0009
667.099	-0.0024
667.361	-0.0016
667.624	-0.002
667.886	-0.0019
668.148	-0.0011
668.41	0.0007
668.672	-0.0002
668.934	0.0001
669.196	0.0001
669.458	0.0004
669.72	0.0001
669.982	-0.0005
670.243	0.0004
670.505	0.0006
670.766	0.0002
671.028	0.0003
671.289	0.0003
671.551	0.0006
671.812	-0.0002
672.073	0.0005
672.334	-0.0008
672.596	0.0002
672.857	-0.0013
673.118	-0.0004
673.379	-0.0012
673.639	-0.0012
673.9	-0.0012
674.161	-0.0014
674.422	-0.0022
674.682	-0.0017
674.943	-0.0026
675.203	-0.0009
675.464	-0.0009
675.724	-0.0003
675.985	0.0008
676.245	0.0019
676.505	0.0021
676.765	0.0019
677.025	0.0019
677.285	0.0013
677.545	0.0021
677.805	0.0026
678.065	0.0021
678.325	0.0026
678.585	0.0022
678.844	0.0018
679.104	0.0009
679.363	0.0016
679.623	0.0025
679.882	0.0025
680.142	0.0027
680.401	0.0027
680.66	0.003
680.919	0.0022
681.178	0.0035
681.437	0.004
681.696	0.0029
681.955	0.0035
682.214	0.0037
682.473	0.0032
682.732	0.001
682.99	0.0017
683.249	0.0029
683.508	0.0027
683.766	0.0029
684.024	0.0025
684.283	0.0034
684.541	0.0024
684.799	0.0029
685.058	0.0019
685.316	0.0019
685.574	0.0031
685.832	0.0039
686.09	0.003
686.348	0.0046
686.606	0.004
686.863	0.0046
687.121	0.0036
687.379	0.0029
687.636	0.0032
687.894	0.0036
688.151	0.0041
688.409	0.0039
688.666	0.0027
688.923	0.0031
689.181	0.0017
689.438	0.0013
689.695	0.0013
689.952	0.0002
690.209	0.0007
690.466	0.0003
690.723	0.0019
690.979	0.0011
691.236	0.0014
691.493	0.001
691.75	0.0021
692.006	0.0034
692.263	0.0036
692.519	0.0037
692.775	0.0026
693.032	0.0014
693.288	0.0034
693.544	0.0034
693.8	0.0028
694.056	0.0024
694.313	0.0021
694.568	0.0015
694.824	0.002
695.08	0.0028
695.336	0.0032
695.592	0.0024
695.847	0.0021
696.103	0.0016
696.359	0.0014
696.614	0.0013
696.869	0.0009
697.125	0.0007
697.38	-0.0002
697.635	-0.001
697.891	-0.0004
698.146	-0.0009
698.401	0.0002
698.656	-0.0006
698.911	-0.0007
699.166	-0.0011
699.42	-0.0006
699.675	-0.0008
699.93	-0.0022
700.185	-0.0008
700.439	0
700.694	0.0001
700.948	0.0001
701.203	0.0009
701.457	-0
701.711	-0.0007
701.965	-0.0006
702.22	-0.0004
702.474	-0
702.728	0.0002
702.982	0.0005
703.236	0.0003
703.49	0.0006
703.743	-0.0002
703.997	0.0009
704.251	0.0007
704.504	0.0007
704.758	0.0011
705.012	0.0005
705.265	0.0001
705.518	-0.0012
705.772	-0.0014
706.025	-0.0005
706.278	-0
706.531	-0
706.785	-0.0007
707.038	-0.0003
707.291	-0.0011
707.543	-0.0014
707.796	-0.0016
708.049	-0.002
708.302	-0.0022
708.555	-0.0014
708.807	-0.0014
709.06	-0.0019
709.312	-0.0027
709.565	-0.0029
709.817	-0.0031
710.069	-0.0023
710.322	-0.0024
710.574	-0.0021
710.826	-0.0021
711.078	-0.001
711.33	-0.0016
711.582	-0.0024
711.834	-0.0015
712.086	-0.001
712.338	0
712.59	0.0001
712.841	-0.0003
713.093	-0.0006
713.344	-0.0007
713.596	0.0002
713.847	-0
714.099	0.0003
714.35	0
714.601	0.0018
714.853	0.0017
715.104	0.0009
715.355	0.0003
715.606	0.0008
715.857	0.0011
716.108	0.0021
716.359	0.0013
716.609	0.002
716.86	0.0004
717.111	-0.0005
717.361	-0.0014
717.612	-0.0012
717.863	-0.0011
718.113	-0.001
718.363	-0.0008
718.614	0.0001
718.864	-0.0002
719.114	-0.0004
719.364	0.0002
719.614	-0.0008
719.865	-0.0021
720.114	-0.0012
720.364	-0.0014
720.614	-0.0001
720.864	0.0006
721.114	0.0005
721.364	0.0014
721.613	0.0016
721.863	0.0025
722.112	0.0016
722.362	0.0026
722.611	0.0016
722.86	0.0011
723.11	0.0007
723.359	0.0007
723.608	0.0018
723.857	0.0024
724.106	0.0044
724.355	0.0044
724.604	0.0048
724.853	0.0036
725.102	0.0028
725.351	0.0017
725.599	0.0012
725.848	0.0022
726.097	0.0017
726.345	0.0017
726.594	0.0015
726.842	0.0003
727.09	0.0011
727.339	0.0006
727.587	-0.0001
727.835	-0.0015
728.083	-0.0011
728.331	-0.0017
728.579	-0.003
728.827	-0.0025
729.075	-0.0026
729.323	-0.0015
729.571	-0.001
729.818	-0.0004
730.066	-0.0004
730.314	0
730.561	-0.0019
730.809	-0.0009
731.056	-0.0013
731.303	-0.0015
731.551	-0.0011
731.798	-0.0014
732.045	-0.001
732.292	-0.0017
732.539	-0.0008
732.786	-0.0008
733.033	0.0003
733.28	0.0008
733.527	0.0015
733.774	0.0008
734.021	0.0018
734.267	0.0025
734.514	0.0023
734.76	0.0029
735.007	0.0046
735.253	0.0047
735.5	0.0055
735.746	0.0045
735.992	0.0036
736.238	0.0029
736.485	0.0035
736.731	0.0032
736.977	0.0026
737.223	0.0024
737.469	0.0026
737.715	0.0028
737.96	0.0033
738.206	0.003
738.452	0.0046
738.697	0.0044
738.943	0.0035
739.189	0.0023
739.434	0.0001
739.679	-0.0001
739.925	-0.0008
740.17	-0.0013
740.415	-0.0012
740.66	0.0004
740.906	0.0003
741.151	0.0005
741.396	0.0003
741.641	0.0026
741.886	0.0024
742.13	0.0039
742.375	0.0037
742.62	0.0054
742.865	0.0036
743.109	0.0033
743.354	0.0031
743.598	0.0025
743.843	0.0035
744.087	0.0027
744.331	0.0029
744.576	0.0032
744.82	0.0035
745.064	0.0022
745.308	0.0021
745.552	0.0026
745.796	0.0027
746.04	0.0025
746.284	0.0018
746.528	-0.0004
746.771	0.0014
747.015	0.001
747.259	0.0011
747.502	0.001
747.746	0.0022
747.989	0.0019
748.233	0.0025
748.476	0.0024
748.719	0.0022
748.963	0.0026
749.206	0.0017
749.449	0.0032
749.692	0.0013
749.935	0.0029
750.178	0.0016
750.421	0.0021
750.664	0.0025
750.906	0.0022
751.149	0.0014
751.392	0.002
751.635	0.0009
751.877	-0.0002
752.12	-0.0005
752.362	0.0002
752.604	-0.0002
752.847	0.0006
753.089	0.0004
753.331	0.0007
753.573	0.0004
753.816	0.0007
754.058	0.001
754.3	0.0015
754.542	0.0018
754.783	0.0013
755.025	0.0007
755.267	0.0001
755.509	-0.001
755.75	-0.0003
755.992	0.0009
756.234	0.0004
756.475	-0.0001
756.716	-0.0002
756.958	0
757.199	0.0003
757.44	0.0018
757.682	0.0019
757.923	0.0002
758.164	0.0003
758.405	0.0001
758.646	0
758.887	0.0001
759.128	-0.0006
759.369	-0.0007
759.609	-0.0008
759.85	-0.0007
760.091	0.0007
760.331	-0.0003
760.572	0.0001
760.812	-0.0013
761.053	-0.0016
761.293	-0.0013
761.533	-0.0009
761.774	-0.0015
762.014	-0.0022
762.254	-0.0011
762.494	-0.0022
762.734	-0.0021
762.974	-0.0016
763.214	-0.0029
763.454	-0.0024
763.694	-0.0016
763.933	-0.0021
764.173	-0.0011
764.413	-0.001
764.652	0
764.892	0.0003
765.131	0.0002
765.371	0.0006
765.61	0.0016
765.849	0.0009
766.089	0.0009
766.328	0.0013
766.567	0.0013
766.806	0.0017
767.045	0.0016
767.284	0.001
767.523	0.0017
767.762	0.0019
768.001	0.001
768.239	0.0007
768.478	0.0005
768.717	0.0003
768.955	0.0013
769.194	-0.0002
769.432	0.0001
769.671	0.0002
769.909	-0.0003
770.148	0.0006
770.386	0.0005
770.624	0.0006
770.862	0.0011
771.1	-0.0001
771.338	0.0004
771.576	0.0003
771.814	-0.0004
772.052	-0.0003
772.29	0.0004
772.528	0.0011
772.765	0.0008
773.003	0.0011
773.24	0.0011
773.478	0.0015
773.716	0.0029
773.953	0.0028
774.19	0.0032
774.428	0.0029
774.665	0.0029
774.902	0.003
775.139	0.0016
775.376	0.0015
775.613	0.0013
775.85	0.0013
776.087	0.0005
776.324	0.0007
776.561	0.0013
776.798	0.0022
777.034	0.0032
777.271	0.0042
777.508	0.0047
777.744	0.0048
777.981	0.0035
778.217	0.0034
778.454	0.0026
778.69	0.0022
778.926	0.0027
779.162	0.0024
779.399	0.0017
779.635	0.0014
779.871	0.001
780.107	0.0017
780.343	0.0012
780.579	0.002
780.814	0.0015
781.05	0.0018
781.286	0.0023
781.522	0.0014
781.757	0.0024
781.993	0.0027
782.228	0.0026
782.464	0.0023
782.699	0.0017
782.934	0.0006
783.17	0.0007
783.405	0.0004
783.64	0.0008
783.875	0.0009
784.11	0.002
784.345	0.0028
784.58	0.0017
784.815	0.0015
785.05	0.0015
785.285	0.0013
785.52	0.0007
785.754	0.0009
785.989	0.0005
786.223	-0.0005
786.458	-0.0008
786.692	-0.0016
786.927	-0.002
787.161	-0.0019
787.396	-0.0025
787.63	-0.0029
787.864	-0.0036
788.098	-0.0026
788.332	-0.0016
788.566	-0.0011
788.8	-0.001
789.034	-0.0004
789.268	-0.0002
789.502	0.0001
789.736	0.0013
789.969	0.0021
790.203	0.0022
790.437	0.0015
790.67	0.0009
790.904	0.0009
791.137	-0.0008
791.37	-0.0009
791.604	-0.0016
791.837	-0.0008
792.07	-0.0019
792.303	-0.0005
792.537	-0.0012
792.77	-0.0004
793.003	-0.0011
793.236	-0.002
793.469	-0.0018
793.701	-0.0014
793.934	-0.0014
794.167	-0.0014
794.4	-0.0016
794.632	-0.0006
794.865	-0.0014
795.097	-0.0001
795.33	0.001
795.562	-0.0004
795.795	-0.0004
796.027	-0.0005
796.259	-0.0001
796.491	-0.0011
796.724	-0.0012
796.956	0.0005
797.188	-0.0001
797.42	-0.0001
797.652	-0.0005
797.883	-0.001
798.115	-0.0014
798.347	-0.0019
798.579	-0.0036
798.81	-0.0035
799.042	-0.0035
799.274	-0.0036
799.505	-0.0039
799.737	-0.0038
799.968	-0.004
800.199	-0.0035
800.431	-0.0032
800.662	-0.0028
800.893	-0.0023
801.124	-0.0018
801.355	-0.0012
801.586	-0.0014
801.817	-0.0009
802.048	-0.0012
802.279	-0.001
802.51	0.0004
802.741	-0.0019
802.971	-0.0009
803.202	-0.0016
803.433	-0.0029
803.663	-0.0025
803.894	-0.0015
804.124	-0.001
804.354	-0.0012
804.585	-0.0015
804.815	-0.0016
805.045	-0.0008
805.275	-0.0029
805.506	-0.0236
805.736	-0.0007
805.966	-0.0877
806.196	-0.0029
