Data from 03 0.2 mM BQDS 0.4 mM K2Cr2O7 1 M H2SO4 5 min_Absorbance_07-02-42-554.txt Node
Date: Wed Dec 08 07:02:42 EST 2021
User: kwabilab-user
Spectrometer: HDX00518
Trigger mode: 0
Integration Time (sec): 5.000000E-2
Scans to average: 50
Nonlinearity correction enabled: false
Boxcar width: 0
Storing dark spectrum: false
XAxis mode: Wavelengths
Number of Pixels in Spectrum: 2068
>>>>>Begin Spectral Data<<<<<
195.27	0.0111
195.642	0.1123
196.014	0.068
196.386	0.0902
196.758	0.0275
197.129	0.0048
197.501	0.0468
197.872	0.096
198.244	0.1112
198.615	0.116
198.986	0.0912
199.357	0.0928
199.728	0.1207
200.099	0.0978
200.47	0.1061
200.841	0.0995
201.212	0.0973
201.582	0.0974
201.953	0.1041
202.323	0.1171
202.694	0.084
203.064	0.1105
203.434	0.0991
203.804	0.1198
204.174	0.1183
204.544	0.105
204.914	0.0993
205.284	0.1054
205.653	0.0966
206.023	0.1077
206.393	0.1161
206.762	0.1048
207.131	0.1106
207.501	0.1181
207.87	0.121
208.239	0.1063
208.608	0.1028
208.977	0.1298
209.346	0.1141
209.715	0.1293
210.083	0.1226
210.452	0.1131
210.82	0.1321
211.189	0.1391
211.557	0.1306
211.925	0.1344
212.294	0.1473
212.662	0.1625
213.03	0.1505
213.398	0.1457
213.766	0.1744
214.133	0.179
214.501	0.1933
214.869	0.1947
215.236	0.2227
215.604	0.2241
215.971	0.2248
216.338	0.253
216.705	0.2774
217.072	0.3016
217.439	0.3168
217.806	0.3436
218.173	0.3551
218.54	0.3909
218.907	0.4336
219.273	0.4755
219.64	0.4974
220.006	0.5437
220.373	0.5669
220.739	0.6076
221.105	0.6334
221.471	0.6791
221.837	0.7147
222.203	0.7539
222.569	0.7832
222.935	0.8184
223.3	0.8409
223.666	0.8771
224.031	0.8899
224.397	0.9189
224.762	0.933
225.127	0.939
225.493	0.9549
225.858	0.9637
226.223	0.9742
226.588	0.991
226.952	0.9954
227.317	1.0068
227.682	0.9927
228.046	0.987
228.411	0.9955
228.775	0.9895
229.14	0.9871
229.504	0.9798
229.868	0.9776
230.232	0.9681
230.596	0.9657
230.96	0.9561
231.324	0.9482
231.688	0.9323
232.052	0.9317
232.415	0.9203
232.779	0.9165
233.142	0.9046
233.505	0.9018
233.869	0.8898
234.232	0.8761
234.595	0.8689
234.958	0.8624
235.321	0.8514
235.684	0.838
236.047	0.8276
236.409	0.8224
236.772	0.8136
237.134	0.8048
237.497	0.7952
237.859	0.7874
238.222	0.7769
238.584	0.7711
238.946	0.7608
239.308	0.7557
239.67	0.7481
240.032	0.7416
240.393	0.7333
240.755	0.7237
241.117	0.72
241.478	0.7132
241.84	0.7085
242.201	0.7002
242.562	0.696
242.924	0.6882
243.285	0.6832
243.646	0.6758
244.007	0.6749
244.368	0.6677
244.728	0.6632
245.089	0.659
245.45	0.6545
245.81	0.6505
246.171	0.6452
246.531	0.6418
246.891	0.6378
247.252	0.6349
247.612	0.6314
247.972	0.6266
248.332	0.6279
248.692	0.6223
249.051	0.6204
249.411	0.6184
249.771	0.6125
250.13	0.6125
250.49	0.6096
250.849	0.6065
251.208	0.6078
251.568	0.6034
251.927	0.6015
252.286	0.6011
252.645	0.598
253.004	0.5957
253.363	0.5936
253.721	0.5962
254.08	0.5914
254.439	0.59
254.797	0.5871
255.155	0.5863
255.514	0.5876
255.872	0.5847
256.23	0.583
256.588	0.5816
256.946	0.5784
257.304	0.5796
257.662	0.5786
258.02	0.5768
258.377	0.5755
258.735	0.5735
259.093	0.5725
259.45	0.5709
259.807	0.5714
260.165	0.568
260.522	0.5665
260.879	0.5641
261.236	0.5644
261.593	0.5629
261.95	0.561
262.306	0.56
262.663	0.5567
263.02	0.5542
263.376	0.552
263.733	0.5507
264.089	0.5517
264.445	0.5468
264.802	0.5473
265.158	0.5445
265.514	0.5439
265.87	0.5424
266.226	0.5386
266.581	0.535
266.937	0.5339
267.293	0.5314
267.648	0.5289
268.004	0.5273
268.359	0.5252
268.714	0.5216
269.07	0.5205
269.425	0.5161
269.78	0.516
270.135	0.5118
270.49	0.5098
270.844	0.5068
271.199	0.5045
271.554	0.5012
271.908	0.4973
272.263	0.4969
272.617	0.4928
272.972	0.4914
273.326	0.4859
273.68	0.484
274.034	0.4807
274.388	0.4771
274.742	0.4738
275.096	0.4705
275.45	0.4687
275.803	0.4633
276.157	0.4615
276.51	0.4583
276.864	0.4562
277.217	0.452
277.571	0.4478
277.924	0.4423
278.277	0.4393
278.63	0.4369
278.983	0.4309
279.336	0.4273
279.688	0.4255
280.041	0.4216
280.394	0.4169
280.746	0.4127
281.099	0.4085
281.451	0.405
281.803	0.4008
282.156	0.3979
282.508	0.3944
282.86	0.3899
283.212	0.3845
283.564	0.3818
283.916	0.3781
284.267	0.3738
284.619	0.3706
284.971	0.3672
285.322	0.3629
285.673	0.3596
286.025	0.3559
286.376	0.3512
286.727	0.3474
287.078	0.343
287.429	0.3411
287.78	0.3361
288.131	0.3322
288.482	0.3276
288.833	0.3253
289.183	0.3201
289.534	0.3176
289.884	0.3125
290.235	0.3093
290.585	0.3051
290.935	0.302
291.285	0.2976
291.635	0.2937
291.985	0.2903
292.335	0.2857
292.685	0.2834
293.035	0.2793
293.384	0.2758
293.734	0.2719
294.083	0.2678
294.433	0.2641
294.782	0.2615
295.131	0.2578
295.48	0.2543
295.829	0.2511
296.179	0.247
296.527	0.2437
296.876	0.2413
297.225	0.2386
297.574	0.2337
297.922	0.2312
298.271	0.2279
298.619	0.2245
298.968	0.2224
299.316	0.2186
299.664	0.2164
300.012	0.2139
300.36	0.2098
300.708	0.2078
301.056	0.2055
301.404	0.2038
301.752	0.2002
302.099	0.1983
302.447	0.196
302.794	0.1928
303.142	0.1913
303.489	0.1889
303.836	0.1864
304.183	0.1848
304.531	0.1831
304.878	0.1814
305.224	0.1794
305.571	0.1776
305.918	0.176
306.265	0.1742
306.611	0.1735
306.958	0.1716
307.304	0.17
307.651	0.1686
307.997	0.168
308.343	0.1664
308.689	0.1659
309.035	0.165
309.381	0.1639
309.727	0.1619
310.073	0.1628
310.419	0.1613
310.764	0.1606
311.11	0.1602
311.455	0.1592
311.801	0.1583
312.146	0.1583
312.491	0.1578
312.837	0.1576
313.182	0.1573
313.527	0.1572
313.872	0.1565
314.216	0.1564
314.561	0.1567
314.906	0.1569
315.251	0.1565
315.595	0.1562
315.94	0.1566
316.284	0.1572
316.628	0.157
316.972	0.1565
317.317	0.157
317.661	0.1575
318.005	0.158
318.348	0.1579
318.692	0.159
319.036	0.1591
319.38	0.1596
319.723	0.1605
320.067	0.1602
320.41	0.1612
320.754	0.1622
321.097	0.163
321.44	0.1636
321.783	0.1641
322.126	0.1649
322.469	0.167
322.812	0.1669
323.155	0.1682
323.498	0.169
323.84	0.1696
324.183	0.171
324.525	0.172
324.868	0.1731
325.21	0.1741
325.552	0.1755
325.894	0.1759
326.236	0.1773
326.578	0.1785
326.92	0.1796
327.262	0.1802
327.604	0.182
327.946	0.183
328.287	0.1848
328.629	0.1855
328.97	0.1863
329.312	0.1881
329.653	0.189
329.994	0.1904
330.335	0.1923
330.676	0.1929
331.017	0.1935
331.358	0.1955
331.699	0.1967
332.04	0.1974
332.38	0.1986
332.721	0.2018
333.061	0.2009
333.402	0.2033
333.742	0.2044
334.083	0.2057
334.423	0.2066
334.763	0.2075
335.103	0.209
335.443	0.21
335.783	0.2108
336.123	0.2113
336.462	0.213
336.802	0.2141
337.141	0.2149
337.481	0.2163
337.82	0.2164
338.16	0.2181
338.499	0.2185
338.838	0.2197
339.177	0.2212
339.516	0.2223
339.855	0.2226
340.194	0.2241
340.533	0.2254
340.872	0.2256
341.21	0.2277
341.549	0.2268
341.887	0.228
342.226	0.2283
342.564	0.2278
342.902	0.2292
343.24	0.2295
343.578	0.2295
343.916	0.2302
344.254	0.2301
344.592	0.2305
344.93	0.231
345.268	0.2312
345.605	0.2313
345.943	0.2314
346.28	0.2317
346.618	0.2313
346.955	0.2314
347.292	0.2319
347.629	0.2329
347.966	0.2326
348.303	0.2323
348.64	0.2321
348.977	0.2319
349.314	0.2321
349.65	0.2325
349.987	0.2322
350.324	0.2311
350.66	0.2316
350.996	0.2316
351.333	0.2298
351.669	0.2299
352.005	0.2294
352.341	0.2289
352.677	0.2276
353.013	0.2264
353.349	0.2262
353.685	0.2249
354.02	0.2239
354.356	0.2236
354.691	0.222
355.027	0.2215
355.362	0.2195
355.697	0.2189
356.033	0.2186
356.368	0.2169
356.703	0.2171
357.038	0.2157
357.373	0.2147
357.707	0.2146
358.042	0.2129
358.377	0.212
358.711	0.2113
359.046	0.2102
359.38	0.2091
359.715	0.2087
360.049	0.2073
360.383	0.2058
360.717	0.2039
361.051	0.2031
361.385	0.2019
361.719	0.2003
362.053	0.1991
362.387	0.1968
362.72	0.1955
363.054	0.1937
363.387	0.1913
363.721	0.1906
364.054	0.1886
364.387	0.1868
364.721	0.1857
365.054	0.1838
365.387	0.1822
365.72	0.18
366.053	0.1796
366.385	0.177
366.718	0.1763
367.051	0.1745
367.383	0.1731
367.716	0.1718
368.048	0.1711
368.381	0.1693
368.713	0.1687
369.045	0.1672
369.377	0.1655
369.709	0.1646
370.041	0.1624
370.373	0.1615
370.705	0.16
371.037	0.1582
371.368	0.1568
371.7	0.1556
372.031	0.1542
372.363	0.1518
372.694	0.1502
373.025	0.1487
373.356	0.1466
373.688	0.1436
374.019	0.1424
374.35	0.1411
374.68	0.139
375.011	0.1364
375.342	0.1346
375.673	0.1329
376.003	0.1317
376.334	0.1296
376.664	0.1287
376.995	0.1268
377.325	0.1251
377.655	0.1241
377.985	0.1228
378.315	0.1215
378.645	0.1196
378.975	0.1189
379.305	0.1175
379.635	0.1167
379.964	0.1146
380.294	0.1133
380.623	0.112
380.953	0.1111
381.282	0.1103
381.611	0.1089
381.941	0.1071
382.27	0.1062
382.599	0.1043
382.928	0.1033
383.257	0.102
383.585	0.101
383.914	0.0995
384.243	0.0978
384.571	0.0959
384.9	0.0944
385.228	0.0925
385.557	0.0916
385.885	0.0901
386.213	0.0883
386.541	0.0865
386.869	0.0856
387.197	0.0831
387.525	0.0828
387.853	0.081
388.181	0.0801
388.508	0.0793
388.836	0.0772
389.164	0.0763
389.491	0.0756
389.818	0.0742
390.146	0.0732
390.473	0.0715
390.8	0.071
391.127	0.0692
391.454	0.0693
391.781	0.0679
392.108	0.0666
392.435	0.0658
392.761	0.0641
393.088	0.0636
393.415	0.0633
393.741	0.0634
394.067	0.0616
394.394	0.0618
394.72	0.0607
395.046	0.0594
395.372	0.0584
395.698	0.0568
396.024	0.0572
396.35	0.0564
396.676	0.0559
397.001	0.0557
397.327	0.0536
397.653	0.0528
397.978	0.0521
398.303	0.0511
398.629	0.0506
398.954	0.0505
399.279	0.0499
399.604	0.0495
399.929	0.0485
400.254	0.0482
400.579	0.0473
400.904	0.0463
401.229	0.0459
401.553	0.0448
401.878	0.0443
402.202	0.044
402.527	0.0439
402.851	0.0438
403.175	0.0425
403.5	0.0425
403.824	0.0428
404.148	0.042
404.472	0.0422
404.796	0.0412
405.119	0.0408
405.443	0.0404
405.767	0.0398
406.09	0.04
406.414	0.0403
406.737	0.0397
407.061	0.0396
407.384	0.0394
407.707	0.0391
408.03	0.0397
408.353	0.0396
408.676	0.0389
408.999	0.0382
409.322	0.0388
409.645	0.0393
409.968	0.0383
410.29	0.0381
410.613	0.038
410.935	0.0379
411.258	0.0383
411.58	0.0383
411.902	0.0387
412.224	0.0386
412.546	0.0375
412.868	0.0378
413.19	0.0381
413.512	0.0378
413.834	0.0376
414.156	0.0381
414.477	0.038
414.799	0.0376
415.121	0.038
415.442	0.0383
415.763	0.0388
416.085	0.0379
416.406	0.038
416.727	0.0382
417.048	0.0378
417.369	0.0379
417.69	0.0377
418.011	0.0384
418.331	0.0381
418.652	0.0377
418.973	0.0382
419.293	0.0387
419.614	0.0384
419.934	0.0378
420.254	0.0384
420.574	0.0382
420.895	0.0378
421.215	0.0379
421.535	0.0377
421.855	0.0376
422.174	0.0378
422.494	0.038
422.814	0.039
423.134	0.0387
423.453	0.0384
423.773	0.0388
424.092	0.0384
424.411	0.0385
424.731	0.0393
425.05	0.0392
425.369	0.0386
425.688	0.0391
426.007	0.0392
426.326	0.0396
426.644	0.0402
426.963	0.0396
427.282	0.0398
427.6	0.0396
427.919	0.0397
428.237	0.0395
428.556	0.04
428.874	0.0398
429.192	0.0395
429.51	0.0397
429.828	0.0399
430.146	0.0401
430.464	0.0399
430.782	0.0396
431.1	0.0398
431.418	0.0395
431.735	0.0394
432.053	0.0401
432.37	0.04
432.688	0.0399
433.005	0.0403
433.322	0.0406
433.639	0.0402
433.957	0.0404
434.274	0.0406
434.591	0.0403
434.907	0.0409
435.224	0.0403
435.541	0.0406
435.858	0.0412
436.174	0.0412
436.491	0.0406
436.807	0.0408
437.124	0.0392
437.44	0.0396
437.756	0.0399
438.072	0.0396
438.388	0.0406
438.704	0.0402
439.02	0.041
439.336	0.0405
439.652	0.0404
439.968	0.0404
440.283	0.0401
440.599	0.0408
440.914	0.0399
441.23	0.0395
441.545	0.0395
441.86	0.0395
442.175	0.0399
442.491	0.0398
442.806	0.0398
443.121	0.0402
443.435	0.0398
443.75	0.0401
444.065	0.0399
444.38	0.0402
444.694	0.0392
445.009	0.04
445.323	0.0395
445.638	0.0394
445.952	0.04
446.266	0.0395
446.58	0.0398
446.894	0.0396
447.208	0.0404
447.522	0.0399
447.836	0.0389
448.15	0.0389
448.464	0.039
448.777	0.0387
449.091	0.0382
449.404	0.0392
449.718	0.0396
450.031	0.0387
450.345	0.0385
450.658	0.0384
450.971	0.0385
451.284	0.0381
451.597	0.0383
451.91	0.0387
452.223	0.0379
452.535	0.0388
452.848	0.0376
453.161	0.0379
453.473	0.0382
453.786	0.0382
454.098	0.0377
454.411	0.0376
454.723	0.0369
455.035	0.0373
455.347	0.0381
455.659	0.0378
455.971	0.0378
456.283	0.0383
456.595	0.0375
456.907	0.0367
457.218	0.0374
457.53	0.0371
457.841	0.0362
458.153	0.036
458.464	0.0363
458.776	0.0352
459.087	0.0356
459.398	0.0363
459.709	0.0355
460.02	0.0356
460.331	0.0352
460.642	0.0348
460.953	0.035
461.263	0.0349
461.574	0.0347
461.885	0.0348
462.195	0.035
462.506	0.0345
462.816	0.0345
463.126	0.0335
463.437	0.0336
463.747	0.0325
464.057	0.0328
464.367	0.0332
464.677	0.0326
464.987	0.0333
465.296	0.0325
465.606	0.0319
465.916	0.0317
466.225	0.0319
466.535	0.0315
466.844	0.0311
467.154	0.0312
467.463	0.0307
467.772	0.0313
468.081	0.031
468.39	0.0315
468.699	0.0308
469.008	0.0311
469.317	0.0305
469.626	0.0302
469.935	0.0308
470.243	0.0299
470.552	0.0304
470.86	0.03
471.169	0.0297
471.477	0.0294
471.785	0.0297
472.093	0.0302
472.402	0.0284
472.71	0.0286
473.018	0.028
473.326	0.0284
473.633	0.0279
473.941	0.0279
474.249	0.0271
474.556	0.0273
474.864	0.0266
475.171	0.0267
475.479	0.027
475.786	0.0271
476.094	0.0269
476.401	0.0266
476.708	0.0263
477.015	0.0264
477.322	0.026
477.629	0.0262
477.936	0.0261
478.242	0.0252
478.549	0.025
478.856	0.025
479.162	0.0252
479.469	0.0246
479.775	0.0251
480.081	0.0234
480.388	0.0247
480.694	0.0234
481	0.0235
481.306	0.0236
481.612	0.0238
481.918	0.0234
482.224	0.023
482.53	0.0222
482.835	0.0225
483.141	0.0212
483.446	0.022
483.752	0.0219
484.057	0.0202
484.363	0.0208
484.668	0.0209
484.973	0.0204
485.278	0.0211
485.583	0.0199
485.888	0.0195
486.193	0.0196
486.498	0.0202
486.803	0.0201
487.107	0.0195
487.412	0.0192
487.717	0.0186
488.021	0.0189
488.325	0.0185
488.63	0.0182
488.934	0.0188
489.238	0.0187
489.542	0.0179
489.846	0.0168
490.15	0.0192
490.454	0.0179
490.758	0.0177
491.062	0.0176
491.366	0.0179
491.669	0.017
491.973	0.0168
492.276	0.0161
492.58	0.0161
492.883	0.0171
493.186	0.0162
493.489	0.0161
493.792	0.016
494.096	0.0161
494.399	0.0161
494.701	0.016
495.004	0.0155
495.307	0.0149
495.61	0.0149
495.912	0.0151
496.215	0.014
496.517	0.0141
496.82	0.0134
497.122	0.0139
497.424	0.0138
497.727	0.0138
498.029	0.0142
498.331	0.0135
498.633	0.0138
498.935	0.013
499.237	0.0137
499.538	0.0128
499.84	0.0131
500.142	0.0142
500.443	0.013
500.745	0.0137
501.046	0.0125
501.348	0.0124
501.649	0.0122
501.95	0.0117
502.251	0.0122
502.552	0.0103
502.853	0.0114
503.154	0.0109
503.455	0.0105
503.756	0.0117
504.057	0.0112
504.357	0.0107
504.658	0.0101
504.958	0.0109
505.259	0.0109
505.559	0.0112
505.859	0.0101
506.16	0.0105
506.46	0.0098
506.76	0.0107
507.06	0.01
507.36	0.0099
507.66	0.0106
507.96	0.0097
508.259	0.0099
508.559	0.0091
508.859	0.0091
509.158	0.0093
509.457	0.0081
509.757	0.0099
510.056	0.0092
510.355	0.0076
510.655	0.007
510.954	0.0089
511.253	0.0088
511.552	0.0083
511.851	0.007
512.149	0.0077
512.448	0.0076
512.747	0.0085
513.045	0.0072
513.344	0.0084
513.642	0.0084
513.941	0.0082
514.239	0.0078
514.537	0.0075
514.836	0.0077
515.134	0.0072
515.432	0.0078
515.73	0.0076
516.028	0.0067
516.326	0.0076
516.623	0.0064
516.921	0.0068
517.219	0.0079
517.516	0.0072
517.814	0.0067
518.111	0.0067
518.409	0.0081
518.706	0.0073
519.003	0.0068
519.3	0.0057
519.597	0.0055
519.894	0.0068
520.191	0.0074
520.488	0.006
520.785	0.0057
521.082	0.0061
521.378	0.0067
521.675	0.0042
521.971	0.0059
522.268	0.0055
522.564	0.0058
522.861	0.0046
523.157	0.0059
523.453	0.0064
523.749	0.005
524.045	0.0057
524.341	0.0057
524.637	0.0043
524.933	0.0046
525.229	0.005
525.524	0.0052
525.82	0.0058
526.115	0.0041
526.411	0.0047
526.706	0.005
527.002	0.0048
527.297	0.0048
527.592	0.0065
527.887	0.0055
528.182	0.0055
528.477	0.0069
528.772	0.0048
529.067	0.0046
529.362	0.0054
529.657	0.0048
529.951	0.0052
530.246	0.0038
530.54	0.0031
530.835	0.0034
531.129	0.0034
531.423	0.0052
531.718	0.004
532.012	0.0037
532.306	0.0035
532.6	0.0047
532.894	0.0034
533.188	0.0048
533.482	0.0038
533.775	0.0045
534.069	0.0036
534.363	0.0024
534.656	0.0041
534.95	0.0026
535.243	0.0032
535.536	0.0037
535.83	0.0035
536.123	0.0024
536.416	0.0045
536.709	0.0045
537.002	0.0047
537.295	0.004
537.588	0.0042
537.881	0.0029
538.173	0.0031
538.466	0.0027
538.759	0.0031
539.051	0.0028
539.344	0.0031
539.636	0.0037
539.928	0.0032
540.22	0.003
540.513	0.0032
540.805	0.0037
541.097	0.0042
541.389	0.0032
541.681	0.0039
541.972	0.0035
542.264	0.0026
542.556	0.0033
542.847	0.0036
543.139	0.0041
543.431	0.0039
543.722	0.0041
544.013	0.0042
544.305	0.0053
544.596	0.0052
544.887	0.0046
545.178	0.0028
545.469	0.004
545.76	0.0033
546.051	0.0046
546.342	0.0048
546.632	0.0028
546.923	0.0042
547.214	0.0032
547.504	0.0036
547.795	0.0031
548.085	0.0043
548.375	0.0033
548.666	0.0036
548.956	0.0029
549.246	0.0037
549.536	0.0022
549.826	0.0035
550.116	0.0038
550.406	0.0036
550.695	0.0039
550.985	0.0038
551.275	0.0044
551.564	0.0044
551.854	0.0044
552.143	0.0036
552.433	0.0042
552.722	0.0041
553.011	0.0038
553.3	0.004
553.589	0.0037
553.879	0.0038
554.167	0.0044
554.456	0.0033
554.745	0.0025
555.034	0.0032
555.323	0.0021
555.611	0.0027
555.9	0.0043
556.188	0.0033
556.477	0.0038
556.765	0.002
557.053	0.0025
557.342	0.0029
557.63	0.0032
557.918	0.0036
558.206	0.0027
558.494	0.0042
558.782	0.0035
559.069	0.0039
559.357	0.0028
559.645	0.0021
559.932	0.0034
560.22	0.0041
560.507	0.0046
560.795	0.0036
561.082	0.0019
561.37	0.0033
561.657	0.003
561.944	0.0039
562.231	0.0034
562.518	0.0022
562.805	0.0041
563.092	0.004
563.379	0.0034
563.665	0.0036
563.952	0.0043
564.239	0.0045
564.525	0.0037
564.811	0.0049
565.098	0.0047
565.384	0.0047
565.67	0.0046
565.957	0.0037
566.243	0.0035
566.529	0.0045
566.815	0.0058
567.101	0.004
567.387	0.0031
567.672	0.003
567.958	0.004
568.244	0.0034
568.529	0.0034
568.815	0.0037
569.1	0.0036
569.386	0.003
569.671	0.0044
569.956	0.0027
570.242	0.0031
570.527	0.0038
570.812	0.0035
571.097	0.0029
571.382	0.0037
571.666	0.0031
571.951	0.0035
572.236	0.0037
572.521	0.0032
572.805	0.0042
573.09	0.0032
573.374	0.003
573.659	0.0027
573.943	0.0037
574.227	0.0026
574.511	0.0037
574.795	0.0035
575.079	0.0027
575.363	0.0032
575.647	0.0034
575.931	0.0037
576.215	0.0027
576.499	0.0031
576.782	0.0029
577.066	0.0031
577.349	0.0033
577.633	0.0043
577.916	0.0037
578.2	0.0043
578.483	0.0038
578.766	0.0027
579.049	0.0041
579.332	0.0038
579.615	0.003
579.898	0.0037
580.181	0.0033
580.464	0.003
580.746	0.0024
581.029	0.0031
581.312	0.0027
581.594	0.002
581.877	0.0029
582.159	0.0038
582.441	0.0038
582.724	0.0026
583.006	0.0029
583.288	0.0021
583.57	0.0023
583.852	0.0025
584.134	0.0023
584.416	0.0036
584.697	0.0023
584.979	0.0027
585.261	0.0029
585.542	0.0026
585.824	0.0029
586.105	0.0034
586.387	0.0027
586.668	0.0032
586.949	0.003
587.231	0.0025
587.512	0.0028
587.793	0.003
588.074	0.0026
588.355	0.0041
588.636	0.0041
588.916	0.0035
589.197	0.0044
589.478	0.0037
589.758	0.0032
590.039	0.0029
590.319	0.0031
590.6	0.0026
590.88	0.0029
591.16	0.0033
591.441	0.0033
591.721	0.0034
592.001	0.0027
592.281	0.0035
592.561	0.0038
592.841	0.0033
593.12	0.003
593.4	0.0023
593.68	0.0033
593.959	0.0039
594.239	0.0036
594.518	0.003
594.798	0.0032
595.077	0.0033
595.356	0.0034
595.636	0.0035
595.915	0.0036
596.194	0.0026
596.473	0.0035
596.752	0.0032
597.031	0.003
597.31	0.0022
597.588	0.0024
597.867	0.0023
598.146	0.003
598.424	0.0031
598.703	0.0023
598.981	0.003
599.259	0.0034
599.538	0.004
599.816	0.0036
600.094	0.0032
600.372	0.0037
600.65	0.0042
600.928	0.0041
601.206	0.0034
601.484	0.0037
601.762	0.0042
602.04	0.0028
602.317	0.0041
602.595	0.0028
602.872	0.0027
603.15	0.0026
603.427	0.0018
603.704	0.002
603.982	0.0025
604.259	0.0022
604.536	0.0025
604.813	0.0025
605.09	0.0029
605.367	0.002
605.644	0.0022
605.921	0.0026
606.197	0.0029
606.474	0.0026
606.751	0.0028
607.027	0.003
607.304	0.0021
607.58	0.003
607.856	0.003
608.133	0.003
608.409	0.003
608.685	0.0025
608.961	0.0032
609.237	0.003
609.513	0.0027
609.789	0.003
610.065	0.0023
610.341	0.0028
610.616	0.0036
610.892	0.0038
611.167	0.0038
611.443	0.0032
611.718	0.0031
611.994	0.0029
612.269	0.0036
612.544	0.0026
612.819	0.0021
613.095	0.0033
613.37	0.0027
613.645	0.0025
613.919	0.0023
614.194	0.0021
614.469	0.0018
614.744	0.0015
615.019	0.0017
615.293	0.0012
615.568	0.0017
615.842	0.0015
616.116	0.0017
616.391	0.001
616.665	0.0021
616.939	0.0017
617.213	0.0017
617.488	0.0022
617.762	0.0022
618.035	0.0022
618.309	0.0023
618.583	0.0023
618.857	0.0028
619.131	0.0025
619.404	0.0015
619.678	0.0023
619.951	0.0014
620.225	0.0018
620.498	0.0015
620.771	0.0025
621.045	0.0034
621.318	0.0024
621.591	0.0031
621.864	0.0016
622.137	0.0005
622.41	0.0021
622.683	0.0008
622.956	0.0017
623.228	0.0024
623.501	0.0035
623.774	0.0029
624.046	0.0021
624.319	0.0025
624.591	0.0018
624.863	0.0026
625.136	0.0019
625.408	0.0025
625.68	0.0023
625.952	0.0017
626.224	0.0027
626.496	0.0018
626.768	0.0012
627.04	0.0012
627.311	0.0021
627.583	0.0029
627.855	0.0023
628.126	0.0022
628.398	0.0037
628.669	0.0028
628.941	0.0018
629.212	0.0015
629.483	0.0014
629.755	0.0017
630.026	0.0002
630.297	0.0007
630.568	-0.0001
630.839	0.0007
631.11	0.0002
631.38	-0.0005
631.651	-0.0001
631.922	0.0001
632.192	0.0006
632.463	0.0007
632.733	0.0006
633.004	0.0003
633.274	-0.0007
633.545	0.0016
633.815	0.0027
634.085	0.0025
634.355	0.0024
634.625	0.003
634.895	0.0012
635.165	0.001
635.435	0.0014
635.705	0.0012
635.974	0.0008
636.244	0.0019
636.514	0.0007
636.783	0.0015
637.053	0.0021
637.322	0.0013
637.591	0.0017
637.861	0.0022
638.13	0.0031
638.399	0.0019
638.668	0.0012
638.937	0.0002
639.206	0.0027
639.475	0.0014
639.744	0.002
640.013	0.0024
640.281	0.0032
640.55	0.0035
640.819	0.0025
641.087	0.0033
641.356	0.0023
641.624	0.0021
641.892	0.0023
642.161	0.0025
642.429	0.0035
642.697	0.0019
642.965	0.0037
643.233	0.0034
643.501	0.0018
643.769	0.002
644.037	0.0026
644.305	0.002
644.572	0.0005
644.84	0.0008
645.108	0.0012
645.375	0.0011
645.643	0.0007
645.91	0.0008
646.177	0.0023
646.445	0.0048
646.712	0.0048
646.979	0.0044
647.246	0.005
647.513	0.0046
647.78	0.004
648.047	0.0046
648.314	0.0031
648.58	0.0034
648.847	0.002
649.114	0.0012
649.38	0.0011
649.647	0.0015
649.913	0.001
650.18	0.0018
650.446	0.0024
650.712	0.0024
650.978	0.0027
651.245	0.0024
651.511	0.0029
651.777	0.0014
652.043	0.0024
652.309	0.0026
652.574	0.0036
652.84	0.003
653.106	0.0019
653.371	0.001
653.637	0.0019
653.903	0.003
654.168	0.0023
654.433	0.0034
654.699	0.0038
654.964	0.0043
655.229	0.0031
655.494	0.0028
655.759	0.0008
656.024	0.0009
656.289	-0
656.554	0.0011
656.819	0.0009
657.084	0.0034
657.349	0.0032
657.613	0.0037
657.878	0.0023
658.142	0.0041
658.407	0.0035
658.671	0.0033
658.936	0.0026
659.2	0.0018
659.464	0.0016
659.728	0.0013
659.992	0.0019
660.256	0.0015
660.52	0.0019
660.784	0.0005
661.048	0.0008
661.312	0.0002
661.575	-0.0005
661.839	-0.0007
662.103	-0.001
662.366	-0.0012
662.63	-0.0004
662.893	0.0006
663.156	0.0009
663.42	-0.0002
663.683	0.0001
663.946	0.001
664.209	0.0036
664.472	0.0027
664.735	0.0031
664.998	0.002
665.261	0.0015
665.524	0.0014
665.786	0.0017
666.049	0.0015
666.312	0.0011
666.574	0.0018
666.837	0.001
667.099	-0.0004
667.361	-0.0004
667.624	-0
667.886	0.0002
668.148	0.0004
668.41	0.0022
668.672	0.0006
668.934	0.001
669.196	0.0013
669.458	0.0015
669.72	0.0021
669.982	0.0026
670.243	0.003
670.505	0.0029
670.766	0.0019
671.028	0.0022
671.289	0.0021
671.551	0.0011
671.812	0.0006
672.073	0.0016
672.334	0.0009
672.596	0.0007
672.857	0.0007
673.118	0.0008
673.379	0.0003
673.639	-0.0007
673.9	-0.0003
674.161	-0.0011
674.422	-0.002
674.682	-0.0022
674.943	-0.0012
675.203	0.0004
675.464	0.0001
675.724	0.0012
675.985	0.0009
676.245	0.0024
676.505	0.002
676.765	0.0021
677.025	0.002
677.285	0.0019
677.545	0.0036
677.805	0.0029
678.065	0.0038
678.325	0.0041
678.585	0.0025
678.844	0.0024
679.104	0.0027
679.363	0.0024
679.623	0.0033
679.882	0.0035
680.142	0.0038
680.401	0.0035
680.66	0.0045
680.919	0.0041
681.178	0.0043
681.437	0.004
681.696	0.0034
681.955	0.0046
682.214	0.0047
682.473	0.0046
682.732	0.002
682.99	0.0027
683.249	0.0028
683.508	0.0032
683.766	0.0035
684.024	0.0033
684.283	0.0036
684.541	0.0034
684.799	0.0038
685.058	0.0029
685.316	0.0032
685.574	0.0033
685.832	0.0033
686.09	0.0033
686.348	0.0041
686.606	0.004
686.863	0.0037
687.121	0.004
687.379	0.0036
687.636	0.0039
687.894	0.0045
688.151	0.0053
688.409	0.0047
688.666	0.0038
688.923	0.0051
689.181	0.0039
689.438	0.0027
689.695	0.003
689.952	0.002
690.209	0.0021
690.466	0.0021
690.723	0.0038
690.979	0.003
691.236	0.0028
691.493	0.0025
691.75	0.0032
692.006	0.0041
692.263	0.004
692.519	0.0029
692.775	0.0014
693.032	0.0007
693.288	0.0023
693.544	0.0027
693.8	0.0024
694.056	0.0027
694.313	0.0033
694.568	0.0032
694.824	0.0028
695.08	0.0036
695.336	0.0038
695.592	0.0033
695.847	0.0036
696.103	0.0038
696.359	0.0032
696.614	0.0026
696.869	0.0019
697.125	0.0005
697.38	0.0007
697.635	-0.0001
697.891	0.0008
698.146	0.0013
698.401	0.0029
698.656	0.0015
698.911	0.0028
699.166	0.0017
699.42	0.0024
699.675	0.0015
699.93	0.0014
700.185	0.0014
700.439	0.0032
700.694	0.0017
700.948	0.0021
701.203	0.0027
701.457	0.0018
701.711	0.0015
701.965	0.0002
702.22	-0.0001
702.474	0.0008
702.728	-0.0006
702.982	-0.0004
703.236	0.0003
703.49	0.0003
703.743	0.0003
703.997	0.0011
704.251	0.0006
704.504	0.0009
704.758	0.0008
705.012	0.001
705.265	0.0012
705.518	0.0003
705.772	-0.0005
706.025	-0.0006
706.278	-0.0005
706.531	-0.0007
706.785	-0.0019
707.038	-0.0002
707.291	-0
707.543	0.0003
707.796	0.0002
708.049	-0.0001
708.302	-0.0003
708.555	0
708.807	0.0007
709.06	-0.0004
709.312	-0.001
709.565	-0.0019
709.817	-0.0017
710.069	-0.0013
710.322	-0.001
710.574	-0.0006
710.826	-0
711.078	0.0009
711.33	0.0008
711.582	0.0003
711.834	0.0017
712.086	0.0025
712.338	0.0027
712.59	0.0024
712.841	0.0023
713.093	0.0015
713.344	0.0024
713.596	0.0022
713.847	0.0025
714.099	0.0026
714.35	0.0026
714.601	0.0033
714.853	0.0042
715.104	0.004
715.355	0.002
715.606	0.0028
715.857	0.0031
716.108	0.0036
716.359	0.0028
716.609	0.0029
716.86	0.0022
717.111	0.0015
717.361	-0.0001
717.612	0.0011
717.863	0.0004
718.113	0.0007
718.363	0.0003
718.614	0.0012
718.864	0.0011
719.114	0.0016
719.364	0.0005
719.614	-0.0003
719.865	-0.0004
720.114	0.0002
720.364	0.0003
720.614	0.0016
720.864	0.0022
721.114	0.0029
721.364	0.0035
721.613	0.0041
721.863	0.0032
722.112	0.0037
722.362	0.0036
722.611	0.0033
722.86	0.0019
723.11	0.0013
723.359	0.0023
723.608	0.0033
723.857	0.0036
724.106	0.0052
724.355	0.0058
724.604	0.0055
724.853	0.0052
725.102	0.0041
725.351	0.0029
725.599	0.003
725.848	0.0026
726.097	0.0023
726.345	0.002
726.594	0.0017
726.842	0.0015
727.09	0.0014
727.339	0.0021
727.587	0.0017
727.835	0.0001
728.083	0.0004
728.331	-0.0005
728.579	-0.0009
728.827	-0
729.075	0.0003
729.323	0.0013
729.571	0.002
729.818	0.0022
730.066	0.0028
730.314	0.0028
730.561	0.0006
730.809	0.0007
731.056	0.0001
731.303	-0.0006
731.551	0.001
731.798	0.0003
732.045	0.0008
732.292	0.0002
732.539	0.0007
732.786	0.0005
733.033	0.0021
733.28	0.0022
733.527	0.0049
733.774	0.0028
734.021	0.004
734.267	0.0048
734.514	0.0044
734.76	0.004
735.007	0.0053
735.253	0.0056
735.5	0.0055
735.746	0.0055
735.992	0.0054
736.238	0.0055
736.485	0.0058
736.731	0.0065
736.977	0.0052
737.223	0.0045
737.469	0.0055
737.715	0.0053
737.96	0.0067
738.206	0.0062
738.452	0.0081
738.697	0.0081
738.943	0.007
739.189	0.0057
739.434	0.0033
739.679	0.0031
739.925	0.0035
740.17	0.0029
740.415	0.0019
740.66	0.0035
740.906	0.0034
741.151	0.0032
741.396	0.0036
741.641	0.0053
741.886	0.0054
742.13	0.0058
742.375	0.0064
742.62	0.0069
742.865	0.0054
743.109	0.0049
743.354	0.0049
743.598	0.0047
743.843	0.0041
744.087	0.0043
744.331	0.0049
744.576	0.0048
744.82	0.0042
745.064	0.0041
745.308	0.0028
745.552	0.003
745.796	0.0032
746.04	0.0028
746.284	0.0012
746.528	0.0002
746.771	0.0012
747.015	0.0008
747.259	0.0007
747.502	0.0004
747.746	0.0022
747.989	0.0023
748.233	0.0033
748.476	0.0033
748.719	0.0038
748.963	0.0048
749.206	0.0038
749.449	0.0052
749.692	0.0036
749.935	0.0054
750.178	0.0038
750.421	0.0044
750.664	0.0038
750.906	0.004
751.149	0.0027
751.392	0.0024
751.635	0.001
751.877	0.0007
752.12	0.0003
752.362	0.0009
752.604	0.0003
752.847	0.0012
753.089	0.0015
753.331	0.0023
753.573	0.0027
753.816	0.0033
754.058	0.0036
754.3	0.0044
754.542	0.0043
754.783	0.0041
755.025	0.0032
755.267	0.0017
755.509	0.0018
755.75	0.0006
755.992	0.0024
756.234	0.0011
756.475	0.0002
756.716	0.0006
756.958	-0.0002
757.199	0.0006
757.44	0.0015
757.682	0.0012
757.923	0.0006
758.164	0.0003
758.405	-0.0003
758.646	0.0005
758.887	0
759.128	0.0008
759.369	0.0002
759.609	-0.0003
759.85	-0.0003
760.091	0.0009
760.331	0.0003
760.572	-0.0002
760.812	-0.0005
761.053	-0.0002
761.293	0.001
761.533	0.0009
761.774	0.0012
762.014	0.0006
762.254	0.0014
762.494	0.0006
762.734	0.0007
762.974	0.0004
763.214	-0.0003
763.454	-0.0004
763.694	0.0002
763.933	-0.0012
764.173	0.0006
764.413	-0.0002
764.652	0.0007
764.892	0.0014
765.131	0.0009
765.371	0.0013
765.61	0.0026
765.849	0.0014
766.089	0.0018
766.328	0.0032
766.567	0.0024
766.806	0.0034
767.045	0.0035
767.284	0.0035
767.523	0.0043
767.762	0.0042
768.001	0.0033
768.239	0.003
768.478	0.0023
768.717	0.0025
768.955	0.0031
769.194	0.002
769.432	0.0026
769.671	0.0036
769.909	0.0024
770.148	0.0034
770.386	0.0026
770.624	0.0029
770.862	0.0026
771.1	0.0024
771.338	0.002
771.576	0.0028
771.814	0.0023
772.052	0.0024
772.29	0.0028
772.528	0.0032
772.765	0.0037
773.003	0.0036
773.24	0.0031
773.478	0.0021
773.716	0.0042
773.953	0.0037
774.19	0.0045
774.428	0.0043
774.665	0.004
774.902	0.0046
775.139	0.0027
775.376	0.0034
775.613	0.0026
775.85	0.003
776.087	0.0028
776.324	0.0024
776.561	0.0036
776.798	0.0049
777.034	0.0049
777.271	0.006
777.508	0.0063
777.744	0.0061
777.981	0.0058
778.217	0.0051
778.454	0.0051
778.69	0.0043
778.926	0.0046
779.162	0.0051
779.399	0.0043
779.635	0.0038
779.871	0.0035
780.107	0.004
780.343	0.0048
780.579	0.0055
780.814	0.0045
781.05	0.0042
781.286	0.0046
781.522	0.0047
781.757	0.006
781.993	0.0058
782.228	0.0063
782.464	0.0059
782.699	0.0045
782.934	0.004
783.17	0.0046
783.405	0.003
783.64	0.0035
783.875	0.0034
784.11	0.0036
784.345	0.0041
784.58	0.0039
784.815	0.004
785.05	0.0045
785.285	0.0023
785.52	0.0016
785.754	0.0022
785.989	0.0021
786.223	0.0013
786.458	0.0019
786.692	0.0016
786.927	0.001
787.161	0.001
787.396	0.0017
787.63	0.0004
787.864	-0.0002
788.098	0.0013
788.332	0.0005
788.566	0.0009
788.8	0.0001
789.034	0.0002
789.268	0.0015
789.502	0.0021
789.736	0.0022
789.969	0.0026
790.203	0.0023
790.437	0.0025
790.67	0.0015
790.904	0.0025
791.137	0.0009
791.37	0.0013
791.604	-0.0001
791.837	0.0008
792.07	0.0004
792.303	0.001
792.537	0.0007
792.77	0.0006
793.003	0.0004
793.236	-0.0009
793.469	-0.0003
793.701	-0.0004
793.934	-0
794.167	0.0002
794.4	-0.0001
794.632	0.0005
794.865	-0.0001
795.097	0.0003
795.33	0.0009
795.562	0.0006
795.795	0.001
796.027	0.0009
796.259	0.0013
796.491	0.0003
796.724	-0
796.956	0.0013
797.188	0.0015
797.42	0.0007
797.652	0.0011
797.883	-0
798.115	0
798.347	-0.0001
798.579	-0.0011
798.81	-0.0011
799.042	-0.0013
799.274	-0.0021
799.505	-0.0017
799.737	-0.0021
799.968	-0.0016
800.199	-0.0011
800.431	-0.0013
800.662	-0.0008
800.893	-0.0002
801.124	0.0003
801.355	0.0007
801.586	0.0008
801.817	0.0008
802.048	0.0006
802.279	0.0005
802.51	0.0007
802.741	-0.0006
802.971	-0.0006
803.202	-0.0015
803.433	-0.0006
803.663	-0.0011
803.894	0.0003
804.124	0.0006
804.354	0.0002
804.585	-0.0004
804.815	-0.0002
805.045	0.0005
805.275	-0.0019
805.506	-0.0071
805.736	0.1156
805.966	0.0101
806.196	0.0719
