Data from 03 0.2 mM BQDS 0.4 mM K2Cr2O7 1 M H2SO4 5 min_Absorbance_06-47-42-568.txt Node
Date: Wed Dec 08 06:47:42 EST 2021
User: kwabilab-user
Spectrometer: HDX00518
Trigger mode: 0
Integration Time (sec): 5.000000E-2
Scans to average: 50
Nonlinearity correction enabled: false
Boxcar width: 0
Storing dark spectrum: false
XAxis mode: Wavelengths
Number of Pixels in Spectrum: 2068
>>>>>Begin Spectral Data<<<<<
195.27	-0.0097
195.642	0.1076
196.014	0.0248
196.386	0.0235
196.758	-0.0047
197.129	-0.0151
197.501	0.0252
197.872	0.0651
198.244	0.0978
198.615	0.0901
198.986	0.0798
199.357	0.0728
199.728	0.0939
200.099	0.0779
200.47	0.0753
200.841	0.0775
201.212	0.0735
201.582	0.0732
201.953	0.0955
202.323	0.078
202.694	0.0753
203.064	0.1025
203.434	0.0697
203.804	0.0979
204.174	0.0935
204.544	0.0809
204.914	0.0845
205.284	0.0823
205.653	0.0949
206.023	0.0891
206.393	0.0907
206.762	0.086
207.131	0.0785
207.501	0.0977
207.87	0.0937
208.239	0.0945
208.608	0.0748
208.977	0.1017
209.346	0.1108
209.715	0.0863
210.083	0.1124
210.452	0.112
210.82	0.1042
211.189	0.1153
211.557	0.1095
211.925	0.1278
212.294	0.1323
212.662	0.1421
213.03	0.1382
213.398	0.113
213.766	0.1525
214.133	0.1587
214.501	0.1704
214.869	0.1553
215.236	0.1874
215.604	0.1988
215.971	0.2226
216.338	0.2304
216.705	0.2499
217.072	0.2655
217.439	0.2735
217.806	0.3146
218.173	0.3401
218.54	0.3744
218.907	0.4225
219.273	0.4402
219.64	0.4709
220.006	0.5168
220.373	0.5476
220.739	0.5897
221.105	0.6283
221.471	0.6643
221.837	0.6925
222.203	0.7433
222.569	0.7634
222.935	0.8015
223.3	0.8092
223.666	0.8573
224.031	0.8686
224.397	0.8891
224.762	0.9049
225.127	0.9316
225.493	0.9461
225.858	0.9534
226.223	0.9656
226.588	0.9737
226.952	0.9815
227.317	0.9913
227.682	0.9844
228.046	0.9799
228.411	0.9831
228.775	0.9833
229.14	0.9844
229.504	0.9673
229.868	0.9713
230.232	0.9697
230.596	0.9619
230.96	0.9471
231.324	0.9418
231.688	0.9333
232.052	0.924
232.415	0.9187
232.779	0.9122
233.142	0.8987
233.505	0.8895
233.869	0.8823
234.232	0.8738
234.595	0.862
234.958	0.8573
235.321	0.8433
235.684	0.8355
236.047	0.829
236.409	0.8181
236.772	0.8088
237.134	0.8026
237.497	0.7911
237.859	0.7851
238.222	0.7771
238.584	0.7664
238.946	0.759
239.308	0.7534
239.67	0.7466
240.032	0.7396
240.393	0.7325
240.755	0.7226
241.117	0.718
241.478	0.712
241.84	0.7052
242.201	0.6964
242.562	0.691
242.924	0.685
243.285	0.6796
243.646	0.6741
244.007	0.6719
244.368	0.6686
244.728	0.6613
245.089	0.6585
245.45	0.6534
245.81	0.6514
246.171	0.6445
246.531	0.6399
246.891	0.637
247.252	0.6335
247.612	0.6292
247.972	0.6274
248.332	0.6245
248.692	0.6212
249.051	0.6189
249.411	0.6188
249.771	0.6139
250.13	0.6115
250.49	0.6105
250.849	0.608
251.208	0.6052
251.568	0.6035
251.927	0.6009
252.286	0.5998
252.645	0.5973
253.004	0.5955
253.363	0.5946
253.721	0.5941
254.08	0.5925
254.439	0.5898
254.797	0.5867
255.155	0.5871
255.514	0.585
255.872	0.5836
256.23	0.5823
256.588	0.5812
256.946	0.5812
257.304	0.5795
257.662	0.5762
258.02	0.5787
258.377	0.575
258.735	0.5746
259.093	0.5723
259.45	0.5716
259.807	0.5708
260.165	0.5686
260.522	0.5661
260.879	0.5654
261.236	0.565
261.593	0.562
261.95	0.5601
262.306	0.5598
262.663	0.5569
263.02	0.5581
263.376	0.5535
263.733	0.5521
264.089	0.5507
264.445	0.5476
264.802	0.5468
265.158	0.5453
265.514	0.5417
265.87	0.5398
266.226	0.5396
266.581	0.5378
266.937	0.5339
267.293	0.532
267.648	0.5308
268.004	0.528
268.359	0.5243
268.714	0.5223
269.07	0.5196
269.425	0.5174
269.78	0.5158
270.135	0.5118
270.49	0.511
270.844	0.5067
271.199	0.5048
271.554	0.5026
271.908	0.4987
272.263	0.4963
272.617	0.4926
272.972	0.4919
273.326	0.4875
273.68	0.485
274.034	0.4803
274.388	0.4784
274.742	0.4745
275.096	0.472
275.45	0.4691
275.803	0.4641
276.157	0.4609
276.51	0.4573
276.864	0.4559
277.217	0.4521
277.571	0.4461
277.924	0.4435
278.277	0.439
278.63	0.4351
278.983	0.4319
279.336	0.4286
279.688	0.4247
280.041	0.4207
280.394	0.4169
280.746	0.4159
281.099	0.4095
281.451	0.4045
281.803	0.4008
282.156	0.397
282.508	0.3938
282.86	0.3907
283.212	0.3858
283.564	0.383
283.916	0.3785
284.267	0.3741
284.619	0.3705
284.971	0.3662
285.322	0.3624
285.673	0.3597
286.025	0.3562
286.376	0.3515
286.727	0.3484
287.078	0.3445
287.429	0.3413
287.78	0.3362
288.131	0.3332
288.482	0.3278
288.833	0.3246
289.183	0.3195
289.534	0.3167
289.884	0.3131
290.235	0.3091
290.585	0.3057
290.935	0.3011
291.285	0.2984
291.635	0.2945
291.985	0.2898
292.335	0.2868
292.685	0.2836
293.035	0.2796
293.384	0.2751
293.734	0.2713
294.083	0.2678
294.433	0.2649
294.782	0.2623
295.131	0.2581
295.48	0.2548
295.829	0.2514
296.179	0.2471
296.527	0.2442
296.876	0.2409
297.225	0.2388
297.574	0.2347
297.922	0.2314
298.271	0.2282
298.619	0.2245
298.968	0.2232
299.316	0.2199
299.664	0.217
300.012	0.2145
300.36	0.2104
300.708	0.2082
301.056	0.2064
301.404	0.2039
301.752	0.2008
302.099	0.1985
302.447	0.1962
302.794	0.1933
303.142	0.1922
303.489	0.1897
303.836	0.187
304.183	0.1854
304.531	0.1841
304.878	0.1817
305.224	0.1793
305.571	0.1784
305.918	0.1767
306.265	0.1749
306.611	0.1734
306.958	0.1715
307.304	0.1708
307.651	0.1699
307.997	0.1682
308.343	0.1673
308.689	0.166
309.035	0.1652
309.381	0.1643
309.727	0.1628
310.073	0.1629
310.419	0.1619
310.764	0.1608
311.11	0.1603
311.455	0.1599
311.801	0.1588
312.146	0.1588
312.491	0.1582
312.837	0.158
313.182	0.1583
313.527	0.1578
313.872	0.1575
314.216	0.1569
314.561	0.1566
314.906	0.1569
315.251	0.1573
315.595	0.1569
315.94	0.1567
316.284	0.1578
316.628	0.1569
316.972	0.1576
317.317	0.1576
317.661	0.1587
318.005	0.1588
318.348	0.1585
318.692	0.1593
319.036	0.1595
319.38	0.16
319.723	0.161
320.067	0.1611
320.41	0.1613
320.754	0.1623
321.097	0.163
321.44	0.1636
321.783	0.1646
322.126	0.1658
322.469	0.167
322.812	0.1676
323.155	0.1681
323.498	0.1697
323.84	0.1703
324.183	0.1719
324.525	0.1723
324.868	0.1735
325.21	0.175
325.552	0.1756
325.894	0.1761
326.236	0.1778
326.578	0.1796
326.92	0.1799
327.262	0.1807
327.604	0.1822
327.946	0.1833
328.287	0.1854
328.629	0.1858
328.97	0.1872
329.312	0.1882
329.653	0.1894
329.994	0.1909
330.335	0.1921
330.676	0.1938
331.017	0.194
331.358	0.1956
331.699	0.1975
332.04	0.1984
332.38	0.1998
332.721	0.2014
333.061	0.202
333.402	0.2036
333.742	0.2053
334.083	0.2066
334.423	0.207
334.763	0.2079
335.103	0.2089
335.443	0.2102
335.783	0.2115
336.123	0.2117
336.462	0.2137
336.802	0.2145
337.141	0.2154
337.481	0.2163
337.82	0.2169
338.16	0.218
338.499	0.2192
338.838	0.2199
339.177	0.2215
339.516	0.2223
339.855	0.2237
340.194	0.2245
340.533	0.2253
340.872	0.2263
341.21	0.2268
341.549	0.228
341.887	0.2286
342.226	0.229
342.564	0.2284
342.902	0.2297
343.24	0.23
343.578	0.2295
343.916	0.2304
344.254	0.2309
344.592	0.2313
344.93	0.2315
345.268	0.2315
345.605	0.2312
345.943	0.2318
346.28	0.232
346.618	0.2322
346.955	0.232
347.292	0.232
347.629	0.2328
347.966	0.2327
348.303	0.2328
348.64	0.233
348.977	0.2329
349.314	0.2324
349.65	0.2333
349.987	0.2331
350.324	0.2328
350.66	0.2315
350.996	0.2323
351.333	0.2304
351.669	0.2295
352.005	0.23
352.341	0.2291
352.677	0.2284
353.013	0.227
353.349	0.2267
353.685	0.225
354.02	0.2244
354.356	0.2241
354.691	0.2218
355.027	0.2218
355.362	0.2202
355.697	0.2198
356.033	0.2189
356.368	0.2181
356.703	0.2173
357.038	0.2168
357.373	0.2154
357.707	0.2145
358.042	0.2133
358.377	0.2129
358.711	0.2119
359.046	0.2108
359.38	0.2092
359.715	0.2085
360.049	0.2078
360.383	0.2067
360.717	0.2054
361.051	0.2035
361.385	0.203
361.719	0.2008
362.053	0.1996
362.387	0.1967
362.72	0.1958
363.054	0.1941
363.387	0.1924
363.721	0.1912
364.054	0.189
364.387	0.1875
364.721	0.1861
365.054	0.1838
365.387	0.1829
365.72	0.181
366.053	0.1794
366.385	0.1777
366.718	0.1761
367.051	0.175
367.383	0.1735
367.716	0.1725
368.048	0.1716
368.381	0.17
368.713	0.1691
369.045	0.1674
369.377	0.1661
369.709	0.1643
370.041	0.1633
370.373	0.1625
370.705	0.1606
371.037	0.1591
371.368	0.1572
371.7	0.1561
372.031	0.154
372.363	0.1527
372.694	0.1511
373.025	0.149
373.356	0.1472
373.688	0.1443
374.019	0.1423
374.35	0.141
374.68	0.1388
375.011	0.1362
375.342	0.1349
375.673	0.1337
376.003	0.1318
376.334	0.1295
376.664	0.1287
376.995	0.1265
377.325	0.1258
377.655	0.1246
377.985	0.1227
378.315	0.1222
378.645	0.1198
378.975	0.1192
379.305	0.1173
379.635	0.1175
379.964	0.1152
380.294	0.1141
380.623	0.1128
380.953	0.1118
381.282	0.1105
381.611	0.1093
381.941	0.1079
382.27	0.1063
382.599	0.1046
382.928	0.1037
383.257	0.1022
383.585	0.1014
383.914	0.0993
384.243	0.0981
384.571	0.0963
384.9	0.0948
385.228	0.0932
385.557	0.0918
385.885	0.0905
386.213	0.0887
386.541	0.0879
386.869	0.0857
387.197	0.0837
387.525	0.0825
387.853	0.081
388.181	0.0805
388.508	0.0793
388.836	0.0779
389.164	0.0765
389.491	0.0758
389.818	0.0747
390.146	0.0734
390.473	0.0719
390.8	0.0711
391.127	0.0698
391.454	0.0693
391.781	0.0684
392.108	0.0669
392.435	0.0657
392.761	0.0648
393.088	0.0641
393.415	0.0638
393.741	0.0637
394.067	0.062
394.394	0.0624
394.72	0.0609
395.046	0.0599
395.372	0.0587
395.698	0.0575
396.024	0.0575
396.35	0.0566
396.676	0.0561
397.001	0.0558
397.327	0.0541
397.653	0.053
397.978	0.0526
398.303	0.0513
398.629	0.0506
398.954	0.0506
399.279	0.0504
399.604	0.0494
399.929	0.0487
400.254	0.0482
400.579	0.0477
400.904	0.0464
401.229	0.0459
401.553	0.0451
401.878	0.0444
402.202	0.0446
402.527	0.0439
402.851	0.044
403.175	0.0432
403.5	0.0432
403.824	0.0431
404.148	0.0424
404.472	0.0425
404.796	0.0413
405.119	0.0416
405.443	0.0407
405.767	0.0405
406.09	0.0401
406.414	0.0405
406.737	0.0399
407.061	0.0401
407.384	0.0399
407.707	0.0391
408.03	0.0395
408.353	0.0395
408.676	0.0389
408.999	0.039
409.322	0.0396
409.645	0.0393
409.968	0.0383
410.29	0.0388
410.613	0.0383
410.935	0.0379
411.258	0.0389
411.58	0.0376
411.902	0.0379
412.224	0.0385
412.546	0.0382
412.868	0.0383
413.19	0.0382
413.512	0.0381
413.834	0.0378
414.156	0.0389
414.477	0.038
414.799	0.0382
415.121	0.0389
415.442	0.0384
415.763	0.038
416.085	0.0386
416.406	0.0384
416.727	0.0384
417.048	0.0379
417.369	0.0381
417.69	0.0378
418.011	0.0385
418.331	0.0385
418.652	0.0386
418.973	0.0385
419.293	0.0384
419.614	0.0385
419.934	0.0385
420.254	0.0384
420.574	0.0385
420.895	0.0386
421.215	0.0382
421.535	0.0381
421.855	0.038
422.174	0.0382
422.494	0.0384
422.814	0.0392
423.134	0.0385
423.453	0.0386
423.773	0.0387
424.092	0.0383
424.411	0.0388
424.731	0.0391
425.05	0.0386
425.369	0.0394
425.688	0.0392
426.007	0.0397
426.326	0.0399
426.644	0.0404
426.963	0.04
427.282	0.0405
427.6	0.04
427.919	0.0394
428.237	0.0401
428.556	0.0405
428.874	0.0397
429.192	0.0399
429.51	0.0398
429.828	0.0404
430.146	0.0405
430.464	0.0401
430.782	0.0402
431.1	0.0399
431.418	0.0398
431.735	0.0401
432.053	0.0406
432.37	0.0405
432.688	0.0407
433.005	0.0403
433.322	0.0408
433.639	0.0403
433.957	0.0406
434.274	0.0408
434.591	0.0406
434.907	0.0413
435.224	0.0406
435.541	0.041
435.858	0.042
436.174	0.0412
436.491	0.0408
436.807	0.0408
437.124	0.0396
437.44	0.0403
437.756	0.0399
438.072	0.0396
438.388	0.0408
438.704	0.0407
439.02	0.0409
439.336	0.0404
439.652	0.0403
439.968	0.0408
440.283	0.0407
440.599	0.0407
440.914	0.0406
441.23	0.0404
441.545	0.04
441.86	0.0407
442.175	0.0402
442.491	0.0397
442.806	0.0397
443.121	0.0407
443.435	0.0401
443.75	0.0398
444.065	0.0401
444.38	0.0402
444.694	0.0404
445.009	0.0402
445.323	0.0398
445.638	0.0401
445.952	0.0402
446.266	0.0402
446.58	0.0404
446.894	0.0401
447.208	0.0408
447.522	0.0404
447.836	0.0387
448.15	0.0389
448.464	0.0392
448.777	0.0387
449.091	0.0385
449.404	0.0395
449.718	0.0402
450.031	0.0395
450.345	0.0381
450.658	0.0387
450.971	0.0389
451.284	0.0385
451.597	0.0391
451.91	0.039
452.223	0.0381
452.535	0.0394
452.848	0.0371
453.161	0.0379
453.473	0.0388
453.786	0.0388
454.098	0.0378
454.411	0.0385
454.723	0.0374
455.035	0.038
455.347	0.0382
455.659	0.0381
455.971	0.038
456.283	0.0373
456.595	0.0373
456.907	0.0372
457.218	0.0372
457.53	0.0371
457.841	0.0365
458.153	0.0368
458.464	0.0365
458.776	0.0355
459.087	0.0359
459.398	0.0359
459.709	0.0356
460.02	0.0351
460.331	0.0354
460.642	0.0352
460.953	0.0351
461.263	0.0353
461.574	0.0357
461.885	0.0345
462.195	0.0351
462.506	0.0349
462.816	0.0352
463.126	0.0338
463.437	0.0344
463.747	0.0334
464.057	0.033
464.367	0.0335
464.677	0.0327
464.987	0.033
465.296	0.0333
465.606	0.0326
465.916	0.0317
466.225	0.0322
466.535	0.0321
466.844	0.0316
467.154	0.032
467.463	0.0316
467.772	0.0316
468.081	0.031
468.39	0.0311
468.699	0.0311
469.008	0.0311
469.317	0.0304
469.626	0.0303
469.935	0.0294
470.243	0.0307
470.552	0.0307
470.86	0.0303
471.169	0.0298
471.477	0.0295
471.785	0.0296
472.093	0.0297
472.402	0.0298
472.71	0.029
473.018	0.0285
473.326	0.0277
473.633	0.028
473.941	0.0285
474.249	0.0272
474.556	0.0275
474.864	0.0278
475.171	0.0269
475.479	0.0273
475.786	0.0269
476.094	0.0271
476.401	0.0268
476.708	0.0268
477.015	0.0264
477.322	0.0272
477.629	0.0263
477.936	0.0252
478.242	0.0253
478.549	0.0251
478.856	0.0243
479.162	0.0251
479.469	0.0251
479.775	0.0247
480.081	0.024
480.388	0.0251
480.694	0.024
481	0.0232
481.306	0.0236
481.612	0.0233
481.918	0.0232
482.224	0.0232
482.53	0.0231
482.835	0.0227
483.141	0.022
483.446	0.0222
483.752	0.0219
484.057	0.0213
484.363	0.0212
484.668	0.021
484.973	0.0209
485.278	0.0209
485.583	0.0208
485.888	0.0198
486.193	0.0201
486.498	0.0202
486.803	0.0205
487.107	0.0199
487.412	0.0194
487.717	0.0196
488.021	0.0199
488.325	0.0181
488.63	0.0186
488.934	0.0191
489.238	0.0194
489.542	0.0189
489.846	0.0171
490.15	0.0191
490.454	0.0185
490.758	0.0181
491.062	0.0183
491.366	0.0169
491.669	0.0177
491.973	0.0175
492.276	0.0172
492.58	0.0156
492.883	0.0171
493.186	0.0165
493.489	0.0159
493.792	0.0169
494.096	0.0164
494.399	0.0164
494.701	0.016
495.004	0.0154
495.307	0.0149
495.61	0.0148
495.912	0.0142
496.215	0.0144
496.517	0.0149
496.82	0.0147
497.122	0.0143
497.424	0.0144
497.727	0.0136
498.029	0.0139
498.331	0.0145
498.633	0.014
498.935	0.0133
499.237	0.0137
499.538	0.013
499.84	0.0124
500.142	0.0132
500.443	0.0126
500.745	0.0132
501.046	0.0128
501.348	0.0123
501.649	0.0133
501.95	0.0113
502.251	0.0122
502.552	0.0109
502.853	0.0114
503.154	0.0111
503.455	0.0106
503.756	0.0112
504.057	0.0117
504.357	0.0113
504.658	0.0103
504.958	0.0106
505.259	0.0108
505.559	0.0114
505.859	0.0106
506.16	0.0111
506.46	0.0103
506.76	0.0113
507.06	0.0098
507.36	0.0102
507.66	0.011
507.96	0.0107
508.259	0.0098
508.559	0.0087
508.859	0.0093
509.158	0.0094
509.457	0.009
509.757	0.0098
510.056	0.0097
510.355	0.0083
510.655	0.0085
510.954	0.0088
511.253	0.0084
511.552	0.0088
511.851	0.0078
512.149	0.0081
512.448	0.0071
512.747	0.0087
513.045	0.0065
513.344	0.0083
513.642	0.0088
513.941	0.0076
514.239	0.0077
514.537	0.0078
514.836	0.0085
515.134	0.0076
515.432	0.0079
515.73	0.0077
516.028	0.0072
516.326	0.0066
516.623	0.0058
516.921	0.0062
517.219	0.007
517.516	0.0073
517.814	0.0068
518.111	0.0074
518.409	0.0086
518.706	0.0081
519.003	0.0071
519.3	0.0058
519.597	0.0064
519.894	0.0064
520.191	0.0082
520.488	0.0069
520.785	0.0055
521.082	0.0054
521.378	0.006
521.675	0.0045
521.971	0.0063
522.268	0.0056
522.564	0.0062
522.861	0.0056
523.157	0.0054
523.453	0.0057
523.749	0.0061
524.045	0.0066
524.341	0.0062
524.637	0.0055
524.933	0.0046
525.229	0.0061
525.524	0.0046
525.82	0.0066
526.115	0.005
526.411	0.0052
526.706	0.0053
527.002	0.006
527.297	0.0038
527.592	0.0067
527.887	0.0066
528.182	0.0054
528.477	0.0062
528.772	0.0054
529.067	0.0051
529.362	0.0049
529.657	0.0046
529.951	0.0047
530.246	0.0035
530.54	0.0036
530.835	0.0036
531.129	0.0035
531.423	0.004
531.718	0.0037
532.012	0.0045
532.306	0.0032
532.6	0.004
532.894	0.004
533.188	0.0036
533.482	0.0038
533.775	0.0043
534.069	0.0035
534.363	0.0029
534.656	0.0032
534.95	0.0026
535.243	0.0027
535.536	0.0033
535.83	0.004
536.123	0.0033
536.416	0.0038
536.709	0.003
537.002	0.0051
537.295	0.0028
537.588	0.0043
537.881	0.0037
538.173	0.0033
538.466	0.0035
538.759	0.0037
539.051	0.0029
539.344	0.0037
539.636	0.0034
539.928	0.0028
540.22	0.0039
540.513	0.0036
540.805	0.0035
541.097	0.0032
541.389	0.0029
541.681	0.0036
541.972	0.0036
542.264	0.0027
542.556	0.0036
542.847	0.0047
543.139	0.0041
543.431	0.0036
543.722	0.0042
544.013	0.0044
544.305	0.0055
544.596	0.0044
544.887	0.0041
545.178	0.0035
545.469	0.0043
545.76	0.0033
546.051	0.0045
546.342	0.0052
546.632	0.0025
546.923	0.004
547.214	0.0034
547.504	0.0033
547.795	0.0037
548.085	0.0037
548.375	0.0034
548.666	0.003
548.956	0.0024
549.246	0.0032
549.536	0.0036
549.826	0.0039
550.116	0.0041
550.406	0.0039
550.695	0.0041
550.985	0.0031
551.275	0.0051
551.564	0.0031
551.854	0.0041
552.143	0.0036
552.433	0.0042
552.722	0.0036
553.011	0.0034
553.3	0.0036
553.589	0.0027
553.879	0.003
554.167	0.0041
554.456	0.0032
554.745	0.0035
555.034	0.0029
555.323	0.002
555.611	0.0029
555.9	0.0029
556.188	0.0038
556.477	0.0021
556.765	0.0015
557.053	0.0029
557.342	0.0024
557.63	0.0035
557.918	0.0029
558.206	0.0033
558.494	0.0036
558.782	0.0023
559.069	0.0037
559.357	0.0038
559.645	0.0026
559.932	0.0035
560.22	0.0034
560.507	0.0041
560.795	0.0025
561.082	0.0018
561.37	0.0029
561.657	0.0028
561.944	0.0033
562.231	0.0037
562.518	0.0025
562.805	0.0033
563.092	0.0048
563.379	0.0041
563.665	0.0034
563.952	0.0032
564.239	0.0042
564.525	0.0038
564.811	0.005
565.098	0.0046
565.384	0.0038
565.67	0.0043
565.957	0.0037
566.243	0.004
566.529	0.0039
566.815	0.0054
567.101	0.0033
567.387	0.0029
567.672	0.0033
567.958	0.0038
568.244	0.004
568.529	0.0035
568.815	0.003
569.1	0.0036
569.386	0.0041
569.671	0.0037
569.956	0.0031
570.242	0.0029
570.527	0.0037
570.812	0.0039
571.097	0.0039
571.382	0.0035
571.666	0.0031
571.951	0.0032
572.236	0.0037
572.521	0.0031
572.805	0.0043
573.09	0.0033
573.374	0.0026
573.659	0.0022
573.943	0.004
574.227	0.0031
574.511	0.0034
574.795	0.0033
575.079	0.0034
575.363	0.0026
575.647	0.0034
575.931	0.0034
576.215	0.0039
576.499	0.0033
576.782	0.0029
577.066	0.003
577.349	0.0024
577.633	0.0037
577.916	0.0038
578.2	0.0046
578.483	0.0038
578.766	0.003
579.049	0.0035
579.332	0.004
579.615	0.0038
579.898	0.0036
580.181	0.0034
580.464	0.0032
580.746	0.0029
581.029	0.0038
581.312	0.0033
581.594	0.0027
581.877	0.0034
582.159	0.0041
582.441	0.0037
582.724	0.0031
583.006	0.003
583.288	0.0025
583.57	0.002
583.852	0.0022
584.134	0.0027
584.416	0.0035
584.697	0.003
584.979	0.0031
585.261	0.0028
585.542	0.0026
585.824	0.0033
586.105	0.003
586.387	0.0027
586.668	0.0026
586.949	0.0029
587.231	0.0031
587.512	0.0032
587.793	0.0034
588.074	0.0034
588.355	0.0037
588.636	0.0037
588.916	0.003
589.197	0.0033
589.478	0.0034
589.758	0.0034
590.039	0.0029
590.319	0.0036
590.6	0.0031
590.88	0.0031
591.16	0.0038
591.441	0.0036
591.721	0.0042
592.001	0.0037
592.281	0.0036
592.561	0.0036
592.841	0.0036
593.12	0.0031
593.4	0.0027
593.68	0.0037
593.959	0.0033
594.239	0.0044
594.518	0.0035
594.798	0.0036
595.077	0.0036
595.356	0.0032
595.636	0.0034
595.915	0.0034
596.194	0.0027
596.473	0.0039
596.752	0.0031
597.031	0.0032
597.31	0.0017
597.588	0.0027
597.867	0.0028
598.146	0.0025
598.424	0.0028
598.703	0.0029
598.981	0.0031
599.259	0.0027
599.538	0.0037
599.816	0.0036
600.094	0.0038
600.372	0.0034
600.65	0.0041
600.928	0.0037
601.206	0.0033
601.484	0.0038
601.762	0.0032
602.04	0.0032
602.317	0.0032
602.595	0.0026
602.872	0.0023
603.15	0.0024
603.427	0.0022
603.704	0.0018
603.982	0.003
604.259	0.0016
604.536	0.0021
604.813	0.0027
605.09	0.0025
605.367	0.003
605.644	0.0019
605.921	0.0035
606.197	0.0032
606.474	0.0028
606.751	0.003
607.027	0.0034
607.304	0.0028
607.58	0.0029
607.856	0.0024
608.133	0.0035
608.409	0.0036
608.685	0.0024
608.961	0.0029
609.237	0.0024
609.513	0.0029
609.789	0.003
610.065	0.0026
610.341	0.0022
610.616	0.003
610.892	0.0038
611.167	0.0041
611.443	0.0034
611.718	0.0026
611.994	0.0025
612.269	0.0037
612.544	0.0028
612.819	0.003
613.095	0.0029
613.37	0.003
613.645	0.0023
613.919	0.0022
614.194	0.0025
614.469	0.0023
614.744	0.0023
615.019	0.0022
615.293	0.0012
615.568	0.0019
615.842	0.0013
616.116	0.0012
616.391	0.0009
616.665	0.0028
616.939	0.0015
617.213	0.0024
617.488	0.0017
617.762	0.0022
618.035	0.0014
618.309	0.0021
618.583	0.0019
618.857	0.0029
619.131	0.0028
619.404	0.0019
619.678	0.0023
619.951	0.001
620.225	0.0016
620.498	0.001
620.771	0.0025
621.045	0.0025
621.318	0.0028
621.591	0.0022
621.864	0.0009
622.137	0.0006
622.41	0.0016
622.683	0.0015
622.956	0.0023
623.228	0.0017
623.501	0.0028
623.774	0.0022
624.046	0.0024
624.319	0.0025
624.591	0.0014
624.863	0.0022
625.136	0.0024
625.408	0.0018
625.68	0.0022
625.952	0.0018
626.224	0.0029
626.496	0.0019
626.768	0.0016
627.04	0.002
627.311	0.0021
627.583	0.0025
627.855	0.0026
628.126	0.0025
628.398	0.0031
628.669	0.0017
628.941	0.0016
629.212	0.0018
629.483	0.0006
629.755	0.0016
630.026	0.0017
630.297	0.0011
630.568	0.0008
630.839	0.001
631.11	0.0004
631.38	-0.0003
631.651	-0.0002
631.922	0.0002
632.192	-0.0007
632.463	-0.0004
632.733	0.0009
633.004	0.0002
633.274	-0.001
633.545	0.002
633.815	0.0019
634.085	0.0023
634.355	0.0015
634.625	0.0024
634.895	0.002
635.165	-0
635.435	0.0005
635.705	0.0014
635.974	0.0011
636.244	0.0017
636.514	0.0019
636.783	0.0022
637.053	0.0017
637.322	0.0015
637.591	0.0035
637.861	0.0017
638.13	0.0021
638.399	0.0021
638.668	0.0019
638.937	0.0013
639.206	0.0017
639.475	0.0013
639.744	0.001
640.013	0.0031
640.281	0.0039
640.55	0.0032
640.819	0.0032
641.087	0.0024
641.356	0.0024
641.624	0.0022
641.892	0.0025
642.161	0.003
642.429	0.0033
642.697	0.0025
642.965	0.0037
643.233	0.0034
643.501	0.0023
643.769	0.0017
644.037	0.0025
644.305	0.0009
644.572	0.0003
644.84	0.0015
645.108	0.0016
645.375	0.001
645.643	0.001
645.91	0.0008
646.177	0.0024
646.445	0.0045
646.712	0.0041
646.979	0.0036
647.246	0.0038
647.513	0.0039
647.78	0.0031
648.047	0.0044
648.314	0.0028
648.58	0.003
648.847	0.0024
649.114	0.0012
649.38	0.0011
649.647	0.0008
649.913	0.0011
650.18	0.0013
650.446	0.0018
650.712	0.0022
650.978	0.0024
651.245	0.0025
651.511	0.0027
651.777	0.002
652.043	0.0027
652.309	0.0019
652.574	0.0035
652.84	0.0025
653.106	0.0016
653.371	-0.0002
653.637	0.0022
653.903	0.0025
654.168	0.0027
654.433	0.0027
654.699	0.0025
654.964	0.0034
655.229	0.0038
655.494	0.0033
655.759	0.0026
656.024	0.0006
656.289	-0
656.554	0.0012
656.819	0.0008
657.084	0.0029
657.349	0.0029
657.613	0.0028
657.878	0.0032
658.142	0.0034
658.407	0.0029
658.671	0.0028
658.936	0.0017
659.2	0.0005
659.464	0.0016
659.728	0.002
659.992	0.0022
660.256	0.0021
660.52	0.0009
660.784	0.0001
661.048	0.0009
661.312	0.0001
661.575	0.0006
661.839	-0.0004
662.103	-0.0008
662.366	-0.0011
662.63	0.0005
662.893	-0.0004
663.156	0.0011
663.42	0.0002
663.683	0.0004
663.946	0.0013
664.209	0.0022
664.472	0.0032
664.735	0.0032
664.998	0.0027
665.261	0.0011
665.524	0.001
665.786	0.0012
666.049	0.0011
666.312	0.0014
666.574	0.0011
666.837	0.0008
667.099	-0.0006
667.361	0.0001
667.624	-0.0011
667.886	-0.0008
668.148	0
668.41	0.002
668.672	0.0008
668.934	0.0007
669.196	0.0012
669.458	0.0014
669.72	0.0017
669.982	0.0019
670.243	0.0022
670.505	0.0021
670.766	0.0022
671.028	0.0021
671.289	0.0025
671.551	0.0023
671.812	0.0007
672.073	0.0021
672.334	0.0001
672.596	0.0013
672.857	0.0001
673.118	0
673.379	-0.0003
673.639	-0.0012
673.9	-0.0004
674.161	-0.002
674.422	-0.0028
674.682	-0.0017
674.943	-0.0021
675.203	-0.0005
675.464	0.0002
675.724	0.0009
675.985	0.0012
676.245	0.0022
676.505	0.003
676.765	0.0028
677.025	0.0019
677.285	0.0023
677.545	0.0028
677.805	0.0033
678.065	0.0029
678.325	0.0034
678.585	0.0031
678.844	0.0025
679.104	0.0023
679.363	0.0022
679.623	0.0031
679.882	0.004
680.142	0.0048
680.401	0.004
680.66	0.0054
680.919	0.0044
681.178	0.0049
681.437	0.0058
681.696	0.0042
681.955	0.004
682.214	0.0053
682.473	0.0047
682.732	0.0041
682.99	0.0026
683.249	0.0031
683.508	0.0029
683.766	0.0029
684.024	0.0024
684.283	0.0036
684.541	0.0035
684.799	0.0038
685.058	0.0037
685.316	0.0029
685.574	0.0035
685.832	0.0039
686.09	0.0037
686.348	0.0045
686.606	0.0042
686.863	0.0042
687.121	0.0038
687.379	0.0038
687.636	0.0046
687.894	0.0043
688.151	0.0044
688.409	0.0046
688.666	0.0037
688.923	0.0054
689.181	0.0042
689.438	0.0034
689.695	0.0036
689.952	0.0019
690.209	0.0024
690.466	0.0013
690.723	0.0033
690.979	0.0022
691.236	0.0022
691.493	0.0024
691.75	0.0031
692.006	0.0037
692.263	0.004
692.519	0.0035
692.775	0.0021
693.032	0.0018
693.288	0.0027
693.544	0.0033
693.8	0.0027
694.056	0.0035
694.313	0.0025
694.568	0.0027
694.824	0.0029
695.08	0.003
695.336	0.0038
695.592	0.0029
695.847	0.0031
696.103	0.0032
696.359	0.003
696.614	0.0018
696.869	0.0013
697.125	0.0015
697.38	0.0003
697.635	-0.0003
697.891	0.0007
698.146	0.0005
698.401	0.0019
698.656	0.0008
698.911	0.0024
699.166	0.0015
699.42	0.0013
699.675	0.0017
699.93	0.0006
700.185	0.0013
700.439	0.0026
700.694	0.0022
700.948	0.0026
701.203	0.0026
701.457	0.0016
701.711	0.0016
701.965	0.0005
702.22	-0
702.474	0.0005
702.728	0.0001
702.982	0.0003
703.236	0.0011
703.49	0.001
703.743	0.0003
703.997	0.0013
704.251	0.0014
704.504	0.0021
704.758	0.0012
705.012	0.0006
705.265	0.0014
705.518	0.0006
705.772	0.0013
706.025	0.0005
706.278	0.0003
706.531	0.0001
706.785	-0.0009
707.038	0.0003
707.291	0.0009
707.543	0.0005
707.796	0.0005
708.049	0.0006
708.302	-0.0009
708.555	0.0001
708.807	0.0003
709.06	-0.0003
709.312	-0.0016
709.565	-0.0013
709.817	-0.0022
710.069	-0.0015
710.322	-0.0003
710.574	-0.0008
710.826	-0.0001
711.078	-0.0002
711.33	-0.0001
711.582	-0.0004
711.834	0.0008
712.086	0.0012
712.338	0.0022
712.59	0.0019
712.841	0.0015
713.093	0.0014
713.344	0.0014
713.596	0.0023
713.847	0.002
714.099	0.0023
714.35	0.0024
714.601	0.0029
714.853	0.0035
715.104	0.0034
715.355	0.0025
715.606	0.0018
715.857	0.0019
716.108	0.0028
716.359	0.0027
716.609	0.0026
716.86	0.0016
717.111	0.0003
717.361	0.0001
717.612	-0
717.863	0.0004
718.113	-0.0003
718.363	0.0003
718.614	0.0008
718.864	0.0009
719.114	0.0003
719.364	0.0004
719.614	-0.0002
719.865	-0.0006
720.114	-0
720.364	0.0004
720.614	0.0017
720.864	0.0019
721.114	0.0024
721.364	0.0026
721.613	0.003
721.863	0.0032
722.112	0.0026
722.362	0.0035
722.611	0.0029
722.86	0.0016
723.11	0.0008
723.359	0.0019
723.608	0.0023
723.857	0.0037
724.106	0.0054
724.355	0.0054
724.604	0.0058
724.853	0.0047
725.102	0.0038
725.351	0.0029
725.599	0.0027
725.848	0.0029
726.097	0.0016
726.345	0.0022
726.594	0.0018
726.842	0.0015
727.09	0.0012
727.339	0.0014
727.587	0.0014
727.835	0.0003
728.083	-0.0004
728.331	-0.0004
728.579	-0.0011
728.827	-0.0005
729.075	-0.0001
729.323	0.0007
729.571	0.0018
729.818	0.0016
730.066	0.0018
730.314	0.002
730.561	0.0007
730.809	-0.0004
731.056	0.0003
731.303	-0.0003
731.551	0.0004
731.798	0.0005
732.045	0.0002
732.292	-0.0001
732.539	0.0008
732.786	0.0006
733.033	0.0021
733.28	0.0021
733.527	0.004
733.774	0.0026
734.021	0.0038
734.267	0.0046
734.514	0.0043
734.76	0.0038
735.007	0.0056
735.253	0.0063
735.5	0.0059
735.746	0.0056
735.992	0.0049
736.238	0.0045
736.485	0.0056
736.731	0.0052
736.977	0.0049
737.223	0.0043
737.469	0.0051
737.715	0.0051
737.96	0.0069
738.206	0.0064
738.452	0.0074
738.697	0.008
738.943	0.0067
739.189	0.0047
739.434	0.0032
739.679	0.0025
739.925	0.0022
740.17	0.0013
740.415	0.0013
740.66	0.0026
740.906	0.0026
741.151	0.0033
741.396	0.0033
741.641	0.0047
741.886	0.0055
742.13	0.0058
742.375	0.0058
742.62	0.0075
742.865	0.0056
743.109	0.0056
743.354	0.0048
743.598	0.0046
743.843	0.0045
744.087	0.0045
744.331	0.0039
744.576	0.0042
744.82	0.0044
745.064	0.0033
745.308	0.003
745.552	0.0029
745.796	0.0039
746.04	0.0031
746.284	0.002
746.528	-0
746.771	0.0012
747.015	0.0009
747.259	0.0011
747.502	0.0006
747.746	0.0021
747.989	0.0021
748.233	0.0022
748.476	0.0032
748.719	0.004
748.963	0.0045
749.206	0.0035
749.449	0.0048
749.692	0.0038
749.935	0.005
750.178	0.0037
750.421	0.0042
750.664	0.0045
750.906	0.0047
751.149	0.0038
751.392	0.0031
751.635	0.0014
751.877	0.0001
752.12	0
752.362	0.0012
752.604	0
752.847	0.0013
753.089	0.0019
753.331	0.0017
753.573	0.0015
753.816	0.0025
754.058	0.0031
754.3	0.0029
754.542	0.0039
754.783	0.0031
755.025	0.0027
755.267	0.0008
755.509	0.0009
755.75	0.0006
755.992	0.0024
756.234	0.0011
756.475	0.0001
756.716	0.0007
756.958	0.0003
757.199	0.0001
757.44	0.0013
757.682	0.0019
757.923	0.001
758.164	0.0003
758.405	-0.0001
758.646	0.001
758.887	0.0008
759.128	0.0001
759.369	-0.0004
759.609	-0.0004
759.85	-0.0002
760.091	0.0008
760.331	-0
760.572	-0
760.812	0.0003
761.053	-0.0009
761.293	-0.0004
761.533	0.0006
761.774	0.0001
762.014	0.0005
762.254	0.0006
762.494	0.0002
762.734	-0.0003
762.974	0.0005
763.214	-0.0004
763.454	-0.0011
763.694	-0.0003
763.933	-0.001
764.173	0.0005
764.413	0.0006
764.652	0.0017
764.892	0.0015
765.131	0.0016
765.371	0.0012
765.61	0.0027
765.849	0.0016
766.089	0.0021
766.328	0.0034
766.567	0.0025
766.806	0.004
767.045	0.0036
767.284	0.0031
767.523	0.0039
767.762	0.004
768.001	0.0034
768.239	0.0031
768.478	0.0025
768.717	0.0027
768.955	0.0026
769.194	0.0018
769.432	0.002
769.671	0.0027
769.909	0.0028
770.148	0.0027
770.386	0.0029
770.624	0.0022
770.862	0.0031
771.1	0.0025
771.338	0.0021
771.576	0.0018
771.814	0.0018
772.052	0.0023
772.29	0.0023
772.528	0.0029
772.765	0.0031
773.003	0.0037
773.24	0.0033
773.478	0.0026
773.716	0.0039
773.953	0.0041
774.19	0.0045
774.428	0.0038
774.665	0.0039
774.902	0.0039
775.139	0.0025
775.376	0.0031
775.613	0.0026
775.85	0.0025
776.087	0.002
776.324	0.0027
776.561	0.0026
776.798	0.0038
777.034	0.0049
777.271	0.0058
777.508	0.0066
777.744	0.006
777.981	0.0051
778.217	0.0056
778.454	0.0046
778.69	0.004
778.926	0.0048
779.162	0.0039
779.399	0.0036
779.635	0.0039
779.871	0.0026
780.107	0.0045
780.343	0.0035
780.579	0.0048
780.814	0.0039
781.05	0.0042
781.286	0.0044
781.522	0.0035
781.757	0.0055
781.993	0.0054
782.228	0.0052
782.464	0.0052
782.699	0.0044
782.934	0.0037
783.17	0.0033
783.405	0.0036
783.64	0.0027
783.875	0.0028
784.11	0.003
784.345	0.0037
784.58	0.0028
784.815	0.0032
785.05	0.0041
785.285	0.0023
785.52	0.0012
785.754	0.0021
785.989	0.0012
786.223	0.001
786.458	0.0015
786.692	0.0013
786.927	-0.0004
787.161	0.0004
787.396	0.0004
787.63	-0
787.864	-0.0008
788.098	0.0002
788.332	0.0006
788.566	0.0002
788.8	0.0003
789.034	0.0011
789.268	0.0007
789.502	0.0014
789.736	0.0017
789.969	0.0024
790.203	0.0029
790.437	0.0026
790.67	0.0017
790.904	0.0019
791.137	0.0011
791.37	0.0011
791.604	-0.0004
791.837	0.0001
792.07	-0.0003
792.303	0.0009
792.537	0.0001
792.77	-0.0001
793.003	-0.0001
793.236	-0.001
793.469	-0.0011
793.701	-0.0004
793.934	-0
794.167	-0.0002
794.4	0.0001
794.632	0.0001
794.865	-0.0008
795.097	-0.0002
795.33	0.0018
795.562	0.0001
795.795	0.0012
796.027	0.0008
796.259	0.0004
796.491	0.0005
796.724	-0.0001
796.956	0.0008
797.188	0.001
797.42	0.0007
797.652	0.0008
797.883	0.0001
798.115	-0.0002
798.347	-0.0004
798.579	-0.001
798.81	-0.0021
799.042	-0.0019
799.274	-0.0026
799.505	-0.0017
799.737	-0.0025
799.968	-0.002
800.199	-0.0014
800.431	-0.002
800.662	-0.0011
800.893	-0.0006
801.124	-0.0002
801.355	0.0002
801.586	0.0012
801.817	0.0006
802.048	0.0008
802.279	0.001
802.51	0.0011
802.741	0.0001
802.971	0.0003
803.202	-0.0006
803.433	-0.0001
803.663	-0.0009
803.894	-0.0002
804.124	0.0002
804.354	-0.0001
804.585	-0.0005
804.815	0.0002
805.045	-0.0006
805.275	-0.0008
805.506	-0.0157
805.736	0.0644
805.966	-0.0853
806.196	-0.001
