Data from 03 0.2 mM BQDS 0.4 mM K2Cr2O7 1 M H2SO4 5 min_Absorbance_20-22-44-289.txt Node
Date: Tue Dec 07 20:22:44 EST 2021
User: kwabilab-user
Spectrometer: HDX00518
Trigger mode: 0
Integration Time (sec): 5.000000E-2
Scans to average: 50
Nonlinearity correction enabled: false
Boxcar width: 0
Storing dark spectrum: false
XAxis mode: Wavelengths
Number of Pixels in Spectrum: 2068
>>>>>Begin Spectral Data<<<<<
195.27	0.0629
195.642	0.03
196.014	0.0535
196.386	0.0451
196.758	0.0168
197.129	0.0082
197.501	0.0685
197.872	0.1054
198.244	0.1353
198.615	0.1251
198.986	0.1258
199.357	0.1315
199.728	0.127
200.099	0.1225
200.47	0.1316
200.841	0.1193
201.212	0.1288
201.582	0.1185
201.953	0.1266
202.323	0.1257
202.694	0.1233
203.064	0.1277
203.434	0.1268
203.804	0.143
204.174	0.123
204.544	0.1269
204.914	0.1288
205.284	0.1244
205.653	0.1298
206.023	0.1323
206.393	0.1266
206.762	0.152
207.131	0.1295
207.501	0.1439
207.87	0.1612
208.239	0.1499
208.608	0.1282
208.977	0.1398
209.346	0.164
209.715	0.1545
210.083	0.1572
210.452	0.1627
210.82	0.1548
211.189	0.1625
211.557	0.1488
211.925	0.1776
212.294	0.1928
212.662	0.1706
213.03	0.1944
213.398	0.1679
213.766	0.1859
214.133	0.2173
214.501	0.2157
214.869	0.2142
215.236	0.2647
215.604	0.2469
215.971	0.2587
216.338	0.2835
216.705	0.3133
217.072	0.3379
217.439	0.3387
217.806	0.3767
218.173	0.3835
218.54	0.446
218.907	0.4666
219.273	0.5028
219.64	0.5466
220.006	0.5933
220.373	0.6042
220.739	0.6611
221.105	0.6966
221.471	0.7133
221.837	0.7842
222.203	0.8074
222.569	0.8374
222.935	0.8775
223.3	0.8918
223.666	0.9303
224.031	0.9669
224.397	0.9779
224.762	1.0077
225.127	1.0387
225.493	1.0523
225.858	1.0607
226.223	1.0695
226.588	1.0776
226.952	1.0849
227.317	1.0996
227.682	1.0887
228.046	1.0847
228.411	1.0918
228.775	1.0881
229.14	1.0918
229.504	1.0881
229.868	1.0819
230.232	1.0758
230.596	1.0712
230.96	1.0642
231.324	1.0583
231.688	1.0479
232.052	1.0403
232.415	1.0275
232.779	1.027
233.142	1.0137
233.505	1.0064
233.869	1.0006
234.232	0.9897
234.595	0.9758
234.958	0.9694
235.321	0.9599
235.684	0.9477
236.047	0.939
236.409	0.9245
236.772	0.919
237.134	0.9069
237.497	0.9005
237.859	0.8917
238.222	0.8848
238.584	0.8759
238.946	0.8657
239.308	0.8599
239.67	0.8533
240.032	0.8476
240.393	0.8361
240.755	0.8349
241.117	0.8249
241.478	0.8167
241.84	0.8116
242.201	0.8017
242.562	0.7962
242.924	0.7921
243.285	0.7848
243.646	0.7782
244.007	0.7771
244.368	0.7712
244.728	0.7656
245.089	0.7625
245.45	0.7571
245.81	0.7552
246.171	0.7499
246.531	0.7448
246.891	0.7408
247.252	0.7382
247.612	0.7368
247.972	0.7308
248.332	0.7311
248.692	0.7276
249.051	0.7233
249.411	0.7202
249.771	0.7174
250.13	0.7155
250.49	0.7153
250.849	0.7124
251.208	0.7106
251.568	0.7089
251.927	0.7073
252.286	0.7066
252.645	0.7054
253.004	0.7017
253.363	0.699
253.721	0.7002
254.08	0.6972
254.439	0.6979
254.797	0.6954
255.155	0.6923
255.514	0.6926
255.872	0.692
256.23	0.688
256.588	0.6873
256.946	0.6877
257.304	0.6869
257.662	0.6856
258.02	0.6857
258.377	0.6848
258.735	0.6809
259.093	0.6805
259.45	0.6801
259.807	0.6778
260.165	0.6783
260.522	0.6764
260.879	0.6757
261.236	0.6741
261.593	0.674
261.95	0.6703
262.306	0.6709
262.663	0.6672
263.02	0.6652
263.376	0.665
263.733	0.6635
264.089	0.6636
264.445	0.6604
264.802	0.6601
265.158	0.6588
265.514	0.6577
265.87	0.6551
266.226	0.6548
266.581	0.6537
266.937	0.6485
267.293	0.6503
267.648	0.6482
268.004	0.644
268.359	0.6434
268.714	0.6385
269.07	0.6383
269.425	0.6359
269.78	0.6352
270.135	0.632
270.49	0.6317
270.844	0.6285
271.199	0.6266
271.554	0.6241
271.908	0.6217
272.263	0.6205
272.617	0.6174
272.972	0.6157
273.326	0.6116
273.68	0.6095
274.034	0.6048
274.388	0.6038
274.742	0.6013
275.096	0.598
275.45	0.5961
275.803	0.5931
276.157	0.5889
276.51	0.5853
276.864	0.5828
277.217	0.5807
277.571	0.5768
277.924	0.5714
278.277	0.5695
278.63	0.5655
278.983	0.562
279.336	0.5582
279.688	0.5561
280.041	0.5528
280.394	0.5476
280.746	0.5446
281.099	0.5407
281.451	0.5361
281.803	0.5322
282.156	0.5275
282.508	0.5246
282.86	0.5198
283.212	0.5169
283.564	0.5104
283.916	0.5059
284.267	0.5024
284.619	0.4992
284.971	0.4941
285.322	0.4892
285.673	0.486
286.025	0.4819
286.376	0.4773
286.727	0.4718
287.078	0.4668
287.429	0.4641
287.78	0.4584
288.131	0.4529
288.482	0.4495
288.833	0.4443
289.183	0.4389
289.534	0.4361
289.884	0.4308
290.235	0.426
290.585	0.4198
290.935	0.4158
291.285	0.4107
291.635	0.4072
291.985	0.4024
292.335	0.3977
292.685	0.3931
293.035	0.3886
293.384	0.384
293.734	0.3789
294.083	0.3737
294.433	0.369
294.782	0.3658
295.131	0.3612
295.48	0.3572
295.829	0.3532
296.179	0.3471
296.527	0.3436
296.876	0.3397
297.225	0.3361
297.574	0.3311
297.922	0.3276
298.271	0.324
298.619	0.3191
298.968	0.3164
299.316	0.3119
299.664	0.3084
300.012	0.3047
300.36	0.301
300.708	0.2973
301.056	0.2938
301.404	0.2907
301.752	0.2876
302.099	0.2843
302.447	0.282
302.794	0.278
303.142	0.2758
303.489	0.2728
303.836	0.2699
304.183	0.2674
304.531	0.2651
304.878	0.2632
305.224	0.2601
305.571	0.2578
305.918	0.2559
306.265	0.2541
306.611	0.2525
306.958	0.2505
307.304	0.2481
307.651	0.2461
307.997	0.2451
308.343	0.2431
308.689	0.2424
309.035	0.2403
309.381	0.2397
309.727	0.2384
310.073	0.2372
310.419	0.2359
310.764	0.2353
311.11	0.2347
311.455	0.2334
311.801	0.2329
312.146	0.233
312.491	0.2319
312.837	0.2318
313.182	0.2316
313.527	0.2305
313.872	0.23
314.216	0.2304
314.561	0.2294
314.906	0.23
315.251	0.2295
315.595	0.2293
315.94	0.2296
316.284	0.2295
316.628	0.2301
316.972	0.2299
317.317	0.2307
317.661	0.2316
318.005	0.2317
318.348	0.2319
318.692	0.2323
319.036	0.2324
319.38	0.2332
319.723	0.2345
320.067	0.2347
320.41	0.2358
320.754	0.2365
321.097	0.2371
321.44	0.2382
321.783	0.2394
322.126	0.2406
322.469	0.2414
322.812	0.2431
323.155	0.244
323.498	0.2455
323.84	0.2466
324.183	0.248
324.525	0.2488
324.868	0.2498
325.21	0.2522
325.552	0.2535
325.894	0.2541
326.236	0.2559
326.578	0.257
326.92	0.2588
327.262	0.2597
327.604	0.2616
327.946	0.263
328.287	0.2645
328.629	0.2651
328.97	0.2672
329.312	0.2686
329.653	0.2699
329.994	0.2717
330.335	0.2737
330.676	0.2752
331.017	0.2763
331.358	0.2785
331.699	0.2798
332.04	0.2821
332.38	0.283
332.721	0.2856
333.061	0.2863
333.402	0.2884
333.742	0.2898
334.083	0.2913
334.423	0.2921
334.763	0.2942
335.103	0.2966
335.443	0.2962
335.783	0.2977
336.123	0.2988
336.462	0.3004
336.802	0.302
337.141	0.3033
337.481	0.3049
337.82	0.3059
338.16	0.3072
338.499	0.3081
338.838	0.3098
339.177	0.3113
339.516	0.3125
339.855	0.3145
340.194	0.3155
340.533	0.3162
340.872	0.3176
341.21	0.3188
341.549	0.3192
341.887	0.3209
342.226	0.3215
342.564	0.3213
342.902	0.3225
343.24	0.3229
343.578	0.3227
343.916	0.3241
344.254	0.3243
344.592	0.3246
344.93	0.3248
345.268	0.3257
345.605	0.3257
345.943	0.3261
346.28	0.3267
346.618	0.3264
346.955	0.3271
347.292	0.3271
347.629	0.3277
347.966	0.3277
348.303	0.3276
348.64	0.3281
348.977	0.3277
349.314	0.3283
349.65	0.328
349.987	0.3284
350.324	0.3274
350.66	0.3276
350.996	0.3275
351.333	0.3259
351.669	0.3251
352.005	0.3252
352.341	0.3241
352.677	0.3229
353.013	0.3214
353.349	0.3213
353.685	0.3197
354.02	0.319
354.356	0.3183
354.691	0.316
355.027	0.3163
355.362	0.3138
355.697	0.3126
356.033	0.3115
356.368	0.3111
356.703	0.3097
357.038	0.3088
357.373	0.3077
357.707	0.3065
358.042	0.3057
358.377	0.3042
358.711	0.3036
359.046	0.3023
359.38	0.3007
359.715	0.2995
360.049	0.2978
360.383	0.2969
360.717	0.2953
361.051	0.2931
361.385	0.2917
361.719	0.289
362.053	0.2884
362.387	0.2848
362.72	0.2828
363.054	0.2811
363.387	0.2786
363.721	0.277
364.054	0.2737
364.387	0.2715
364.721	0.2703
365.054	0.2684
365.387	0.2661
365.72	0.2632
366.053	0.2623
366.385	0.2596
366.718	0.2583
367.051	0.256
367.383	0.2545
367.716	0.2527
368.048	0.2516
368.381	0.2494
368.713	0.2485
369.045	0.2457
369.377	0.2445
369.709	0.2427
370.041	0.2412
370.373	0.2391
370.705	0.2374
371.037	0.2351
371.368	0.2328
371.7	0.2312
372.031	0.2291
372.363	0.2271
372.694	0.2248
373.025	0.2216
373.356	0.2198
373.688	0.2172
374.019	0.2138
374.35	0.2117
374.68	0.2092
375.011	0.2062
375.342	0.2042
375.673	0.202
376.003	0.1997
376.334	0.1967
376.664	0.1952
376.995	0.1932
377.325	0.1915
377.655	0.1893
377.985	0.1877
378.315	0.1856
378.645	0.1839
378.975	0.1814
379.305	0.1807
379.635	0.1787
379.964	0.1767
380.294	0.1753
380.623	0.1734
380.953	0.1726
381.282	0.1706
381.611	0.168
381.941	0.1665
382.27	0.164
382.599	0.1626
382.928	0.1603
383.257	0.1585
383.585	0.1575
383.914	0.1552
384.243	0.1531
384.571	0.1507
384.9	0.1483
385.228	0.1466
385.557	0.1445
385.885	0.1425
386.213	0.1395
386.541	0.1381
386.869	0.1359
387.197	0.1332
387.525	0.1319
387.853	0.13
388.181	0.1283
388.508	0.1266
388.836	0.1252
389.164	0.1231
389.491	0.1214
389.818	0.1197
390.146	0.1179
390.473	0.1162
390.8	0.1151
391.127	0.113
391.454	0.1124
391.781	0.111
392.108	0.1091
392.435	0.1077
392.761	0.1061
393.088	0.1053
393.415	0.1044
393.741	0.1029
394.067	0.1023
394.394	0.1008
394.72	0.0992
395.046	0.0984
395.372	0.0965
395.698	0.0956
396.024	0.0945
396.35	0.0932
396.676	0.0923
397.001	0.0912
397.327	0.089
397.653	0.0883
397.978	0.0869
398.303	0.0856
398.629	0.0845
398.954	0.0843
399.279	0.0824
399.604	0.0817
399.929	0.0804
400.254	0.0798
400.579	0.079
400.904	0.0775
401.229	0.0773
401.553	0.0748
401.878	0.0743
402.202	0.0743
402.527	0.0735
402.851	0.073
403.175	0.0716
403.5	0.0712
403.824	0.0709
404.148	0.0701
404.472	0.0699
404.796	0.0685
405.119	0.0681
405.443	0.0672
405.767	0.0669
406.09	0.0667
406.414	0.0662
406.737	0.0659
407.061	0.065
407.384	0.0644
407.707	0.0643
408.03	0.0646
408.353	0.064
408.676	0.0635
408.999	0.0632
409.322	0.0635
409.645	0.0631
409.968	0.0618
410.29	0.0623
410.613	0.0611
410.935	0.0611
411.258	0.0615
411.58	0.0608
411.902	0.0608
412.224	0.0607
412.546	0.0602
412.868	0.0596
413.19	0.0602
413.512	0.0595
413.834	0.0599
414.156	0.0602
414.477	0.0594
414.799	0.0592
415.121	0.0591
415.442	0.0587
415.763	0.0591
416.085	0.0591
416.406	0.0585
416.727	0.0582
417.048	0.0582
417.369	0.0578
417.69	0.0574
418.011	0.0575
418.331	0.0575
418.652	0.0576
418.973	0.0577
419.293	0.0572
419.614	0.058
419.934	0.0571
420.254	0.057
420.574	0.0564
420.895	0.0567
421.215	0.0561
421.535	0.0562
421.855	0.0561
422.174	0.0561
422.494	0.0567
422.814	0.0573
423.134	0.0565
423.453	0.0564
423.773	0.0567
424.092	0.0558
424.411	0.056
424.731	0.0571
425.05	0.0561
425.369	0.0565
425.688	0.0562
426.007	0.0563
426.326	0.0563
426.644	0.0569
426.963	0.0569
427.282	0.0568
427.6	0.0561
427.919	0.0563
428.237	0.0564
428.556	0.0567
428.874	0.0559
429.192	0.0554
429.51	0.0564
429.828	0.0564
430.146	0.0568
430.464	0.0563
430.782	0.0562
431.1	0.0561
431.418	0.0557
431.735	0.0562
432.053	0.0566
432.37	0.0563
432.688	0.0554
433.005	0.0556
433.322	0.056
433.639	0.0556
433.957	0.0559
434.274	0.0554
434.591	0.0555
434.907	0.0566
435.224	0.0557
435.541	0.0557
435.858	0.0567
436.174	0.0559
436.491	0.0552
436.807	0.0558
437.124	0.0551
437.44	0.055
437.756	0.0548
438.072	0.0548
438.388	0.056
438.704	0.0553
439.02	0.0555
439.336	0.0549
439.652	0.0553
439.968	0.0549
440.283	0.0545
440.599	0.0545
440.914	0.0549
441.23	0.0543
441.545	0.0547
441.86	0.0545
442.175	0.0552
442.491	0.054
442.806	0.0537
443.121	0.0545
443.435	0.0537
443.75	0.0542
444.065	0.0536
444.38	0.0542
444.694	0.0539
445.009	0.0542
445.323	0.054
445.638	0.0537
445.952	0.0537
446.266	0.053
446.58	0.0533
446.894	0.053
447.208	0.0542
447.522	0.054
447.836	0.052
448.15	0.0527
448.464	0.052
448.777	0.052
449.091	0.0523
449.404	0.0531
449.718	0.0527
450.031	0.0522
450.345	0.0524
450.658	0.0519
450.971	0.0517
451.284	0.0511
451.597	0.0517
451.91	0.0519
452.223	0.0508
452.535	0.0514
452.848	0.051
453.161	0.0511
453.473	0.0514
453.786	0.0512
454.098	0.0507
454.411	0.0501
454.723	0.0495
455.035	0.0503
455.347	0.0507
455.659	0.0502
455.971	0.0501
456.283	0.0504
456.595	0.0494
456.907	0.0495
457.218	0.0498
457.53	0.0488
457.841	0.049
458.153	0.0481
458.464	0.0481
458.776	0.0471
459.087	0.0481
459.398	0.0481
459.709	0.0477
460.02	0.0469
460.331	0.0471
460.642	0.0469
460.953	0.0465
461.263	0.0468
461.574	0.0466
461.885	0.0468
462.195	0.0464
462.506	0.046
462.816	0.0454
463.126	0.045
463.437	0.0449
463.747	0.0443
464.057	0.0453
464.367	0.0442
464.677	0.044
464.987	0.0443
465.296	0.0434
465.606	0.0431
465.916	0.0436
466.225	0.043
466.535	0.0431
466.844	0.0422
467.154	0.0421
467.463	0.0415
467.772	0.0424
468.081	0.0414
468.39	0.0417
468.699	0.0408
469.008	0.0416
469.317	0.0412
469.626	0.0404
469.935	0.0402
470.243	0.0408
470.552	0.0406
470.86	0.0406
471.169	0.0394
471.477	0.039
471.785	0.0401
472.093	0.0395
472.402	0.0389
472.71	0.0393
473.018	0.0387
473.326	0.0378
473.633	0.0378
473.941	0.0377
474.249	0.0371
474.556	0.0372
474.864	0.0368
475.171	0.0358
475.479	0.0368
475.786	0.0366
476.094	0.0365
476.401	0.0355
476.708	0.0359
477.015	0.0358
477.322	0.0351
477.629	0.0354
477.936	0.0345
478.242	0.0341
478.549	0.0337
478.856	0.0338
479.162	0.0335
479.469	0.0343
479.775	0.0341
480.081	0.0323
480.388	0.0334
480.694	0.0322
481	0.0319
481.306	0.0326
481.612	0.0317
481.918	0.0312
482.224	0.0318
482.53	0.0313
482.835	0.0305
483.141	0.0293
483.446	0.0294
483.752	0.03
484.057	0.0293
484.363	0.0288
484.668	0.0288
484.973	0.0284
485.278	0.0285
485.583	0.0277
485.888	0.0272
486.193	0.0273
486.498	0.0276
486.803	0.0279
487.107	0.0271
487.412	0.0261
487.717	0.0265
488.021	0.0266
488.325	0.0255
488.63	0.0246
488.934	0.0255
489.238	0.0255
489.542	0.0262
489.846	0.0239
490.15	0.0255
490.454	0.0244
490.758	0.0244
491.062	0.024
491.366	0.0237
491.669	0.0237
491.973	0.024
492.276	0.0232
492.58	0.0222
492.883	0.0232
493.186	0.0231
493.489	0.0222
493.792	0.0222
494.096	0.0226
494.399	0.0224
494.701	0.0223
495.004	0.0213
495.307	0.0204
495.61	0.0213
495.912	0.0205
496.215	0.02
496.517	0.0202
496.82	0.0204
497.122	0.0199
497.424	0.019
497.727	0.0191
498.029	0.0192
498.331	0.0194
498.633	0.0191
498.935	0.0187
499.237	0.019
499.538	0.018
499.84	0.0182
500.142	0.0189
500.443	0.0182
500.745	0.0176
501.046	0.0182
501.348	0.0164
501.649	0.0177
501.95	0.0171
502.251	0.0171
502.552	0.0159
502.853	0.0158
503.154	0.0171
503.455	0.0156
503.756	0.0161
504.057	0.0163
504.357	0.0157
504.658	0.0149
504.958	0.015
505.259	0.015
505.559	0.015
505.859	0.0149
506.16	0.0147
506.46	0.0146
506.76	0.0156
507.06	0.014
507.36	0.015
507.66	0.0145
507.96	0.0139
508.259	0.0133
508.559	0.0122
508.859	0.0138
509.158	0.0132
509.457	0.0125
509.757	0.0136
510.056	0.0127
510.355	0.0123
510.655	0.0111
510.954	0.0121
511.253	0.0123
511.552	0.012
511.851	0.0112
512.149	0.0114
512.448	0.011
512.747	0.0113
513.045	0.0106
513.344	0.0123
513.642	0.0117
513.941	0.0112
514.239	0.0112
514.537	0.0112
514.836	0.0107
515.134	0.0102
515.432	0.0106
515.73	0.0106
516.028	0.0094
516.326	0.0106
516.623	0.0094
516.921	0.0102
517.219	0.0104
517.516	0.0109
517.814	0.0093
518.111	0.0105
518.409	0.0116
518.706	0.0098
519.003	0.01
519.3	0.0085
519.597	0.009
519.894	0.0101
520.191	0.0096
520.488	0.009
520.785	0.0078
521.082	0.0082
521.378	0.0092
521.675	0.0078
521.971	0.0081
522.268	0.0083
522.564	0.008
522.861	0.0086
523.157	0.0076
523.453	0.0083
523.749	0.0089
524.045	0.008
524.341	0.0074
524.637	0.0077
524.933	0.0066
525.229	0.0076
525.524	0.0075
525.82	0.0077
526.115	0.0064
526.411	0.007
526.706	0.007
527.002	0.0071
527.297	0.0057
527.592	0.008
527.887	0.0082
528.182	0.0072
528.477	0.0085
528.772	0.007
529.067	0.0065
529.362	0.0074
529.657	0.006
529.951	0.0056
530.246	0.0066
530.54	0.0047
530.835	0.0053
531.129	0.0052
531.423	0.0061
531.718	0.0051
532.012	0.0061
532.306	0.0057
532.6	0.0058
532.894	0.0057
533.188	0.0063
533.482	0.0054
533.775	0.0063
534.069	0.005
534.363	0.0044
534.656	0.0045
534.95	0.0046
535.243	0.0049
535.536	0.005
535.83	0.0057
536.123	0.0046
536.416	0.0052
536.709	0.0056
537.002	0.0054
537.295	0.0046
537.588	0.0052
537.881	0.005
538.173	0.0039
538.466	0.005
538.759	0.0031
539.051	0.004
539.344	0.0033
539.636	0.0041
539.928	0.0046
540.22	0.0047
540.513	0.0046
540.805	0.005
541.097	0.0046
541.389	0.0039
541.681	0.0034
541.972	0.0045
542.264	0.0035
542.556	0.004
542.847	0.0047
543.139	0.0045
543.431	0.0053
543.722	0.0047
544.013	0.0054
544.305	0.0055
544.596	0.0054
544.887	0.0053
545.178	0.0038
545.469	0.004
545.76	0.004
546.051	0.0045
546.342	0.0045
546.632	0.003
546.923	0.0048
547.214	0.004
547.504	0.0032
547.795	0.0052
548.085	0.0042
548.375	0.0043
548.666	0.0041
548.956	0.0034
549.246	0.0044
549.536	0.0029
549.826	0.0048
550.116	0.0042
550.406	0.0032
550.695	0.0049
550.985	0.0044
551.275	0.0044
551.564	0.0035
551.854	0.0044
552.143	0.0051
552.433	0.0041
552.722	0.0045
553.011	0.0038
553.3	0.0045
553.589	0.0043
553.879	0.0035
554.167	0.0042
554.456	0.0036
554.745	0.0032
555.034	0.0035
555.323	0.002
555.611	0.0031
555.9	0.004
556.188	0.0033
556.477	0.004
556.765	0.0037
557.053	0.0033
557.342	0.0032
557.63	0.0037
557.918	0.003
558.206	0.0027
558.494	0.0043
558.782	0.0031
559.069	0.0031
559.357	0.0031
559.645	0.0018
559.932	0.0031
560.22	0.0039
560.507	0.0042
560.795	0.0035
561.082	0.003
561.37	0.0039
561.657	0.0039
561.944	0.004
562.231	0.0031
562.518	0.0023
562.805	0.0039
563.092	0.0039
563.379	0.004
563.665	0.0034
563.952	0.0038
564.239	0.0044
564.525	0.0046
564.811	0.0043
565.098	0.0046
565.384	0.0043
565.67	0.0034
565.957	0.0039
566.243	0.003
566.529	0.0041
566.815	0.0046
567.101	0.0029
567.387	0.003
567.672	0.0035
567.958	0.0043
568.244	0.0043
568.529	0.0036
568.815	0.0033
569.1	0.0045
569.386	0.0033
569.671	0.0034
569.956	0.0034
570.242	0.0031
570.527	0.0037
570.812	0.0041
571.097	0.0035
571.382	0.0035
571.666	0.0034
571.951	0.0038
572.236	0.0041
572.521	0.0032
572.805	0.0043
573.09	0.0024
573.374	0.0031
573.659	0.0027
573.943	0.0038
574.227	0.0032
574.511	0.0034
574.795	0.0036
575.079	0.0039
575.363	0.0036
575.647	0.0043
575.931	0.0039
576.215	0.0033
576.499	0.0035
576.782	0.0036
577.066	0.0032
577.349	0.0033
577.633	0.0043
577.916	0.0046
578.2	0.0049
578.483	0.0048
578.766	0.0041
579.049	0.0049
579.332	0.0036
579.615	0.0038
579.898	0.0041
580.181	0.0041
580.464	0.0035
580.746	0.0027
581.029	0.0037
581.312	0.0025
581.594	0.0032
581.877	0.0047
582.159	0.0043
582.441	0.004
582.724	0.003
583.006	0.0031
583.288	0.0021
583.57	0.0029
583.852	0.0017
584.134	0.0019
584.416	0.0028
584.697	0.0032
584.979	0.0039
585.261	0.0031
585.542	0.0033
585.824	0.0036
586.105	0.0035
586.387	0.0031
586.668	0.0023
586.949	0.0035
587.231	0.0024
587.512	0.0032
587.793	0.0033
588.074	0.0044
588.355	0.0035
588.636	0.004
588.916	0.0041
589.197	0.0037
589.478	0.0036
589.758	0.0035
590.039	0.0034
590.319	0.0037
590.6	0.0033
590.88	0.0024
591.16	0.0033
591.441	0.0034
591.721	0.0033
592.001	0.0036
592.281	0.0043
592.561	0.0033
592.841	0.0038
593.12	0.0036
593.4	0.0032
593.68	0.0042
593.959	0.0037
594.239	0.0043
594.518	0.0032
594.798	0.003
595.077	0.0026
595.356	0.0031
595.636	0.0029
595.915	0.0035
596.194	0.0026
596.473	0.0031
596.752	0.0023
597.031	0.002
597.31	0.0017
597.588	0.0028
597.867	0.0024
598.146	0.0028
598.424	0.0028
598.703	0.0021
598.981	0.0023
599.259	0.0036
599.538	0.0039
599.816	0.0034
600.094	0.0026
600.372	0.0036
600.65	0.0038
600.928	0.0036
601.206	0.0036
601.484	0.0042
601.762	0.0042
602.04	0.0028
602.317	0.0032
602.595	0.002
602.872	0.0029
603.15	0.002
603.427	0.0019
603.704	0.0022
603.982	0.0026
604.259	0.0022
604.536	0.003
604.813	0.0028
605.09	0.0027
605.367	0.0024
605.644	0.0029
605.921	0.0018
606.197	0.0026
606.474	0.0032
606.751	0.0033
607.027	0.0029
607.304	0.0026
607.58	0.0027
607.856	0.0023
608.133	0.0036
608.409	0.003
608.685	0.0026
608.961	0.0031
609.237	0.0028
609.513	0.0022
609.789	0.0028
610.065	0.0019
610.341	0.0024
610.616	0.0017
610.892	0.0032
611.167	0.0029
611.443	0.0015
611.718	0.0022
611.994	0.0023
612.269	0.0024
612.544	0.0022
612.819	0.0019
613.095	0.0027
613.37	0.0035
613.645	0.0029
613.919	0.0027
614.194	0.0021
614.469	0.0019
614.744	0.0016
615.019	0.0021
615.293	0.0021
615.568	0.0018
615.842	0.0016
616.116	0.0018
616.391	0.0003
616.665	0.0027
616.939	0.0018
617.213	0.0021
617.488	0.0018
617.762	0.0014
618.035	0.0008
618.309	0.0019
618.583	0.0015
618.857	0.0019
619.131	0.0029
619.404	0.0022
619.678	0.0017
619.951	0.001
620.225	0.0013
620.498	0.0018
620.771	0.0015
621.045	0.0031
621.318	0.0018
621.591	0.0008
621.864	0.0018
622.137	0.0013
622.41	0.0017
622.683	0.0002
622.956	0.0018
623.228	0.0026
623.501	0.0024
623.774	0.0031
624.046	0.0015
624.319	0.0012
624.591	0.0006
624.863	0.0012
625.136	0.0013
625.408	0.0014
625.68	0.0014
625.952	0.0026
626.224	0.001
626.496	0.001
626.768	0.0008
627.04	0.0013
627.311	0.0015
627.583	0.0022
627.855	0.002
628.126	0.0017
628.398	0.0018
628.669	0.0014
628.941	-0.0006
629.212	-0.0001
629.483	0.0002
629.755	0.0005
630.026	-0.0005
630.297	-0.0004
630.568	-0.0004
630.839	-0.0007
631.11	-0.0006
631.38	-0.0003
631.651	0.0002
631.922	-0.0007
632.192	-0.0006
632.463	-0.0006
632.733	0.0002
633.004	-0.0006
633.274	-0.0011
633.545	0.0003
633.815	0.0014
634.085	0.0008
634.355	0.0005
634.625	0.0019
634.895	0.0004
635.165	0.0004
635.435	0.0002
635.705	0.0007
635.974	-0.0011
636.244	0.0012
636.514	0.0007
636.783	0.001
637.053	0.0014
637.322	0.0004
637.591	0.0006
637.861	0.0006
638.13	0.0006
638.399	0.0005
638.668	0.001
638.937	0.0004
639.206	0.001
639.475	0.001
639.744	0.0006
640.013	0.0009
640.281	0.0012
640.55	0.0016
640.819	0.0008
641.087	0.001
641.356	-0.0002
641.624	0.0011
641.892	0.0012
642.161	0.0002
642.429	0.0028
642.697	0.0013
642.965	0.0018
643.233	0.0017
643.501	0.0012
643.769	0.0007
644.037	0.0009
644.305	0.0011
644.572	-0.0005
644.84	-0.0003
645.108	0.0011
645.375	0.0003
645.643	0.0004
645.91	-0.0004
646.177	0.0013
646.445	0.0025
646.712	0.0027
646.979	0.0031
647.246	0.0025
647.513	0.0029
647.78	0.0027
648.047	0.0022
648.314	0.0022
648.58	0.0017
648.847	0.0009
649.114	0.0012
649.38	0.0005
649.647	0.0006
649.913	0.0004
650.18	0.0004
650.446	0.0008
650.712	0.0017
650.978	0.0013
651.245	0.0019
651.511	0.002
651.777	0.0004
652.043	0.0022
652.309	0.001
652.574	0.0021
652.84	0.0013
653.106	0
653.371	-0.0002
653.637	0.0015
653.903	0.0013
654.168	0.001
654.433	0.0011
654.699	0.0012
654.964	0.0021
655.229	0.0011
655.494	0.0017
655.759	-0.0004
656.024	0.0009
656.289	-0
656.554	0.0027
656.819	0.0014
657.084	0.0015
657.349	0.0022
657.613	0.0023
657.878	0.0007
658.142	0.0022
658.407	0.0024
658.671	0.0014
658.936	0.0014
659.2	0.0001
659.464	-0.0002
659.728	0.0007
659.992	0.0012
660.256	0
660.52	0
660.784	-0
661.048	-0.0003
661.312	-0.0006
661.575	-0.0013
661.839	-0.0026
662.103	-0.0023
662.366	-0.0022
662.63	-0.001
662.893	-0.0009
663.156	-0.0012
663.42	-0.0015
663.683	-0.0005
663.946	-0
664.209	0.0023
664.472	0.0013
664.735	0.0019
664.998	0.0014
665.261	-0.0003
665.524	-0.0002
665.786	-0.0011
666.049	-0.0006
666.312	-0.001
666.574	0.0003
666.837	-0.0007
667.099	-0.0022
667.361	-0.0017
667.624	-0.0011
667.886	-0.0012
668.148	-0.0011
668.41	0.0001
668.672	-0.0012
668.934	-0.0005
669.196	-0.0009
669.458	-0.0002
669.72	0.0001
669.982	-0.0007
670.243	0.0006
670.505	0.0009
670.766	0.0006
671.028	0.0015
671.289	0.0005
671.551	-0.0001
671.812	-0.0006
672.073	0.0011
672.334	-0.0005
672.596	0.0007
672.857	-0.0008
673.118	-0.0004
673.379	-0.0015
673.639	-0.0013
673.9	-0.0023
674.161	-0.0021
674.422	-0.0031
674.682	-0.0021
674.943	-0.0026
675.203	-0.0016
675.464	-0.0014
675.724	-0
675.985	0.0004
676.245	0.0013
676.505	0.0013
676.765	0.0012
677.025	0.0002
677.285	0.0009
677.545	0.0017
677.805	0.0019
678.065	0.0018
678.325	0.0018
678.585	0.0005
678.844	0.0011
679.104	0.0016
679.363	0.0013
679.623	0.0023
679.882	0.0033
680.142	0.0033
680.401	0.0027
680.66	0.0034
680.919	0.0027
681.178	0.0033
681.437	0.0029
681.696	0.0029
681.955	0.0028
682.214	0.0034
682.473	0.0031
682.732	0.0003
682.99	0.0016
683.249	0.0024
683.508	0.0021
683.766	0.0021
684.024	0.0025
684.283	0.0019
684.541	0.0021
684.799	0.0028
685.058	0.0023
685.316	0.0022
685.574	0.0033
685.832	0.003
686.09	0.003
686.348	0.0033
686.606	0.0027
686.863	0.0025
687.121	0.0029
687.379	0.0024
687.636	0.0024
687.894	0.0032
688.151	0.0031
688.409	0.003
688.666	0.0025
688.923	0.0028
689.181	0.0017
689.438	0.0015
689.695	0.0017
689.952	0.001
690.209	0.0008
690.466	0.0011
690.723	0.0022
690.979	0.0014
691.236	0.0012
691.493	0.001
691.75	0.0021
692.006	0.0021
692.263	0.003
692.519	0.0022
692.775	0.0008
693.032	-0
693.288	0.0007
693.544	0.0022
693.8	0.0017
694.056	0.002
694.313	0.0017
694.568	0.0006
694.824	0.0016
695.08	0.0027
695.336	0.0026
695.592	0.0021
695.847	0.003
696.103	0.0018
696.359	0.0021
696.614	0.0019
696.869	0.0008
697.125	0.0004
697.38	0.0005
697.635	-0.0008
697.891	-0.0004
698.146	-0.0007
698.401	0.0004
698.656	0.0001
698.911	0.0007
699.166	-0.0003
699.42	-0.0001
699.675	-0.0005
699.93	-0.0011
700.185	-0.0005
700.439	0.0017
700.694	-0
700.948	0.0006
701.203	0.0018
701.457	0.0013
701.711	-0.0002
701.965	-0.0012
702.22	-0.001
702.474	-0.0003
702.728	-0.0009
702.982	-0.001
703.236	-0.001
703.49	-0.0014
703.743	-0.0004
703.997	-0.0003
704.251	0.0003
704.504	-0.0002
704.758	0.0005
705.012	-0.0004
705.265	-0.0003
705.518	-0.0013
705.772	-0.0015
706.025	-0.001
706.278	-0.0004
706.531	-0.0015
706.785	-0.0014
707.038	-0.0003
707.291	-0.0007
707.543	-0.0004
707.796	-0.0006
708.049	-0.0009
708.302	-0.001
708.555	-0.0008
708.807	-0.0011
709.06	-0.0016
709.312	-0.0031
709.565	-0.0026
709.817	-0.0029
710.069	-0.0026
710.322	-0.0016
710.574	-0.0011
710.826	-0.0013
711.078	0.0001
711.33	-0.0004
711.582	-0.0016
711.834	0.0002
712.086	-0.0001
712.338	0.0007
712.59	0.0002
712.841	0.0014
713.093	0.0015
713.344	0.0005
713.596	0.0012
713.847	0.0015
714.099	0.002
714.35	0.0024
714.601	0.0013
714.853	0.0035
715.104	0.002
715.355	0.0006
715.606	0.0014
715.857	0.0012
716.108	0.0014
716.359	0.0012
716.609	0.0015
716.86	0.001
717.111	-0.0004
717.361	-0.0013
717.612	-0.0015
717.863	-0.0014
718.113	-0.0016
718.363	-0.0015
718.614	-0
718.864	-0.0013
719.114	-0.0007
719.364	-0.0008
719.614	-0.0011
719.865	-0.0016
720.114	-0.0015
720.364	-0.001
720.614	0.0007
720.864	0.0013
721.114	0.0008
721.364	0.0019
721.613	0.0017
721.863	0.0017
722.112	0.0017
722.362	0.0014
722.611	0.0018
722.86	0.001
723.11	-0.0003
723.359	-0.0001
723.608	0.0015
723.857	0.0019
724.106	0.0032
724.355	0.0035
724.604	0.0043
724.853	0.0023
725.102	0.0018
725.351	0.0005
725.599	0.0018
725.848	0.0013
726.097	0.0003
726.345	0.0005
726.594	0.0007
726.842	0.0003
727.09	-0.0003
727.339	-0.0004
727.587	-0.001
727.835	-0.0013
728.083	-0.0015
728.331	-0.0017
728.579	-0.0028
728.827	-0.0013
729.075	-0.0014
729.323	-0
729.571	-0.0004
729.818	0.0007
730.066	0.0011
730.314	0.001
730.561	-0.0006
730.809	-0.0013
731.056	-0.0004
731.303	-0.0004
731.551	-0.0005
731.798	-0.0007
732.045	-0.0008
732.292	-0.0004
732.539	-0.0007
732.786	0
733.033	0.0012
733.28	0.0012
733.527	0.0022
733.774	0.0011
734.021	0.0026
734.267	0.0026
734.514	0.0034
734.76	0.0029
735.007	0.0041
735.253	0.0049
735.5	0.0045
735.746	0.0045
735.992	0.0047
736.238	0.0041
736.485	0.0046
736.731	0.0037
736.977	0.0033
737.223	0.0039
737.469	0.0045
737.715	0.0046
737.96	0.005
738.206	0.0045
738.452	0.0056
738.697	0.0057
738.943	0.0044
739.189	0.0032
739.434	0.0017
739.679	0.0017
739.925	0.0007
740.17	0.0004
740.415	0.0006
740.66	0.001
740.906	0.0017
741.151	0.0019
741.396	0.0013
741.641	0.0032
741.886	0.0031
742.13	0.0037
742.375	0.0039
742.62	0.0041
742.865	0.0042
743.109	0.004
743.354	0.0034
743.598	0.0025
743.843	0.0023
744.087	0.0025
744.331	0.003
744.576	0.0031
744.82	0.0026
745.064	0.0021
745.308	0.0018
745.552	0.0015
745.796	0.002
746.04	0.0018
746.284	0.0005
746.528	-0.0009
746.771	-0.0001
747.015	-0.0007
747.259	-0.0007
747.502	-0.0004
747.746	0.0002
747.989	0.0003
748.233	0.0012
748.476	0.0018
748.719	0.0023
748.963	0.0022
749.206	0.0022
749.449	0.0022
749.692	0.0011
749.935	0.0025
750.178	0.0019
750.421	0.0022
750.664	0.0029
750.906	0.0023
751.149	0.0013
751.392	0.0005
751.635	-0.0006
751.877	-0.0015
752.12	-0.0014
752.362	-0.0011
752.604	-0.0017
752.847	-0.0004
753.089	-0.0005
753.331	0.0001
753.573	0.0001
753.816	0.0017
754.058	0.0031
754.3	0.0023
754.542	0.0015
754.783	0.0016
755.025	0.001
755.267	-0.0003
755.509	-0.0003
755.75	-0.0004
755.992	0.0008
756.234	0.0001
756.475	-0.0009
756.716	0.0001
756.958	0.0008
757.199	0.0002
757.44	0.0013
757.682	0.0013
757.923	0.0007
758.164	-0.0001
758.405	-0.0005
758.646	-0
758.887	-0.0009
759.128	-0.0009
759.369	-0.0013
759.609	-0.0015
759.85	-0.0014
760.091	-0.0003
760.331	-0.0015
760.572	-0.0011
760.812	-0.0005
761.053	-0.001
761.293	-0.0003
761.533	0.0003
761.774	-0.0008
762.014	-0.0006
762.254	-0.0008
762.494	-0.0011
762.734	-0.0012
762.974	-0.0005
763.214	-0.0015
763.454	-0.0019
763.694	-0.0009
763.933	-0.0016
764.173	-0.0009
764.413	-0.0007
764.652	-0.0004
764.892	0.0008
765.131	0.001
765.371	0.0013
765.61	0.0017
765.849	0.0006
766.089	0.0005
766.328	0.0011
766.567	0.0006
766.806	0.0019
767.045	0.0012
767.284	0.0015
767.523	0.0022
767.762	0.0019
768.001	0.001
768.239	0.0015
768.478	0.001
768.717	0.0006
768.955	0.0017
769.194	0.0011
769.432	0.0014
769.671	0.0015
769.909	0.0016
770.148	0.0024
770.386	0.0021
770.624	0.0013
770.862	0.0013
771.1	0.0016
771.338	0.0012
771.576	0.0011
771.814	0.0004
772.052	0.0003
772.29	0.0006
772.528	0.0011
772.765	0.0002
773.003	0.0017
773.24	0.0015
773.478	0.0006
773.716	0.0018
773.953	0.0017
774.19	0.0018
774.428	0.0013
774.665	0.0015
774.902	0.0024
775.139	0.0008
775.376	0.0013
775.613	0.0011
775.85	0.0007
776.087	0.0002
776.324	-0.0002
776.561	0
776.798	0.0017
777.034	0.0021
777.271	0.0034
777.508	0.0042
777.744	0.0028
777.981	0.0027
778.217	0.0028
778.454	0.0024
778.69	0.002
778.926	0.0022
779.162	0.0025
779.399	0.0021
779.635	0.002
779.871	0.0023
780.107	0.0023
780.343	0.0029
780.579	0.0034
780.814	0.0032
781.05	0.0022
781.286	0.004
781.522	0.0033
781.757	0.0043
781.993	0.0043
782.228	0.0045
782.464	0.0034
782.699	0.0028
782.934	0.0021
783.17	0.0021
783.405	0.0011
783.64	0.0008
783.875	0.0012
784.11	0.002
784.345	0.0021
784.58	0.0021
784.815	0.0021
785.05	0.0026
785.285	0.0006
785.52	0.0004
785.754	0.001
785.989	0.0007
786.223	0
786.458	0.0001
786.692	0.0002
786.927	-0.001
787.161	-0.0004
787.396	-0.0006
787.63	-0.001
787.864	-0.0014
788.098	-0.0015
788.332	-0.0005
788.566	-0.0006
788.8	-0.001
789.034	0.0003
789.268	0.0004
789.502	0.0002
789.736	0.0017
789.969	0.0016
790.203	0.0013
790.437	0.0013
790.67	0.0008
790.904	0.001
791.137	-0.001
791.37	-0.0013
791.604	-0.0015
791.837	-0.0011
792.07	-0.0014
792.303	-0.0001
792.537	-0.0011
792.77	-0.0007
793.003	-0.0004
793.236	-0.0019
793.469	-0.0015
793.701	-0.0007
793.934	-0.0002
794.167	0.0001
794.4	0.0007
794.632	0.0012
794.865	-0
795.097	0.0005
795.33	0.0017
795.562	0.0003
795.795	0.0006
796.027	0.0003
796.259	-0
796.491	0.0001
796.724	-0.0012
796.956	-0.0002
797.188	-0.0002
797.42	-0.0006
797.652	-0.0003
797.883	-0.0008
798.115	-0.0013
798.347	-0.0012
798.579	-0.0027
798.81	-0.0025
799.042	-0.0022
799.274	-0.0027
799.505	-0.0026
799.737	-0.0024
799.968	-0.0022
800.199	-0.0016
800.431	-0.0018
800.662	-0.0011
800.893	-0.0013
801.124	-0.001
801.355	-0.0006
801.586	-0.0004
801.817	-0.0001
802.048	-0.0005
802.279	0.0001
802.51	0.0005
802.741	-0.0012
802.971	-0.0009
803.202	-0.0007
803.433	-0.0015
803.663	-0.0009
803.894	-0
804.124	0.0003
804.354	0.0001
804.585	-0.0007
804.815	-0.0002
805.045	-0.0002
805.275	-0.0015
805.506	-0.0545
805.736	0.1006
805.966	-0.0317
806.196	0.0247
