Data from 03 0.2 mM BQDS 0.4 mM K2Cr2O7 1 M H2SO4 5 min_Absorbance_12-22-42-677.txt Node
Date: Wed Dec 08 12:22:42 EST 2021
User: kwabilab-user
Spectrometer: HDX00518
Trigger mode: 0
Integration Time (sec): 5.000000E-2
Scans to average: 50
Nonlinearity correction enabled: false
Boxcar width: 0
Storing dark spectrum: false
XAxis mode: Wavelengths
Number of Pixels in Spectrum: 2068
>>>>>Begin Spectral Data<<<<<
195.27	0.2636
195.642	0.2259
196.014	0.0972
196.386	0.1326
196.758	0.0638
197.129	0.0412
197.501	0.0713
197.872	0.0967
198.244	0.1148
198.615	0.1145
198.986	0.1101
199.357	0.1116
199.728	0.1162
200.099	0.1028
200.47	0.1197
200.841	0.1031
201.212	0.1125
201.582	0.124
201.953	0.117
202.323	0.1273
202.694	0.1121
203.064	0.1162
203.434	0.1139
203.804	0.1358
204.174	0.1214
204.544	0.1276
204.914	0.1377
205.284	0.1221
205.653	0.1348
206.023	0.1318
206.393	0.113
206.762	0.1283
207.131	0.1367
207.501	0.1375
207.87	0.1527
208.239	0.1357
208.608	0.14
208.977	0.1397
209.346	0.1448
209.715	0.1631
210.083	0.1439
210.452	0.149
210.82	0.1684
211.189	0.1706
211.557	0.1611
211.925	0.1689
212.294	0.1648
212.662	0.188
213.03	0.1853
213.398	0.1901
213.766	0.1914
214.133	0.2102
214.501	0.2163
214.869	0.2099
215.236	0.2559
215.604	0.24
215.971	0.2625
216.338	0.28
216.705	0.3087
217.072	0.3322
217.439	0.3212
217.806	0.3599
218.173	0.3866
218.54	0.4105
218.907	0.4566
219.273	0.4858
219.64	0.5265
220.006	0.5656
220.373	0.5846
220.739	0.6479
221.105	0.6883
221.471	0.6906
221.837	0.7328
222.203	0.7778
222.569	0.8157
222.935	0.8404
223.3	0.8553
223.666	0.8894
224.031	0.9141
224.397	0.9254
224.762	0.942
225.127	0.9647
225.493	0.9856
225.858	0.9925
226.223	0.9994
226.588	1.0076
226.952	1.0043
227.317	1.0236
227.682	1.009
228.046	1.0098
228.411	1.0173
228.775	1.0082
229.14	1.0065
229.504	0.9924
229.868	0.9884
230.232	0.9866
230.596	0.9824
230.96	0.9704
231.324	0.9611
231.688	0.9523
232.052	0.9448
232.415	0.936
232.779	0.9334
233.142	0.9263
233.505	0.9131
233.869	0.9041
234.232	0.8887
234.595	0.8791
234.958	0.8719
235.321	0.8687
235.684	0.8522
236.047	0.8429
236.409	0.8322
236.772	0.8276
237.134	0.8147
237.497	0.8082
237.859	0.7997
238.222	0.792
238.584	0.7831
238.946	0.7749
239.308	0.7662
239.67	0.7581
240.032	0.7506
240.393	0.7436
240.755	0.7352
241.117	0.7312
241.478	0.7236
241.84	0.7165
242.201	0.7066
242.562	0.7032
242.924	0.6955
243.285	0.6884
243.646	0.6846
244.007	0.6806
244.368	0.6727
244.728	0.6691
245.089	0.6652
245.45	0.6583
245.81	0.6586
246.171	0.6505
246.531	0.6453
246.891	0.6411
247.252	0.6383
247.612	0.6327
247.972	0.6299
248.332	0.6275
248.692	0.6236
249.051	0.6203
249.411	0.6204
249.771	0.6154
250.13	0.6128
250.49	0.611
250.849	0.6079
251.208	0.6055
251.568	0.6007
251.927	0.6007
252.286	0.5993
252.645	0.5969
253.004	0.5929
253.363	0.5896
253.721	0.5891
254.08	0.5892
254.439	0.5866
254.797	0.5836
255.155	0.5802
255.514	0.5802
255.872	0.5787
256.23	0.5758
256.588	0.5754
256.946	0.5735
257.304	0.5718
257.662	0.5692
258.02	0.5689
258.377	0.5662
258.735	0.5662
259.093	0.5656
259.45	0.5615
259.807	0.5605
260.165	0.5587
260.522	0.5567
260.879	0.5554
261.236	0.5528
261.593	0.5509
261.95	0.5487
262.306	0.5484
262.663	0.5466
263.02	0.5444
263.376	0.5428
263.733	0.5396
264.089	0.5373
264.445	0.5371
264.802	0.5339
265.158	0.5323
265.514	0.5315
265.87	0.5276
266.226	0.5265
266.581	0.5236
266.937	0.5222
267.293	0.52
267.648	0.5179
268.004	0.5151
268.359	0.511
268.714	0.5093
269.07	0.5074
269.425	0.5047
269.78	0.5029
270.135	0.5005
270.49	0.4976
270.844	0.4949
271.199	0.4933
271.554	0.4907
271.908	0.4878
272.263	0.4858
272.617	0.482
272.972	0.4782
273.326	0.4748
273.68	0.4737
274.034	0.4705
274.388	0.4683
274.742	0.4649
275.096	0.4604
275.45	0.4585
275.803	0.4544
276.157	0.452
276.51	0.4495
276.864	0.4453
277.217	0.4422
277.571	0.4383
277.924	0.4355
278.277	0.4327
278.63	0.4289
278.983	0.4248
279.336	0.421
279.688	0.4182
280.041	0.4132
280.394	0.4108
280.746	0.4078
281.099	0.4042
281.451	0.3997
281.803	0.3937
282.156	0.3922
282.508	0.3883
282.86	0.3857
283.212	0.3803
283.564	0.3774
283.916	0.3729
284.267	0.3694
284.619	0.3664
284.971	0.3622
285.322	0.3591
285.673	0.3556
286.025	0.3512
286.376	0.3469
286.727	0.3437
287.078	0.3403
287.429	0.337
287.78	0.3319
288.131	0.3286
288.482	0.3252
288.833	0.3209
289.183	0.3168
289.534	0.3138
289.884	0.3099
290.235	0.3069
290.585	0.3018
290.935	0.299
291.285	0.295
291.635	0.2907
291.985	0.2877
292.335	0.2828
292.685	0.2796
293.035	0.2767
293.384	0.2717
293.734	0.2692
294.083	0.2655
294.433	0.2613
294.782	0.2584
295.131	0.2552
295.48	0.2521
295.829	0.2487
296.179	0.2439
296.527	0.2416
296.876	0.2382
297.225	0.2358
297.574	0.2325
297.922	0.2293
298.271	0.2252
298.619	0.2215
298.968	0.2199
299.316	0.2171
299.664	0.2141
300.012	0.2113
300.36	0.2077
300.708	0.2052
301.056	0.203
301.404	0.2006
301.752	0.1981
302.099	0.196
302.447	0.1933
302.794	0.191
303.142	0.1885
303.489	0.1867
303.836	0.184
304.183	0.1829
304.531	0.1811
304.878	0.1789
305.224	0.1771
305.571	0.1759
305.918	0.1738
306.265	0.1713
306.611	0.1703
306.958	0.1693
307.304	0.168
307.651	0.1664
307.997	0.1654
308.343	0.1635
308.689	0.1632
309.035	0.1621
309.381	0.1614
309.727	0.1598
310.073	0.1597
310.419	0.1584
310.764	0.1582
311.11	0.158
311.455	0.1571
311.801	0.1558
312.146	0.1561
312.491	0.155
312.837	0.1554
313.182	0.1549
313.527	0.1543
313.872	0.1537
314.216	0.1544
314.561	0.1538
314.906	0.1542
315.251	0.1537
315.595	0.1531
315.94	0.1535
316.284	0.1539
316.628	0.1535
316.972	0.1533
317.317	0.1542
317.661	0.1548
318.005	0.1545
318.348	0.155
318.692	0.1553
319.036	0.1554
319.38	0.1561
319.723	0.1567
320.067	0.1568
320.41	0.1583
320.754	0.1587
321.097	0.1593
321.44	0.1599
321.783	0.1606
322.126	0.1611
322.469	0.1623
322.812	0.163
323.155	0.1636
323.498	0.1652
323.84	0.1661
324.183	0.1666
324.525	0.1677
324.868	0.1686
325.21	0.1699
325.552	0.1711
325.894	0.1715
326.236	0.1733
326.578	0.174
326.92	0.1749
327.262	0.1756
327.604	0.1769
327.946	0.1781
328.287	0.1793
328.629	0.1803
328.97	0.1815
329.312	0.1824
329.653	0.1831
329.994	0.1849
330.335	0.1871
330.676	0.1872
331.017	0.1883
331.358	0.1893
331.699	0.1913
332.04	0.1933
332.38	0.1934
332.721	0.1956
333.061	0.1958
333.402	0.1971
333.742	0.1987
334.083	0.2
334.423	0.2005
334.763	0.2018
335.103	0.2032
335.443	0.2034
335.783	0.2045
336.123	0.2048
336.462	0.2071
336.802	0.2072
337.141	0.2088
337.481	0.2097
337.82	0.2098
338.16	0.2113
338.499	0.2122
338.838	0.2132
339.177	0.2146
339.516	0.2152
339.855	0.2165
340.194	0.2164
340.533	0.2179
340.872	0.2187
341.21	0.22
341.549	0.2198
341.887	0.2211
342.226	0.2214
342.564	0.221
342.902	0.2222
343.24	0.2222
343.578	0.2218
343.916	0.2231
344.254	0.2231
344.592	0.2229
344.93	0.2234
345.268	0.2236
345.605	0.2241
345.943	0.2241
346.28	0.224
346.618	0.2236
346.955	0.2239
347.292	0.2245
347.629	0.2249
347.966	0.2246
348.303	0.2253
348.64	0.2243
348.977	0.2243
349.314	0.224
349.65	0.2253
349.987	0.2242
350.324	0.2236
350.66	0.2233
350.996	0.224
351.333	0.2226
351.669	0.2225
352.005	0.222
352.341	0.2207
352.677	0.22
353.013	0.2187
353.349	0.2184
353.685	0.2169
354.02	0.2169
354.356	0.2149
354.691	0.2141
355.027	0.2135
355.362	0.2124
355.697	0.2118
356.033	0.2107
356.368	0.2092
356.703	0.2092
357.038	0.2084
357.373	0.2074
357.707	0.2074
358.042	0.2056
358.377	0.2047
358.711	0.2039
359.046	0.2025
359.38	0.2017
359.715	0.2009
360.049	0.1998
360.383	0.1985
360.717	0.1977
361.051	0.1959
361.385	0.1951
361.719	0.1924
362.053	0.1924
362.387	0.1893
362.72	0.1888
363.054	0.1864
363.387	0.1848
363.721	0.1834
364.054	0.1818
364.387	0.1802
364.721	0.1785
365.054	0.1772
365.387	0.1751
365.72	0.1741
366.053	0.1722
366.385	0.1712
366.718	0.17
367.051	0.168
367.383	0.1662
367.716	0.1655
368.048	0.1648
368.381	0.1627
368.713	0.1615
369.045	0.1606
369.377	0.1591
369.709	0.1578
370.041	0.1563
370.373	0.1553
370.705	0.1537
371.037	0.1519
371.368	0.1504
371.7	0.1495
372.031	0.1479
372.363	0.146
372.694	0.1449
373.025	0.1422
373.356	0.1412
373.688	0.1388
374.019	0.1363
374.35	0.1346
374.68	0.133
375.011	0.1313
375.342	0.1295
375.673	0.1274
376.003	0.1253
376.334	0.1241
376.664	0.1226
376.995	0.121
377.325	0.1202
377.655	0.1188
377.985	0.1172
378.315	0.1164
378.645	0.1143
378.975	0.113
379.305	0.1124
379.635	0.1115
379.964	0.1091
380.294	0.1085
380.623	0.1078
380.953	0.1066
381.282	0.105
381.611	0.1033
381.941	0.1022
382.27	0.1008
382.599	0.0993
382.928	0.098
383.257	0.0973
383.585	0.0965
383.914	0.0946
384.243	0.0935
384.571	0.0909
384.9	0.0896
385.228	0.0886
385.557	0.087
385.885	0.0855
386.213	0.084
386.541	0.0827
386.869	0.0809
387.197	0.0794
387.525	0.0779
387.853	0.0767
388.181	0.0756
388.508	0.0751
388.836	0.0738
389.164	0.073
389.491	0.0716
389.818	0.0701
390.146	0.0691
390.473	0.0678
390.8	0.0672
391.127	0.0663
391.454	0.065
391.781	0.0639
392.108	0.0633
392.435	0.0622
392.761	0.0608
393.088	0.0606
393.415	0.0593
393.741	0.0594
394.067	0.0587
394.394	0.0583
394.72	0.0575
395.046	0.0566
395.372	0.0552
395.698	0.0545
396.024	0.0547
396.35	0.0529
396.676	0.0527
397.001	0.0522
397.327	0.0506
397.653	0.0491
397.978	0.0491
398.303	0.0482
398.629	0.0476
398.954	0.0474
399.279	0.0469
399.604	0.0467
399.929	0.0454
400.254	0.0449
400.579	0.0443
400.904	0.0432
401.229	0.0429
401.553	0.0422
401.878	0.0418
402.202	0.0415
402.527	0.0411
402.851	0.0409
403.175	0.0406
403.5	0.0399
403.824	0.0406
404.148	0.0395
404.472	0.0396
404.796	0.0382
405.119	0.0381
405.443	0.038
405.767	0.0377
406.09	0.0374
406.414	0.038
406.737	0.0377
407.061	0.0373
407.384	0.0374
407.707	0.0365
408.03	0.0375
408.353	0.0373
408.676	0.0368
408.999	0.0364
409.322	0.0363
409.645	0.0369
409.968	0.0356
410.29	0.0361
410.613	0.036
410.935	0.0358
411.258	0.037
411.58	0.0361
411.902	0.036
412.224	0.036
412.546	0.0356
412.868	0.0355
413.19	0.0356
413.512	0.0355
413.834	0.0363
414.156	0.0362
414.477	0.0355
414.799	0.0362
415.121	0.0361
415.442	0.0357
415.763	0.0356
416.085	0.0361
416.406	0.0362
416.727	0.0356
417.048	0.0358
417.369	0.036
417.69	0.0355
418.011	0.0365
418.331	0.0361
418.652	0.0364
418.973	0.0365
419.293	0.0362
419.614	0.0365
419.934	0.0363
420.254	0.0363
420.574	0.0361
420.895	0.036
421.215	0.0355
421.535	0.035
421.855	0.036
422.174	0.0356
422.494	0.0362
422.814	0.0367
423.134	0.0364
423.453	0.0363
423.773	0.0361
424.092	0.0363
424.411	0.036
424.731	0.0368
425.05	0.0365
425.369	0.0369
425.688	0.0367
426.007	0.0371
426.326	0.0373
426.644	0.0379
426.963	0.038
427.282	0.0373
427.6	0.0376
427.919	0.0376
428.237	0.0376
428.556	0.0382
428.874	0.0377
429.192	0.0373
429.51	0.0374
429.828	0.0383
430.146	0.0378
430.464	0.0378
430.782	0.0373
431.1	0.0379
431.418	0.0375
431.735	0.0378
432.053	0.0385
432.37	0.0384
432.688	0.0385
433.005	0.0382
433.322	0.0383
433.639	0.0376
433.957	0.0381
434.274	0.0384
434.591	0.0384
434.907	0.0393
435.224	0.0388
435.541	0.0389
435.858	0.0395
436.174	0.0392
436.491	0.0388
436.807	0.0384
437.124	0.0381
437.44	0.0377
437.756	0.0383
438.072	0.0377
438.388	0.0391
438.704	0.0384
439.02	0.0382
439.336	0.0379
439.652	0.0384
439.968	0.0383
440.283	0.0381
440.599	0.0386
440.914	0.0382
441.23	0.038
441.545	0.0386
441.86	0.0379
442.175	0.0385
442.491	0.0386
442.806	0.0381
443.121	0.038
443.435	0.0376
443.75	0.0384
444.065	0.0374
444.38	0.0385
444.694	0.0378
445.009	0.0382
445.323	0.0381
445.638	0.0378
445.952	0.038
446.266	0.0375
446.58	0.0385
446.894	0.0379
447.208	0.0388
447.522	0.0382
447.836	0.0371
448.15	0.0368
448.464	0.0372
448.777	0.0372
449.091	0.0367
449.404	0.0377
449.718	0.0374
450.031	0.0368
450.345	0.0367
450.658	0.0369
450.971	0.037
451.284	0.0359
451.597	0.0367
451.91	0.037
452.223	0.0358
452.535	0.0373
452.848	0.0364
453.161	0.0367
453.473	0.0365
453.786	0.0366
454.098	0.0367
454.411	0.0354
454.723	0.0358
455.035	0.0356
455.347	0.0357
455.659	0.0363
455.971	0.0359
456.283	0.0359
456.595	0.0357
456.907	0.0356
457.218	0.0351
457.53	0.0351
457.841	0.0344
458.153	0.034
458.464	0.0345
458.776	0.0337
459.087	0.0339
459.398	0.0342
459.709	0.0339
460.02	0.0341
460.331	0.0334
460.642	0.0333
460.953	0.034
461.263	0.033
461.574	0.0333
461.885	0.0322
462.195	0.0335
462.506	0.0327
462.816	0.0326
463.126	0.0322
463.437	0.0325
463.747	0.0312
464.057	0.0315
464.367	0.032
464.677	0.031
464.987	0.0312
465.296	0.0313
465.606	0.0309
465.916	0.0304
466.225	0.0302
466.535	0.0298
466.844	0.0301
467.154	0.03
467.463	0.0297
467.772	0.0299
468.081	0.0294
468.39	0.0297
468.699	0.0291
469.008	0.0298
469.317	0.0288
469.626	0.0288
469.935	0.0291
470.243	0.0291
470.552	0.0292
470.86	0.0286
471.169	0.0273
471.477	0.028
471.785	0.0285
472.093	0.0278
472.402	0.0272
472.71	0.0272
473.018	0.0273
473.326	0.027
473.633	0.0264
473.941	0.0266
474.249	0.0264
474.556	0.0259
474.864	0.0256
475.171	0.0254
475.479	0.0259
475.786	0.026
476.094	0.0258
476.401	0.0251
476.708	0.0249
477.015	0.0256
477.322	0.0251
477.629	0.0252
477.936	0.0233
478.242	0.0238
478.549	0.0235
478.856	0.0235
479.162	0.024
479.469	0.024
479.775	0.0239
480.081	0.0228
480.388	0.0228
480.694	0.0227
481	0.0226
481.306	0.0225
481.612	0.0221
481.918	0.0216
482.224	0.0223
482.53	0.0215
482.835	0.0218
483.141	0.0203
483.446	0.0206
483.752	0.021
484.057	0.0198
484.363	0.0198
484.668	0.0185
484.973	0.0194
485.278	0.0191
485.583	0.0184
485.888	0.0188
486.193	0.0187
486.498	0.0185
486.803	0.0187
487.107	0.0187
487.412	0.0179
487.717	0.0176
488.021	0.0187
488.325	0.0178
488.63	0.017
488.934	0.0174
489.238	0.0181
489.542	0.0172
489.846	0.016
490.15	0.0183
490.454	0.0172
490.758	0.0171
491.062	0.0163
491.366	0.0162
491.669	0.0163
491.973	0.0159
492.276	0.0164
492.58	0.015
492.883	0.0156
493.186	0.0162
493.489	0.0155
493.792	0.0156
494.096	0.0156
494.399	0.0151
494.701	0.0154
495.004	0.0148
495.307	0.0148
495.61	0.0142
495.912	0.0136
496.215	0.0134
496.517	0.0135
496.82	0.013
497.122	0.0137
497.424	0.0127
497.727	0.0123
498.029	0.0133
498.331	0.0132
498.633	0.0137
498.935	0.013
499.237	0.012
499.538	0.0125
499.84	0.0115
500.142	0.0123
500.443	0.0115
500.745	0.0113
501.046	0.0121
501.348	0.0108
501.649	0.0124
501.95	0.011
502.251	0.011
502.552	0.01
502.853	0.0098
503.154	0.0095
503.455	0.0095
503.756	0.0102
504.057	0.0105
504.357	0.0104
504.658	0.0093
504.958	0.0099
505.259	0.011
505.559	0.0105
505.859	0.0097
506.16	0.0102
506.46	0.0097
506.76	0.0098
507.06	0.0091
507.36	0.0095
507.66	0.0088
507.96	0.0091
508.259	0.0086
508.559	0.0082
508.859	0.0089
509.158	0.0085
509.457	0.0088
509.757	0.0096
510.056	0.0088
510.355	0.008
510.655	0.0069
510.954	0.0077
511.253	0.0079
511.552	0.0084
511.851	0.0073
512.149	0.0065
512.448	0.0075
512.747	0.0081
513.045	0.0065
513.344	0.0077
513.642	0.0078
513.941	0.008
514.239	0.0067
514.537	0.0072
514.836	0.0075
515.134	0.0064
515.432	0.0073
515.73	0.0079
516.028	0.0065
516.326	0.0072
516.623	0.0064
516.921	0.0068
517.219	0.0069
517.516	0.0068
517.814	0.0061
518.111	0.0068
518.409	0.0081
518.706	0.0067
519.003	0.0069
519.3	0.0051
519.597	0.0051
519.894	0.0059
520.191	0.0065
520.488	0.0063
520.785	0.0046
521.082	0.0061
521.378	0.0058
521.675	0.0043
521.971	0.0052
522.268	0.0048
522.564	0.0053
522.861	0.0051
523.157	0.0038
523.453	0.0041
523.749	0.0059
524.045	0.0056
524.341	0.0059
524.637	0.0042
524.933	0.0045
525.229	0.0055
525.524	0.0046
525.82	0.0056
526.115	0.0041
526.411	0.005
526.706	0.0055
527.002	0.0048
527.297	0.0041
527.592	0.0057
527.887	0.0058
528.182	0.0054
528.477	0.0057
528.772	0.0048
529.067	0.0056
529.362	0.0046
529.657	0.0047
529.951	0.0035
530.246	0.0036
530.54	0.002
530.835	0.0035
531.129	0.0028
531.423	0.0048
531.718	0.0036
532.012	0.0044
532.306	0.0039
532.6	0.0032
532.894	0.0035
533.188	0.0041
533.482	0.0025
533.775	0.0039
534.069	0.0036
534.363	0.0025
534.656	0.0024
534.95	0.0024
535.243	0.0028
535.536	0.0028
535.83	0.0044
536.123	0.0027
536.416	0.0035
536.709	0.0033
537.002	0.0047
537.295	0.0031
537.588	0.0042
537.881	0.003
538.173	0.003
538.466	0.0024
538.759	0.0023
539.051	0.0025
539.344	0.0022
539.636	0.0033
539.928	0.0024
540.22	0.0032
540.513	0.0035
540.805	0.0032
541.097	0.0032
541.389	0.0026
541.681	0.0023
541.972	0.0027
542.264	0.0024
542.556	0.0026
542.847	0.0038
543.139	0.0034
543.431	0.0045
543.722	0.0035
544.013	0.0049
544.305	0.0047
544.596	0.0054
544.887	0.0031
545.178	0.0032
545.469	0.003
545.76	0.0031
546.051	0.0038
546.342	0.0044
546.632	0.0018
546.923	0.0031
547.214	0.0034
547.504	0.0025
547.795	0.0032
548.085	0.0035
548.375	0.0023
548.666	0.003
548.956	0.0022
549.246	0.0028
549.536	0.0019
549.826	0.004
550.116	0.0036
550.406	0.0042
550.695	0.0049
550.985	0.0043
551.275	0.0045
551.564	0.0031
551.854	0.0039
552.143	0.0038
552.433	0.0041
552.722	0.0031
553.011	0.0037
553.3	0.0032
553.589	0.0025
553.879	0.0036
554.167	0.0034
554.456	0.0029
554.745	0.0031
555.034	0.0019
555.323	0.002
555.611	0.0023
555.9	0.0039
556.188	0.0034
556.477	0.0029
556.765	0.0031
557.053	0.0033
557.342	0.003
557.63	0.0043
557.918	0.0036
558.206	0.0029
558.494	0.0024
558.782	0.0024
559.069	0.0035
559.357	0.0037
559.645	0.003
559.932	0.0036
560.22	0.0038
560.507	0.0035
560.795	0.0029
561.082	0.0029
561.37	0.0027
561.657	0.0028
561.944	0.0039
562.231	0.003
562.518	0.0021
562.805	0.0035
563.092	0.0044
563.379	0.0044
563.665	0.0026
563.952	0.0039
564.239	0.0037
564.525	0.0039
564.811	0.0044
565.098	0.0044
565.384	0.004
565.67	0.0041
565.957	0.0036
566.243	0.0028
566.529	0.0045
566.815	0.0045
567.101	0.003
567.387	0.0029
567.672	0.0035
567.958	0.004
568.244	0.004
568.529	0.0036
568.815	0.0034
569.1	0.0038
569.386	0.0028
569.671	0.0034
569.956	0.003
570.242	0.003
570.527	0.0045
570.812	0.0035
571.097	0.003
571.382	0.0037
571.666	0.0031
571.951	0.0028
572.236	0.0039
572.521	0.0025
572.805	0.003
573.09	0.0027
573.374	0.0028
573.659	0.0025
573.943	0.0032
574.227	0.0029
574.511	0.0041
574.795	0.0028
575.079	0.0027
575.363	0.0026
575.647	0.0026
575.931	0.0027
576.215	0.0032
576.499	0.0021
576.782	0.0027
577.066	0.0029
577.349	0.0031
577.633	0.0033
577.916	0.0034
578.2	0.0031
578.483	0.0031
578.766	0.0024
579.049	0.0031
579.332	0.0039
579.615	0.0029
579.898	0.0036
580.181	0.0036
580.464	0.0028
580.746	0.0024
581.029	0.0032
581.312	0.0026
581.594	0.0024
581.877	0.0028
582.159	0.0028
582.441	0.003
582.724	0.0026
583.006	0.0023
583.288	0.002
583.57	0.0023
583.852	0.0022
584.134	0.002
584.416	0.0028
584.697	0.0031
584.979	0.0026
585.261	0.0027
585.542	0.0022
585.824	0.0031
586.105	0.0023
586.387	0.0019
586.668	0.0024
586.949	0.0025
587.231	0.0017
587.512	0.0029
587.793	0.0025
588.074	0.0025
588.355	0.0025
588.636	0.003
588.916	0.0033
589.197	0.0037
589.478	0.0029
589.758	0.0029
590.039	0.0034
590.319	0.0032
590.6	0.0028
590.88	0.0027
591.16	0.0027
591.441	0.0037
591.721	0.0037
592.001	0.0028
592.281	0.0029
592.561	0.0032
592.841	0.0034
593.12	0.0028
593.4	0.002
593.68	0.0026
593.959	0.0025
594.239	0.003
594.518	0.0021
594.798	0.0032
595.077	0.0036
595.356	0.0029
595.636	0.0025
595.915	0.0036
596.194	0.0032
596.473	0.0037
596.752	0.0034
597.031	0.0026
597.31	0.0021
597.588	0.0024
597.867	0.0018
598.146	0.0024
598.424	0.0021
598.703	0.0028
598.981	0.0026
599.259	0.0028
599.538	0.0029
599.816	0.003
600.094	0.0023
600.372	0.0032
600.65	0.0033
600.928	0.0031
601.206	0.0034
601.484	0.0032
601.762	0.0037
602.04	0.0039
602.317	0.0034
602.595	0.0031
602.872	0.0039
603.15	0.0021
603.427	0.0023
603.704	0.0018
603.982	0.0026
604.259	0.0016
604.536	0.0017
604.813	0.0023
605.09	0.0023
605.367	0.0022
605.644	0.0013
605.921	0.002
606.197	0.0027
606.474	0.0022
606.751	0.0021
607.027	0.0025
607.304	0.0016
607.58	0.002
607.856	0.0017
608.133	0.0028
608.409	0.0027
608.685	0.0023
608.961	0.0031
609.237	0.003
609.513	0.0026
609.789	0.0031
610.065	0.002
610.341	0.0022
610.616	0.003
610.892	0.0041
611.167	0.0036
611.443	0.0025
611.718	0.0031
611.994	0.0023
612.269	0.0027
612.544	0.0019
612.819	0.0027
613.095	0.0031
613.37	0.0023
613.645	0.002
613.919	0.0018
614.194	0.0026
614.469	0.0017
614.744	0.0007
615.019	0.0009
615.293	0.0004
615.568	0.0009
615.842	0.0006
616.116	0.002
616.391	0.0016
616.665	0.0025
616.939	0.0009
617.213	0.002
617.488	0.0013
617.762	0.0022
618.035	0.0021
618.309	0.0019
618.583	0.0018
618.857	0.0011
619.131	0.0022
619.404	0.0011
619.678	0.001
619.951	0.0013
620.225	0.002
620.498	0.0017
620.771	0.0023
621.045	0.0033
621.318	0.0028
621.591	0.0028
621.864	0.002
622.137	0.0009
622.41	0.001
622.683	0.0009
622.956	0.0017
623.228	0.003
623.501	0.003
623.774	0.0035
624.046	0.0032
624.319	0.0025
624.591	0.0006
624.863	0.0026
625.136	0.0013
625.408	0.0028
625.68	0.0018
625.952	0.0024
626.224	0.0029
626.496	0.002
626.768	0.0015
627.04	0.0018
627.311	0.0019
627.583	0.0027
627.855	0.0018
628.126	0.0022
628.398	0.0031
628.669	0.0031
628.941	0.0019
629.212	0.0008
629.483	0.0018
629.755	0.0012
630.026	0.0007
630.297	0.0007
630.568	0.001
630.839	-0.0001
631.11	-0.0002
631.38	0.0008
631.651	0.0008
631.922	0.0004
632.192	-0.0006
632.463	0.0001
632.733	0.0009
633.004	0.001
633.274	0.0004
633.545	0.0029
633.815	0.0039
634.085	0.0026
634.355	0.0024
634.625	0.0031
634.895	0.0018
635.165	0.0007
635.435	0.0015
635.705	0.0021
635.974	0.0015
636.244	0.0021
636.514	0.0022
636.783	0.0017
637.053	0.0022
637.322	0.0017
637.591	0.0024
637.861	0.0025
638.13	0.0025
638.399	0.0025
638.668	0.0029
638.937	0.0012
639.206	0.0028
639.475	0.0021
639.744	0.0025
640.013	0.0028
640.281	0.0038
640.55	0.0036
640.819	0.0031
641.087	0.0037
641.356	0.0025
641.624	0.0023
641.892	0.0027
642.161	0.0031
642.429	0.0036
642.697	0.0022
642.965	0.0036
643.233	0.0035
643.501	0.0021
643.769	0.0015
644.037	0.0023
644.305	0.002
644.572	-0.0006
644.84	0.0008
645.108	0.0008
645.375	0.0007
645.643	0.0007
645.91	0.0011
646.177	0.0028
646.445	0.0042
646.712	0.0043
646.979	0.0046
647.246	0.0039
647.513	0.0044
647.78	0.0043
648.047	0.0042
648.314	0.0036
648.58	0.0027
648.847	0.0012
649.114	0.0016
649.38	0.0007
649.647	0.001
649.913	0.0008
650.18	0.0016
650.446	0.0018
650.712	0.0028
650.978	0.0026
651.245	0.0025
651.511	0.0024
651.777	0.0025
652.043	0.0036
652.309	0.0027
652.574	0.0039
652.84	0.0028
653.106	0.0018
653.371	0.0013
653.637	0.0024
653.903	0.0033
654.168	0.0036
654.433	0.0038
654.699	0.0032
654.964	0.0037
655.229	0.0037
655.494	0.0035
655.759	0.0014
656.024	0.0006
656.289	-0
656.554	-0.0016
656.819	0.0001
657.084	0.0027
657.349	0.0046
657.613	0.0039
657.878	0.0033
658.142	0.0038
658.407	0.0044
658.671	0.0031
658.936	0.0018
659.2	0.0021
659.464	0.0023
659.728	0.0023
659.992	0.0025
660.256	0.0019
660.52	0.0013
660.784	0.0007
661.048	0.0002
661.312	0.0002
661.575	-0.0002
661.839	-0.0012
662.103	-0.0013
662.366	-0.0013
662.63	-0.0005
662.893	0.0004
663.156	0.0013
663.42	0.0007
663.683	0.0004
663.946	0.0017
664.209	0.0032
664.472	0.0034
664.735	0.0022
664.998	0.0021
665.261	0.0017
665.524	0.0016
665.786	0.0014
666.049	0.0016
666.312	0.0021
666.574	0.0025
666.837	0.0023
667.099	0.0001
667.361	0.0006
667.624	0.0004
667.886	0.0015
668.148	0.0011
668.41	0.0032
668.672	0.0018
668.934	0.0016
669.196	0.0009
669.458	0.0026
669.72	0.0022
669.982	0.002
670.243	0.0033
670.505	0.003
670.766	0.0018
671.028	0.0024
671.289	0.0032
671.551	0.0023
671.812	0.0006
672.073	0.0014
672.334	0.0012
672.596	0.0018
672.857	0.0005
673.118	0.0007
673.379	0.0003
673.639	0
673.9	0.0004
674.161	-0.0013
674.422	-0.0021
674.682	-0.0024
674.943	-0.0018
675.203	-0.0002
675.464	0.0006
675.724	0.0006
675.985	0.0004
676.245	0.0021
676.505	0.0024
676.765	0.0018
677.025	0.0022
677.285	0.0025
677.545	0.0038
677.805	0.0036
678.065	0.0037
678.325	0.0037
678.585	0.0036
678.844	0.0031
679.104	0.0019
679.363	0.0019
679.623	0.0032
679.882	0.0034
680.142	0.0032
680.401	0.0039
680.66	0.0045
680.919	0.0043
681.178	0.005
681.437	0.0045
681.696	0.0039
681.955	0.0045
682.214	0.005
682.473	0.005
682.732	0.0031
682.99	0.0027
683.249	0.0031
683.508	0.0042
683.766	0.0042
684.024	0.0036
684.283	0.0046
684.541	0.0036
684.799	0.0033
685.058	0.0024
685.316	0.0024
685.574	0.0036
685.832	0.0033
686.09	0.0041
686.348	0.0043
686.606	0.0043
686.863	0.0045
687.121	0.005
687.379	0.0049
687.636	0.0033
687.894	0.0045
688.151	0.0046
688.409	0.0048
688.666	0.0042
688.923	0.0047
689.181	0.004
689.438	0.0031
689.695	0.003
689.952	0.0016
690.209	0.002
690.466	0.0017
690.723	0.0032
690.979	0.003
691.236	0.0026
691.493	0.0022
691.75	0.0036
692.006	0.0029
692.263	0.0035
692.519	0.0037
692.775	0.0025
693.032	0.0015
693.288	0.0024
693.544	0.0025
693.8	0.002
694.056	0.0025
694.313	0.0021
694.568	0.0025
694.824	0.0029
695.08	0.0033
695.336	0.004
695.592	0.0024
695.847	0.003
696.103	0.0033
696.359	0.0028
696.614	0.0023
696.869	0.0024
697.125	0
697.38	0
697.635	-0.0007
697.891	0.0004
698.146	0.0008
698.401	0.0022
698.656	0.0023
698.911	0.0021
699.166	0.0011
699.42	0.0008
699.675	0.0021
699.93	0.0008
700.185	0.0013
700.439	0.0022
700.694	0.0022
700.948	0.0027
701.203	0.003
701.457	0.0022
701.711	0.0014
701.965	-0
702.22	0.0001
702.474	0.0005
702.728	-0.0004
702.982	-0.0006
703.236	-0.0003
703.49	-0.0002
703.743	0.0004
703.997	0.001
704.251	0.0009
704.504	0.0012
704.758	0.0011
705.012	0.0013
705.265	0.0008
705.518	0.0004
705.772	0.0006
706.025	0.0009
706.278	0.0001
706.531	0.0002
706.785	-0.0004
707.038	0.0003
707.291	-0.0001
707.543	-0.0002
707.796	0.0002
708.049	-0.0005
708.302	-0.0001
708.555	0.0006
708.807	0.0006
709.06	0.0005
709.312	-0.0016
709.565	-0.0013
709.817	-0.0014
710.069	-0.0012
710.322	-0.0002
710.574	0.0001
710.826	-0
711.078	0.0007
711.33	0
711.582	0.0003
711.834	0.0012
712.086	0.0021
712.338	0.0032
712.59	0.0026
712.841	0.0024
713.093	0.0016
713.344	0.0017
713.596	0.0026
713.847	0.0024
714.099	0.0028
714.35	0.0036
714.601	0.0028
714.853	0.003
715.104	0.0031
715.355	0.0024
715.606	0.0019
715.857	0.003
716.108	0.0032
716.359	0.003
716.609	0.0035
716.86	0.002
717.111	0.0015
717.361	0.0002
717.612	0.0008
717.863	0.0008
718.113	0.0008
718.363	0.0008
718.614	0.0008
718.864	0.0011
719.114	0.0014
719.364	0.001
719.614	-0.0003
719.865	-0.0003
720.114	0.0005
720.364	0.0014
720.614	0.002
720.864	0.0026
721.114	0.0026
721.364	0.0028
721.613	0.0033
721.863	0.0041
722.112	0.0035
722.362	0.0041
722.611	0.0033
722.86	0.0022
723.11	0.0015
723.359	0.0019
723.608	0.0026
723.857	0.0034
724.106	0.0053
724.355	0.0056
724.604	0.0064
724.853	0.0048
725.102	0.0041
725.351	0.003
725.599	0.0024
725.848	0.0029
726.097	0.002
726.345	0.0025
726.594	0.0018
726.842	0.002
727.09	0.0018
727.339	0.0018
727.587	0.0012
727.835	0.0009
728.083	-0.0003
728.331	-0.0006
728.579	-0.0012
728.827	-0.0001
729.075	0.0001
729.323	0.0015
729.571	0.0022
729.818	0.0022
730.066	0.0023
730.314	0.0024
730.561	0.0014
730.809	0.0007
731.056	0.0002
731.303	-0.0005
731.551	0.0008
731.798	0.0003
732.045	0.0007
732.292	0.001
732.539	0.0013
732.786	0.0015
733.033	0.002
733.28	0.0023
733.527	0.004
733.774	0.0032
734.021	0.0033
734.267	0.0038
734.514	0.004
734.76	0.0033
735.007	0.0051
735.253	0.0051
735.5	0.0054
735.746	0.005
735.992	0.005
736.238	0.0048
736.485	0.0059
736.731	0.0061
736.977	0.0054
737.223	0.0041
737.469	0.0057
737.715	0.0054
737.96	0.0067
738.206	0.0069
738.452	0.009
738.697	0.0083
738.943	0.0075
739.189	0.0055
739.434	0.0025
739.679	0.0029
739.925	0.0026
740.17	0.002
740.415	0.0025
740.66	0.0034
740.906	0.004
741.151	0.0041
741.396	0.0039
741.641	0.0057
741.886	0.0062
742.13	0.0059
742.375	0.0074
742.62	0.0072
742.865	0.0055
743.109	0.0059
743.354	0.0059
743.598	0.0054
743.843	0.0054
744.087	0.0053
744.331	0.0057
744.576	0.0052
744.82	0.0051
745.064	0.0046
745.308	0.0043
745.552	0.0037
745.796	0.0046
746.04	0.0041
746.284	0.0031
746.528	0.0008
746.771	0.002
747.015	0.0021
747.259	0.002
747.502	0.0016
747.746	0.0027
747.989	0.0031
748.233	0.0037
748.476	0.0045
748.719	0.0047
748.963	0.0058
749.206	0.0052
749.449	0.0057
749.692	0.004
749.935	0.0058
750.178	0.0043
750.421	0.0041
750.664	0.0048
750.906	0.0046
751.149	0.0034
751.392	0.0029
751.635	0.0011
751.877	-0.0001
752.12	-0.0003
752.362	0.0016
752.604	0.0002
752.847	0.0019
753.089	0.0021
753.331	0.0024
753.573	0.0024
753.816	0.0026
754.058	0.0035
754.3	0.0041
754.542	0.0046
754.783	0.0043
755.025	0.0037
755.267	0.0024
755.509	0.0016
755.75	0.0011
755.992	0.0025
756.234	0.0012
756.475	0.0009
756.716	0.0006
756.958	0.0004
757.199	0.0003
757.44	0.0018
757.682	0.0012
757.923	0.0005
758.164	-0.0002
758.405	0.0003
758.646	0.0006
758.887	-0
759.128	0.0015
759.369	0.0005
759.609	-0.0004
759.85	0.0002
760.091	0.0005
760.331	-0.0004
760.572	-0.0003
760.812	-0.0005
761.053	-0.0007
761.293	0.0006
761.533	0.0004
761.774	0.0014
762.014	0.0017
762.254	0.0013
762.494	0.0011
762.734	0.0006
762.974	0.0005
763.214	0.0004
763.454	0.0001
763.694	-0.0005
763.933	-0.0009
764.173	0.0012
764.413	0.0006
764.652	0.0003
764.892	0.0011
765.131	0.0012
765.371	0.0013
765.61	0.0018
765.849	0.0016
766.089	0.0022
766.328	0.0032
766.567	0.0037
766.806	0.0037
767.045	0.0042
767.284	0.0037
767.523	0.0047
767.762	0.0049
768.001	0.0041
768.239	0.0035
768.478	0.0026
768.717	0.003
768.955	0.0025
769.194	0.0013
769.432	0.002
769.671	0.0033
769.909	0.0031
770.148	0.0028
770.386	0.0037
770.624	0.0027
770.862	0.0036
771.1	0.0025
771.338	0.0026
771.576	0.0025
771.814	0.0034
772.052	0.0031
772.29	0.0035
772.528	0.0045
772.765	0.0037
773.003	0.0043
773.24	0.004
773.478	0.0035
773.716	0.0042
773.953	0.0044
774.19	0.0054
774.428	0.0044
774.665	0.0048
774.902	0.0051
775.139	0.0038
775.376	0.0039
775.613	0.0034
775.85	0.0036
776.087	0.0034
776.324	0.0033
776.561	0.0048
776.798	0.0061
777.034	0.0066
777.271	0.008
777.508	0.0084
777.744	0.0078
777.981	0.0068
778.217	0.0068
778.454	0.0062
778.69	0.0058
778.926	0.0056
779.162	0.0057
779.399	0.0041
779.635	0.004
779.871	0.0038
780.107	0.0048
780.343	0.005
780.579	0.0054
780.814	0.0047
781.05	0.0045
781.286	0.0046
781.522	0.0041
781.757	0.0068
781.993	0.0064
782.228	0.0062
782.464	0.0057
782.699	0.005
782.934	0.0044
783.17	0.0046
783.405	0.0042
783.64	0.0043
783.875	0.0035
784.11	0.0047
784.345	0.0042
784.58	0.0048
784.815	0.0044
785.05	0.0046
785.285	0.0032
785.52	0.0022
785.754	0.003
785.989	0.0018
786.223	0.0017
786.458	0.0022
786.692	0.0022
786.927	0.0014
787.161	0.0017
787.396	0.0014
787.63	0.0012
787.864	-0.0002
788.098	0.0008
788.332	0.002
788.566	0.0005
788.8	0.0006
789.034	-0.0001
789.268	0.0013
789.502	0.0012
789.736	0.0027
789.969	0.0029
790.203	0.0028
790.437	0.0018
790.67	0.0022
790.904	0.0026
791.137	0.0005
791.37	0.0011
791.604	0
791.837	0.0008
792.07	-0.0003
792.303	0.0012
792.537	-0.0005
792.77	0.0003
793.003	0.0002
793.236	-0.0008
793.469	-0.001
793.701	-0.0002
793.934	0.0003
794.167	0.0002
794.4	-0.0004
794.632	-0.0001
794.865	-0.0008
795.097	0.0004
795.33	0.0017
795.562	0.0009
795.795	0.0008
796.027	0.0006
796.259	0.0019
796.491	0.0009
796.724	0.0003
796.956	0.002
797.188	0.0022
797.42	0.0009
797.652	0.0014
797.883	0.0015
798.115	0.0002
798.347	-0.0001
798.579	-0.0009
798.81	-0.0015
799.042	-0.0016
799.274	-0.0026
799.505	-0.0015
799.737	-0.002
799.968	-0.0014
800.199	-0.0001
800.431	-0.0007
800.662	-0.0001
800.893	-0
801.124	0.0007
801.355	0.001
801.586	0.0014
801.817	0.0014
802.048	0.0011
802.279	0.001
802.51	0.001
802.741	-0.0009
802.971	-0.0005
803.202	-0.0015
803.433	-0.0006
803.663	-0.0011
803.894	-0.0008
804.124	-0
804.354	0.0003
804.585	-0.0006
804.815	-0.0003
805.045	-0.0009
805.275	-0.0002
805.506	-0.0607
805.736	0.1321
805.966	0.0547
806.196	0.0686
