Data from 03 0.2 mM BQDS 0.4 mM K2Cr2O7 1 M H2SO4 5 min_Absorbance_10-02-42-365.txt Node
Date: Wed Dec 08 10:02:42 EST 2021
User: kwabilab-user
Spectrometer: HDX00518
Trigger mode: 0
Integration Time (sec): 5.000000E-2
Scans to average: 50
Nonlinearity correction enabled: false
Boxcar width: 0
Storing dark spectrum: false
XAxis mode: Wavelengths
Number of Pixels in Spectrum: 2068
>>>>>Begin Spectral Data<<<<<
195.27	0.0251
195.642	0.0835
196.014	0.0053
196.386	0.0388
196.758	0.0466
197.129	0.0196
197.501	0.061
197.872	0.0982
198.244	0.1184
198.615	0.1056
198.986	0.1159
199.357	0.0909
199.728	0.1161
200.099	0.1092
200.47	0.1272
200.841	0.1154
201.212	0.1092
201.582	0.1089
201.953	0.1131
202.323	0.1153
202.694	0.1089
203.064	0.1223
203.434	0.098
203.804	0.1335
204.174	0.1239
204.544	0.1113
204.914	0.1269
205.284	0.1245
205.653	0.131
206.023	0.1376
206.393	0.113
206.762	0.1335
207.131	0.1212
207.501	0.132
207.87	0.1384
208.239	0.1233
208.608	0.1254
208.977	0.143
209.346	0.1478
209.715	0.1271
210.083	0.1499
210.452	0.1485
210.82	0.1514
211.189	0.1727
211.557	0.1313
211.925	0.1719
212.294	0.1817
212.662	0.1733
213.03	0.1844
213.398	0.1697
213.766	0.1889
214.133	0.2035
214.501	0.2124
214.869	0.1915
215.236	0.2417
215.604	0.2489
215.971	0.2622
216.338	0.2825
216.705	0.2887
217.072	0.3271
217.439	0.323
217.806	0.3689
218.173	0.3754
218.54	0.4073
218.907	0.4456
219.273	0.4846
219.64	0.5333
220.006	0.551
220.373	0.586
220.739	0.6301
221.105	0.6734
221.471	0.6896
221.837	0.734
222.203	0.7777
222.569	0.804
222.935	0.8262
223.3	0.8517
223.666	0.8917
224.031	0.9131
224.397	0.9295
224.762	0.9442
225.127	0.9583
225.493	0.9792
225.858	0.9867
226.223	0.9901
226.588	1.0119
226.952	1.0064
227.317	1.0156
227.682	1.0081
228.046	1.0034
228.411	1.0036
228.775	0.9998
229.14	0.992
229.504	0.9914
229.868	0.9834
230.232	0.9754
230.596	0.9712
230.96	0.9684
231.324	0.959
231.688	0.9464
232.052	0.9412
232.415	0.9329
232.779	0.9277
233.142	0.9108
233.505	0.9029
233.869	0.8971
234.232	0.8847
234.595	0.8727
234.958	0.8675
235.321	0.8555
235.684	0.8481
236.047	0.8397
236.409	0.8297
236.772	0.8195
237.134	0.8083
237.497	0.8008
237.859	0.7926
238.222	0.7848
238.584	0.7759
238.946	0.767
239.308	0.7614
239.67	0.7504
240.032	0.7459
240.393	0.7382
240.755	0.7326
241.117	0.7235
241.478	0.7165
241.84	0.7127
242.201	0.7056
242.562	0.6971
242.924	0.6928
243.285	0.6845
243.646	0.68
244.007	0.6774
244.368	0.6717
244.728	0.6663
245.089	0.661
245.45	0.6562
245.81	0.6542
246.171	0.6488
246.531	0.6424
246.891	0.64
247.252	0.6356
247.612	0.6341
247.972	0.6287
248.332	0.6274
248.692	0.6222
249.051	0.6198
249.411	0.6178
249.771	0.6121
250.13	0.6118
250.49	0.6066
250.849	0.6058
251.208	0.6061
251.568	0.6017
251.927	0.599
252.286	0.597
252.645	0.5974
253.004	0.593
253.363	0.5923
253.721	0.591
254.08	0.5881
254.439	0.5858
254.797	0.5841
255.155	0.5817
255.514	0.5826
255.872	0.5812
256.23	0.5795
256.588	0.578
256.946	0.5761
257.304	0.574
257.662	0.5727
258.02	0.5705
258.377	0.569
258.735	0.5685
259.093	0.5667
259.45	0.5656
259.807	0.5642
260.165	0.5612
260.522	0.5597
260.879	0.5577
261.236	0.5565
261.593	0.5555
261.95	0.5513
262.306	0.5513
262.663	0.55
263.02	0.5476
263.376	0.5453
263.733	0.5431
264.089	0.5424
264.445	0.5398
264.802	0.5381
265.158	0.5365
265.514	0.5336
265.87	0.5317
266.226	0.5304
266.581	0.5286
266.937	0.525
267.293	0.5236
267.648	0.5221
268.004	0.5193
268.359	0.5169
268.714	0.5128
269.07	0.5115
269.425	0.5095
269.78	0.5091
270.135	0.5046
270.49	0.5027
270.844	0.4993
271.199	0.4957
271.554	0.4951
271.908	0.4913
272.263	0.4875
272.617	0.4859
272.972	0.4827
273.326	0.4795
273.68	0.4784
274.034	0.4733
274.388	0.4718
274.742	0.4681
275.096	0.4643
275.45	0.4602
275.803	0.4572
276.157	0.4547
276.51	0.4518
276.864	0.4486
277.217	0.4464
277.571	0.441
277.924	0.4371
278.277	0.4349
278.63	0.431
278.983	0.427
279.336	0.424
279.688	0.4191
280.041	0.4161
280.394	0.413
280.746	0.4092
281.099	0.4049
281.451	0.4015
281.803	0.3972
282.156	0.3934
282.508	0.3895
282.86	0.3863
283.212	0.3824
283.564	0.3781
283.916	0.3745
284.267	0.3719
284.619	0.3671
284.971	0.3631
285.322	0.3594
285.673	0.3565
286.025	0.3529
286.376	0.3484
286.727	0.3441
287.078	0.3402
287.429	0.3387
287.78	0.3334
288.131	0.3287
288.482	0.3256
288.833	0.3218
289.183	0.3179
289.534	0.3143
289.884	0.3102
290.235	0.3065
290.585	0.3025
290.935	0.2991
291.285	0.2954
291.635	0.292
291.985	0.2876
292.335	0.2834
292.685	0.2804
293.035	0.2782
293.384	0.2728
293.734	0.2698
294.083	0.2655
294.433	0.2618
294.782	0.2585
295.131	0.2553
295.48	0.2525
295.829	0.2489
296.179	0.2443
296.527	0.2415
296.876	0.2385
297.225	0.2367
297.574	0.2316
297.922	0.2295
298.271	0.2264
298.619	0.2219
298.968	0.2197
299.316	0.2163
299.664	0.2141
300.012	0.2113
300.36	0.2079
300.708	0.2055
301.056	0.203
301.404	0.2007
301.752	0.198
302.099	0.1961
302.447	0.1935
302.794	0.1912
303.142	0.1888
303.489	0.1868
303.836	0.1843
304.183	0.1833
304.531	0.1808
304.878	0.1796
305.224	0.177
305.571	0.1759
305.918	0.1741
306.265	0.1723
306.611	0.1712
306.958	0.1701
307.304	0.1682
307.651	0.1672
307.997	0.1658
308.343	0.1642
308.689	0.1636
309.035	0.1627
309.381	0.1619
309.727	0.1606
310.073	0.1604
310.419	0.1591
310.764	0.1583
311.11	0.1581
311.455	0.1573
311.801	0.1566
312.146	0.1563
312.491	0.1554
312.837	0.1551
313.182	0.1562
313.527	0.1547
313.872	0.1544
314.216	0.1549
314.561	0.1542
314.906	0.1546
315.251	0.1547
315.595	0.1542
315.94	0.1542
316.284	0.1546
316.628	0.1539
316.972	0.1541
317.317	0.1549
317.661	0.1556
318.005	0.1557
318.348	0.1559
318.692	0.1557
319.036	0.1568
319.38	0.1574
319.723	0.1576
320.067	0.1578
320.41	0.1588
320.754	0.1592
321.097	0.1603
321.44	0.1608
321.783	0.1613
322.126	0.1621
322.469	0.1635
322.812	0.1641
323.155	0.165
323.498	0.1661
323.84	0.1671
324.183	0.1686
324.525	0.169
324.868	0.1694
325.21	0.1708
325.552	0.1726
325.894	0.1722
326.236	0.1744
326.578	0.1753
326.92	0.1767
327.262	0.1766
327.604	0.1781
327.946	0.1795
328.287	0.1811
328.629	0.1817
328.97	0.183
329.312	0.1846
329.653	0.1851
329.994	0.1868
330.335	0.188
330.676	0.189
331.017	0.1899
331.358	0.1917
331.699	0.193
332.04	0.1947
332.38	0.195
332.721	0.1976
333.061	0.1979
333.402	0.1991
333.742	0.2002
334.083	0.202
334.423	0.2027
334.763	0.2034
335.103	0.2051
335.443	0.2053
335.783	0.2073
336.123	0.2073
336.462	0.2085
336.802	0.21
337.141	0.2107
337.481	0.2112
337.82	0.2125
338.16	0.2126
338.499	0.2144
338.838	0.2149
339.177	0.2167
339.516	0.2176
339.855	0.2183
340.194	0.2193
340.533	0.2203
340.872	0.2213
341.21	0.2224
341.549	0.2227
341.887	0.2234
342.226	0.2242
342.564	0.2237
342.902	0.2243
343.24	0.2241
343.578	0.2245
343.916	0.2258
344.254	0.2253
344.592	0.2259
344.93	0.2263
345.268	0.226
345.605	0.2266
345.943	0.2261
346.28	0.2265
346.618	0.227
346.955	0.2266
347.292	0.2269
347.629	0.2277
347.966	0.2278
348.303	0.2271
348.64	0.2274
348.977	0.2267
349.314	0.2279
349.65	0.227
349.987	0.2281
350.324	0.2269
350.66	0.2262
350.996	0.2266
351.333	0.2255
351.669	0.2245
352.005	0.2247
352.341	0.2231
352.677	0.2226
353.013	0.2211
353.349	0.2212
353.685	0.2196
354.02	0.2189
354.356	0.2179
354.691	0.2167
355.027	0.2168
355.362	0.2152
355.697	0.2149
356.033	0.2132
356.368	0.213
356.703	0.2126
357.038	0.2109
357.373	0.2103
357.707	0.2094
358.042	0.2085
358.377	0.2076
358.711	0.2062
359.046	0.2059
359.38	0.2046
359.715	0.2036
360.049	0.2024
360.383	0.2016
360.717	0.2004
361.051	0.1981
361.385	0.1976
361.719	0.1953
362.053	0.1945
362.387	0.1923
362.72	0.1908
363.054	0.1894
363.387	0.1873
363.721	0.1864
364.054	0.1842
364.387	0.1822
364.721	0.1816
365.054	0.1797
365.387	0.1776
365.72	0.1765
366.053	0.1742
366.385	0.1734
366.718	0.1721
367.051	0.1708
367.383	0.169
367.716	0.1675
368.048	0.1674
368.381	0.1654
368.713	0.1635
369.045	0.1628
369.377	0.1617
369.709	0.1606
370.041	0.1585
370.373	0.1578
370.705	0.1559
371.037	0.1541
371.368	0.1528
371.7	0.1516
372.031	0.1506
372.363	0.1487
372.694	0.1464
373.025	0.1443
373.356	0.1428
373.688	0.1405
374.019	0.1389
374.35	0.1376
374.68	0.1352
375.011	0.1333
375.342	0.1313
375.673	0.1294
376.003	0.1275
376.334	0.126
376.664	0.1246
376.995	0.1225
377.325	0.1217
377.655	0.1208
377.985	0.1192
378.315	0.1184
378.645	0.1164
378.975	0.1155
379.305	0.1139
379.635	0.1127
379.964	0.1116
380.294	0.1103
380.623	0.1089
380.953	0.1075
381.282	0.1065
381.611	0.1058
381.941	0.1041
382.27	0.1026
382.599	0.1012
382.928	0.1006
383.257	0.0994
383.585	0.0978
383.914	0.0963
384.243	0.0946
384.571	0.0928
384.9	0.0913
385.228	0.0901
385.557	0.0888
385.885	0.0872
386.213	0.0854
386.541	0.0847
386.869	0.0825
387.197	0.0804
387.525	0.0793
387.853	0.0784
388.181	0.078
388.508	0.0768
388.836	0.075
389.164	0.0741
389.491	0.0731
389.818	0.072
390.146	0.0703
390.473	0.0689
390.8	0.0686
391.127	0.0672
391.454	0.0663
391.781	0.065
392.108	0.0645
392.435	0.0635
392.761	0.0629
393.088	0.0619
393.415	0.061
393.741	0.0603
394.067	0.0601
394.394	0.0594
394.72	0.0585
395.046	0.0572
395.372	0.0561
395.698	0.055
396.024	0.0547
396.35	0.0543
396.676	0.0538
397.001	0.0535
397.327	0.0521
397.653	0.0508
397.978	0.0503
398.303	0.049
398.629	0.0485
398.954	0.048
399.279	0.048
399.604	0.0468
399.929	0.046
400.254	0.0459
400.579	0.0457
400.904	0.0445
401.229	0.0444
401.553	0.0432
401.878	0.0423
402.202	0.0425
402.527	0.0418
402.851	0.0421
403.175	0.0407
403.5	0.0408
403.824	0.0409
404.148	0.0403
404.472	0.0403
404.796	0.0392
405.119	0.0392
405.443	0.0391
405.767	0.0381
406.09	0.0379
406.414	0.0385
406.737	0.0378
407.061	0.0385
407.384	0.038
407.707	0.0374
408.03	0.0378
408.353	0.0377
408.676	0.038
408.999	0.0367
409.322	0.0371
409.645	0.0375
409.968	0.0367
410.29	0.037
410.613	0.0365
410.935	0.0367
411.258	0.0369
411.58	0.0361
411.902	0.0365
412.224	0.037
412.546	0.0365
412.868	0.0361
413.19	0.0363
413.512	0.0361
413.834	0.0367
414.156	0.0366
414.477	0.0365
414.799	0.0358
415.121	0.0369
415.442	0.0362
415.763	0.0367
416.085	0.0364
416.406	0.0369
416.727	0.0369
417.048	0.0366
417.369	0.0366
417.69	0.0363
418.011	0.0366
418.331	0.0369
418.652	0.0364
418.973	0.0369
419.293	0.0368
419.614	0.0364
419.934	0.0366
420.254	0.037
420.574	0.0362
420.895	0.0366
421.215	0.0366
421.535	0.0362
421.855	0.0368
422.174	0.0365
422.494	0.0368
422.814	0.0372
423.134	0.0373
423.453	0.0372
423.773	0.0365
424.092	0.0368
424.411	0.037
424.731	0.0373
425.05	0.0373
425.369	0.0373
425.688	0.0376
426.007	0.0381
426.326	0.0378
426.644	0.0383
426.963	0.038
427.282	0.0381
427.6	0.0378
427.919	0.0381
428.237	0.0389
428.556	0.0388
428.874	0.0384
429.192	0.0377
429.51	0.0384
429.828	0.0385
430.146	0.0384
430.464	0.0384
430.782	0.0379
431.1	0.0387
431.418	0.0384
431.735	0.0382
432.053	0.0388
432.37	0.0389
432.688	0.0388
433.005	0.0389
433.322	0.0385
433.639	0.0385
433.957	0.0388
434.274	0.0394
434.591	0.0393
434.907	0.0395
435.224	0.0389
435.541	0.0393
435.858	0.0399
436.174	0.0406
436.491	0.0397
436.807	0.0389
437.124	0.0389
437.44	0.0389
437.756	0.0385
438.072	0.0379
438.388	0.0396
438.704	0.0384
439.02	0.0394
439.336	0.039
439.652	0.0388
439.968	0.0391
440.283	0.0389
440.599	0.0385
440.914	0.0386
441.23	0.0387
441.545	0.0386
441.86	0.0394
442.175	0.0393
442.491	0.0384
442.806	0.0385
443.121	0.039
443.435	0.0383
443.75	0.0384
444.065	0.0384
444.38	0.0389
444.694	0.0386
445.009	0.0389
445.323	0.0388
445.638	0.0382
445.952	0.0388
446.266	0.0382
446.58	0.0385
446.894	0.0386
447.208	0.0386
447.522	0.0385
447.836	0.0368
448.15	0.0374
448.464	0.0373
448.777	0.0371
449.091	0.0371
449.404	0.0378
449.718	0.0384
450.031	0.0375
450.345	0.0375
450.658	0.0374
450.971	0.0373
451.284	0.037
451.597	0.0373
451.91	0.0375
452.223	0.0368
452.535	0.0376
452.848	0.0367
453.161	0.0366
453.473	0.0376
453.786	0.037
454.098	0.0364
454.411	0.036
454.723	0.0361
455.035	0.0363
455.347	0.0361
455.659	0.0362
455.971	0.037
456.283	0.0365
456.595	0.0363
456.907	0.0357
457.218	0.0357
457.53	0.0356
457.841	0.0349
458.153	0.0351
458.464	0.0342
458.776	0.0339
459.087	0.0345
459.398	0.0339
459.709	0.0338
460.02	0.0338
460.331	0.0335
460.642	0.0337
460.953	0.0334
461.263	0.0338
461.574	0.0332
461.885	0.0331
462.195	0.0337
462.506	0.0334
462.816	0.0333
463.126	0.032
463.437	0.0334
463.747	0.0318
464.057	0.0323
464.367	0.032
464.677	0.0313
464.987	0.0316
465.296	0.0318
465.606	0.0308
465.916	0.0308
466.225	0.0313
466.535	0.0306
466.844	0.0305
467.154	0.0298
467.463	0.0303
467.772	0.0303
468.081	0.0292
468.39	0.0296
468.699	0.0297
469.008	0.0301
469.317	0.0291
469.626	0.0286
469.935	0.029
470.243	0.0292
470.552	0.0295
470.86	0.0283
471.169	0.0286
471.477	0.0292
471.785	0.0292
472.093	0.0284
472.402	0.0282
472.71	0.0276
473.018	0.027
473.326	0.0267
473.633	0.0272
473.941	0.0269
474.249	0.0261
474.556	0.0261
474.864	0.0258
475.171	0.0255
475.479	0.0254
475.786	0.026
476.094	0.0254
476.401	0.0256
476.708	0.0251
477.015	0.0252
477.322	0.0257
477.629	0.0246
477.936	0.0245
478.242	0.0239
478.549	0.0243
478.856	0.0236
479.162	0.0245
479.469	0.0239
479.775	0.0238
480.081	0.023
480.388	0.0233
480.694	0.023
481	0.0223
481.306	0.0227
481.612	0.0222
481.918	0.0211
482.224	0.0224
482.53	0.0222
482.835	0.0217
483.141	0.0204
483.446	0.0209
483.752	0.0209
484.057	0.0201
484.363	0.0199
484.668	0.0196
484.973	0.019
485.278	0.0192
485.583	0.0186
485.888	0.0191
486.193	0.0194
486.498	0.019
486.803	0.0193
487.107	0.0196
487.412	0.0185
487.717	0.018
488.021	0.0179
488.325	0.0177
488.63	0.0172
488.934	0.018
489.238	0.018
489.542	0.017
489.846	0.0163
490.15	0.0181
490.454	0.017
490.758	0.0173
491.062	0.0164
491.366	0.0159
491.669	0.0164
491.973	0.0159
492.276	0.016
492.58	0.0145
492.883	0.0158
493.186	0.016
493.489	0.0155
493.792	0.0149
494.096	0.0155
494.399	0.0152
494.701	0.0159
495.004	0.0146
495.307	0.0141
495.61	0.014
495.912	0.0144
496.215	0.0129
496.517	0.0136
496.82	0.0133
497.122	0.013
497.424	0.0125
497.727	0.0128
498.029	0.0136
498.331	0.0134
498.633	0.013
498.935	0.0122
499.237	0.0126
499.538	0.0122
499.84	0.0116
500.142	0.0131
500.443	0.0117
500.745	0.0125
501.046	0.0122
501.348	0.0114
501.649	0.0116
501.95	0.0106
502.251	0.0109
502.552	0.0105
502.853	0.0102
503.154	0.0102
503.455	0.0101
503.756	0.0106
504.057	0.0104
504.357	0.0105
504.658	0.0102
504.958	0.0095
505.259	0.0105
505.559	0.0102
505.859	0.01
506.16	0.0093
506.46	0.0096
506.76	0.01
507.06	0.0094
507.36	0.009
507.66	0.009
507.96	0.0093
508.259	0.0091
508.559	0.0078
508.859	0.0094
509.158	0.0085
509.457	0.008
509.757	0.0094
510.056	0.0088
510.355	0.0078
510.655	0.0074
510.954	0.008
511.253	0.0087
511.552	0.0078
511.851	0.0071
512.149	0.007
512.448	0.0074
512.747	0.0075
513.045	0.0072
513.344	0.0074
513.642	0.0079
513.941	0.0077
514.239	0.0074
514.537	0.0064
514.836	0.007
515.134	0.0064
515.432	0.0064
515.73	0.0077
516.028	0.0063
516.326	0.0066
516.623	0.0062
516.921	0.0058
517.219	0.0082
517.516	0.0063
517.814	0.0057
518.111	0.007
518.409	0.007
518.706	0.0068
519.003	0.0062
519.3	0.0065
519.597	0.0062
519.894	0.0065
520.191	0.0071
520.488	0.0058
520.785	0.0061
521.082	0.0057
521.378	0.0054
521.675	0.0044
521.971	0.0053
522.268	0.0049
522.564	0.005
522.861	0.0054
523.157	0.0057
523.453	0.0052
523.749	0.0052
524.045	0.0064
524.341	0.0049
524.637	0.0049
524.933	0.0043
525.229	0.0052
525.524	0.0035
525.82	0.0058
526.115	0.0046
526.411	0.0043
526.706	0.0049
527.002	0.0047
527.297	0.0029
527.592	0.0055
527.887	0.0056
528.182	0.0054
528.477	0.006
528.772	0.0052
529.067	0.0057
529.362	0.0047
529.657	0.0052
529.951	0.0048
530.246	0.0039
530.54	0.0033
530.835	0.0031
531.129	0.0025
531.423	0.0043
531.718	0.0034
532.012	0.0043
532.306	0.0025
532.6	0.0031
532.894	0.0031
533.188	0.0044
533.482	0.0027
533.775	0.0035
534.069	0.0041
534.363	0.002
534.656	0.0024
534.95	0.0021
535.243	0.0026
535.536	0.0027
535.83	0.0039
536.123	0.0021
536.416	0.0029
536.709	0.0025
537.002	0.0042
537.295	0.0027
537.588	0.0046
537.881	0.0033
538.173	0.0035
538.466	0.0019
538.759	0.0021
539.051	0.0029
539.344	0.0024
539.636	0.0022
539.928	0.0026
540.22	0.0027
540.513	0.0024
540.805	0.0031
541.097	0.0035
541.389	0.0026
541.681	0.0021
541.972	0.0035
542.264	0.0016
542.556	0.0025
542.847	0.0027
543.139	0.0039
543.431	0.0045
543.722	0.0029
544.013	0.005
544.305	0.0042
544.596	0.0051
544.887	0.0035
545.178	0.0027
545.469	0.0041
545.76	0.0023
546.051	0.0031
546.342	0.0049
546.632	0.0032
546.923	0.0036
547.214	0.0038
547.504	0.0029
547.795	0.0029
548.085	0.0028
548.375	0.0029
548.666	0.0033
548.956	0.0019
549.246	0.0035
549.536	0.0028
549.826	0.0028
550.116	0.0035
550.406	0.0037
550.695	0.0046
550.985	0.0034
551.275	0.0047
551.564	0.0037
551.854	0.0047
552.143	0.0033
552.433	0.0036
552.722	0.0032
553.011	0.0033
553.3	0.0034
553.589	0.0038
553.879	0.003
554.167	0.0031
554.456	0.0036
554.745	0.0028
555.034	0.0035
555.323	0.0015
555.611	0.002
555.9	0.0031
556.188	0.0032
556.477	0.0026
556.765	0.0018
557.053	0.0022
557.342	0.0029
557.63	0.0038
557.918	0.0031
558.206	0.0024
558.494	0.0034
558.782	0.0028
559.069	0.0035
559.357	0.0029
559.645	0.002
559.932	0.0029
560.22	0.0043
560.507	0.0037
560.795	0.0026
561.082	0.0028
561.37	0.0028
561.657	0.0033
561.944	0.0028
562.231	0.0026
562.518	0.0021
562.805	0.0032
563.092	0.0028
563.379	0.0035
563.665	0.0022
563.952	0.0027
564.239	0.0032
564.525	0.0032
564.811	0.004
565.098	0.0034
565.384	0.0043
565.67	0.0043
565.957	0.0039
566.243	0.0042
566.529	0.0046
566.815	0.0047
567.101	0.004
567.387	0.0028
567.672	0.0031
567.958	0.0033
568.244	0.0035
568.529	0.0035
568.815	0.0031
569.1	0.0042
569.386	0.0034
569.671	0.0028
569.956	0.003
570.242	0.0033
570.527	0.0041
570.812	0.0036
571.097	0.0038
571.382	0.0028
571.666	0.0025
571.951	0.003
572.236	0.0031
572.521	0.0026
572.805	0.003
573.09	0.0029
573.374	0.0026
573.659	0.002
573.943	0.0029
574.227	0.0022
574.511	0.0035
574.795	0.0033
575.079	0.0025
575.363	0.0026
575.647	0.0033
575.931	0.0028
576.215	0.0025
576.499	0.0026
576.782	0.0026
577.066	0.0018
577.349	0.0023
577.633	0.0036
577.916	0.0034
578.2	0.0032
578.483	0.0033
578.766	0.002
579.049	0.0031
579.332	0.0021
579.615	0.0025
579.898	0.0027
580.181	0.0028
580.464	0.0025
580.746	0.0016
581.029	0.0032
581.312	0.0022
581.594	0.0023
581.877	0.0023
582.159	0.0032
582.441	0.0029
582.724	0.0028
583.006	0.0023
583.288	0.0013
583.57	0.0018
583.852	0.0012
584.134	0.0025
584.416	0.0034
584.697	0.0022
584.979	0.0024
585.261	0.0028
585.542	0.0024
585.824	0.0025
586.105	0.0031
586.387	0.0021
586.668	0.0026
586.949	0.0027
587.231	0.0018
587.512	0.0026
587.793	0.0026
588.074	0.0025
588.355	0.0027
588.636	0.0032
588.916	0.0032
589.197	0.0034
589.478	0.0035
589.758	0.0029
590.039	0.0027
590.319	0.0029
590.6	0.0024
590.88	0.0024
591.16	0.0026
591.441	0.0025
591.721	0.0029
592.001	0.0033
592.281	0.0024
592.561	0.0033
592.841	0.0033
593.12	0.0025
593.4	0.0017
593.68	0.0024
593.959	0.0024
594.239	0.0032
594.518	0.0028
594.798	0.0026
595.077	0.0035
595.356	0.0027
595.636	0.0026
595.915	0.0037
596.194	0.0031
596.473	0.0031
596.752	0.0022
597.031	0.0025
597.31	0.0024
597.588	0.0017
597.867	0.0017
598.146	0.0019
598.424	0.0021
598.703	0.0026
598.981	0.0024
599.259	0.0022
599.538	0.0028
599.816	0.0031
600.094	0.0027
600.372	0.0031
600.65	0.0029
600.928	0.0033
601.206	0.0037
601.484	0.0029
601.762	0.0032
602.04	0.0028
602.317	0.003
602.595	0.0024
602.872	0.0029
603.15	0.0018
603.427	0.0026
603.704	0.0021
603.982	0.0019
604.259	0.0014
604.536	0.002
604.813	0.0018
605.09	0.0023
605.367	0.0019
605.644	0.0021
605.921	0.0022
606.197	0.002
606.474	0.0015
606.751	0.0025
607.027	0.0025
607.304	0.0015
607.58	0.003
607.856	0.0016
608.133	0.0029
608.409	0.0029
608.685	0.0031
608.961	0.0036
609.237	0.0029
609.513	0.0027
609.789	0.0025
610.065	0.0018
610.341	0.0023
610.616	0.003
610.892	0.0036
611.167	0.0033
611.443	0.0031
611.718	0.0022
611.994	0.0026
612.269	0.0022
612.544	0.002
612.819	0.0021
613.095	0.0027
613.37	0.0023
613.645	0.0019
613.919	0.002
614.194	0.0017
614.469	0.0015
614.744	0.0012
615.019	0.0012
615.293	-0.0001
615.568	0.0007
615.842	0.0005
616.116	0.0005
616.391	0.0002
616.665	0.0031
616.939	0.0015
617.213	0.0021
617.488	0.0015
617.762	0.0022
618.035	0.0019
618.309	0.0017
618.583	0.001
618.857	0.002
619.131	0.0024
619.404	0.0006
619.678	0.0015
619.951	0.0017
620.225	0.0008
620.498	0.001
620.771	0.0022
621.045	0.0025
621.318	0.0019
621.591	0.0017
621.864	0.0009
622.137	0.0006
622.41	0.0011
622.683	0.0002
622.956	0.0017
623.228	0.0022
623.501	0.0026
623.774	0.0027
624.046	0.0019
624.319	0.0019
624.591	0.0009
624.863	0.002
625.136	0.002
625.408	0.0023
625.68	0.0021
625.952	0.0024
626.224	0.002
626.496	0.0021
626.768	0.0012
627.04	0.0018
627.311	0.0013
627.583	0.0017
627.855	0.0012
628.126	0.0023
628.398	0.003
628.669	0.0027
628.941	0.0018
629.212	0.0008
629.483	0.0015
629.755	0.0012
630.026	0.0006
630.297	0.0019
630.568	0.0007
630.839	0.0007
631.11	0.0005
631.38	0
631.651	-0.0004
631.922	-0.0001
632.192	-0.0009
632.463	0.0003
632.733	0.0005
633.004	0.0008
633.274	-0
633.545	0.0012
633.815	0.0033
634.085	0.0021
634.355	0.0017
634.625	0.0032
634.895	0.0007
635.165	0.0004
635.435	0.0011
635.705	0.0013
635.974	0.0011
636.244	0.0018
636.514	0.002
636.783	0.0014
637.053	0.0025
637.322	0.0014
637.591	0.0021
637.861	0.0012
638.13	0.0026
638.399	0.0014
638.668	0.0028
638.937	0.0012
639.206	0.0024
639.475	0.0014
639.744	0.002
640.013	0.0026
640.281	0.0033
640.55	0.0031
640.819	0.0028
641.087	0.0033
641.356	0.0021
641.624	0.002
641.892	0.0025
642.161	0.0026
642.429	0.003
642.697	0.0018
642.965	0.0034
643.233	0.0038
643.501	0.0018
643.769	0.0012
644.037	0.0016
644.305	0.0014
644.572	-0.0006
644.84	-0.0003
645.108	0.0003
645.375	0.0002
645.643	0.0003
645.91	-0.0003
646.177	0.0032
646.445	0.0045
646.712	0.005
646.979	0.0043
647.246	0.0042
647.513	0.0036
647.78	0.0036
648.047	0.0044
648.314	0.0029
648.58	0.0028
648.847	0.0011
649.114	0.0006
649.38	0.0003
649.647	0.0004
649.913	0.0004
650.18	0.0012
650.446	0.0011
650.712	0.0021
650.978	0.0022
651.245	0.0028
651.511	0.0024
651.777	0.002
652.043	0.003
652.309	0.0023
652.574	0.0033
652.84	0.0016
653.106	0.0011
653.371	-0.0004
653.637	0.0018
653.903	0.0026
654.168	0.0026
654.433	0.0027
654.699	0.0035
654.964	0.0036
655.229	0.0029
655.494	0.0029
655.759	0.0014
656.024	0.0004
656.289	-0
656.554	-0.0019
656.819	-0.0005
657.084	0.0016
657.349	0.0028
657.613	0.0033
657.878	0.002
658.142	0.0029
658.407	0.0029
658.671	0.0024
658.936	0.0016
659.2	0.0008
659.464	0.001
659.728	0.0014
659.992	0.0019
660.256	0.0012
660.52	0.0006
660.784	0.0006
661.048	0.0005
661.312	-0.0002
661.575	-0.0006
661.839	-0.002
662.103	-0.0012
662.366	-0.0016
662.63	-0.0007
662.893	0.0002
663.156	-0.0002
663.42	-0.0002
663.683	0.0002
663.946	0.0014
664.209	0.0027
664.472	0.0023
664.735	0.0024
664.998	0.0016
665.261	0.0014
665.524	0.0016
665.786	0.0008
666.049	0.0012
666.312	0.0012
666.574	0.0019
666.837	0.0013
667.099	0.0005
667.361	0.0005
667.624	0.0002
667.886	0.0004
668.148	0.0003
668.41	0.002
668.672	0.0012
668.934	0.0014
669.196	0.0017
669.458	0.0015
669.72	0.0027
669.982	0.0022
670.243	0.0026
670.505	0.0025
670.766	0.002
671.028	0.0026
671.289	0.0017
671.551	0.0011
671.812	-0.0001
672.073	0.0011
672.334	0.0002
672.596	0.0009
672.857	-0.0006
673.118	0.0001
673.379	-0.0003
673.639	-0.0001
673.9	0.0001
674.161	-0.0018
674.422	-0.0022
674.682	-0.0017
674.943	-0.0023
675.203	0.0003
675.464	-0
675.724	0.0007
675.985	0.0009
676.245	0.0016
676.505	0.0021
676.765	0.0018
677.025	0.002
677.285	0.0023
677.545	0.004
677.805	0.003
678.065	0.0033
678.325	0.0028
678.585	0.0025
678.844	0.0016
679.104	0.0021
679.363	0.0023
679.623	0.0025
679.882	0.0029
680.142	0.0031
680.401	0.0036
680.66	0.0039
680.919	0.0041
681.178	0.0049
681.437	0.0048
681.696	0.0044
681.955	0.0039
682.214	0.0044
682.473	0.0043
682.732	0.0033
682.99	0.0025
683.249	0.0039
683.508	0.0032
683.766	0.0034
684.024	0.0028
684.283	0.0037
684.541	0.0028
684.799	0.003
685.058	0.0022
685.316	0.0016
685.574	0.0031
685.832	0.0039
686.09	0.0027
686.348	0.0046
686.606	0.0036
686.863	0.0039
687.121	0.0048
687.379	0.0034
687.636	0.0035
687.894	0.004
688.151	0.0043
688.409	0.0046
688.666	0.0032
688.923	0.004
689.181	0.0033
689.438	0.0025
689.695	0.0022
689.952	0.0008
690.209	0.0015
690.466	0.0014
690.723	0.0034
690.979	0.0023
691.236	0.0018
691.493	0.0017
691.75	0.0026
692.006	0.0029
692.263	0.0028
692.519	0.0035
692.775	0.003
693.032	0.0013
693.288	0.0023
693.544	0.0027
693.8	0.0022
694.056	0.0021
694.313	0.0022
694.568	0.0018
694.824	0.0027
695.08	0.0035
695.336	0.0037
695.592	0.0025
695.847	0.0026
696.103	0.0027
696.359	0.002
696.614	0.0022
696.869	0.0011
697.125	0.0005
697.38	-0.0004
697.635	-0.001
697.891	-0.0009
698.146	0.0005
698.401	0.0012
698.656	0.0005
698.911	0.0012
699.166	0.0007
699.42	0.0011
699.675	0.0002
699.93	-0.0003
700.185	0.0007
700.439	0.0017
700.694	0.0019
700.948	0.0019
701.203	0.0016
701.457	0.002
701.711	0.0012
701.965	0.0008
702.22	-0.0004
702.474	-0
702.728	-0
702.982	-0.0008
703.236	0
703.49	0
703.743	0.0002
703.997	0.0007
704.251	0.0009
704.504	0.0014
704.758	0.0006
705.012	-0.0002
705.265	-0.0001
705.518	0.0002
705.772	-0.0006
706.025	0.0005
706.278	0.0002
706.531	-0.0002
706.785	-0.0006
707.038	-0.0004
707.291	-0.0005
707.543	-0.0001
707.796	-0.001
708.049	-0.0016
708.302	-0.0016
708.555	-0.0007
708.807	0.0003
709.06	-0.0005
709.312	-0.0017
709.565	-0.0017
709.817	-0.002
710.069	-0.0013
710.322	-0.0014
710.574	-0.0008
710.826	-0
711.078	-0.0003
711.33	0.0003
711.582	-0.0003
711.834	0.0012
712.086	0.0008
712.338	0.0014
712.59	0.0017
712.841	0.002
713.093	0.0008
713.344	0.0009
713.596	0.0018
713.847	0.0012
714.099	0.0016
714.35	0.0017
714.601	0.0021
714.853	0.0027
715.104	0.0028
715.355	0.0009
715.606	0.0022
715.857	0.0016
716.108	0.0027
716.359	0.0027
716.609	0.0033
716.86	0.002
717.111	0.0011
717.361	-0.0001
717.612	-0
717.863	0.0007
718.113	-0.0004
718.363	0.0003
718.614	-0
718.864	0.0012
719.114	0.001
719.364	0.0009
719.614	-0
719.865	-0.0011
720.114	-0.0006
720.364	0.0002
720.614	0.0012
720.864	0.0019
721.114	0.0018
721.364	0.0026
721.613	0.0029
721.863	0.0037
722.112	0.0031
722.362	0.0037
722.611	0.0028
722.86	0.0018
723.11	0.0013
723.359	0.002
723.608	0.0021
723.857	0.0027
724.106	0.0044
724.355	0.005
724.604	0.005
724.853	0.004
725.102	0.0035
725.351	0.0026
725.599	0.0028
725.848	0.0023
726.097	0.0021
726.345	0.0022
726.594	0.0024
726.842	0.0016
727.09	0.0022
727.339	0.0018
727.587	0.0008
727.835	-0.0001
728.083	-0.0008
728.331	-0.0006
728.579	-0.0014
728.827	-0.001
729.075	-0.0004
729.323	0.0011
729.571	0.0012
729.818	0.0019
730.066	0.0015
730.314	0.0023
730.561	0.0007
730.809	0.0007
731.056	-0.0004
731.303	-0.0008
731.551	-0.0001
731.798	0.0004
732.045	0.0003
732.292	0.0003
732.539	0.0008
732.786	0.0011
733.033	0.0022
733.28	0.0011
733.527	0.0031
733.774	0.0021
734.021	0.0025
734.267	0.0033
734.514	0.0034
734.76	0.0032
735.007	0.004
735.253	0.0048
735.5	0.0046
735.746	0.0054
735.992	0.0043
736.238	0.0046
736.485	0.0059
736.731	0.0049
736.977	0.0052
737.223	0.0039
737.469	0.0047
737.715	0.0046
737.96	0.0061
738.206	0.0059
738.452	0.0079
738.697	0.0075
738.943	0.0063
739.189	0.0042
739.434	0.002
739.679	0.0014
739.925	0.0012
740.17	0.0016
740.415	0.002
740.66	0.0024
740.906	0.0035
741.151	0.003
741.396	0.003
741.641	0.0059
741.886	0.0055
742.13	0.0055
742.375	0.0061
742.62	0.0077
742.865	0.005
743.109	0.0049
743.354	0.0047
743.598	0.0045
743.843	0.0048
744.087	0.0048
744.331	0.0055
744.576	0.0047
744.82	0.0049
745.064	0.0044
745.308	0.0028
745.552	0.0039
745.796	0.0042
746.04	0.0042
746.284	0.0022
746.528	0.0008
746.771	0.0018
747.015	0.0015
747.259	0.0018
747.502	0.002
747.746	0.0028
747.989	0.0033
748.233	0.0035
748.476	0.0043
748.719	0.0048
748.963	0.0053
749.206	0.0044
749.449	0.0051
749.692	0.0037
749.935	0.0051
750.178	0.0033
750.421	0.0037
750.664	0.0041
750.906	0.0038
751.149	0.0035
751.392	0.0029
751.635	0.0012
751.877	0.0003
752.12	0.0003
752.362	0.0008
752.604	0.0007
752.847	0.0016
753.089	0.0019
753.331	0.0022
753.573	0.0026
753.816	0.0024
754.058	0.0029
754.3	0.004
754.542	0.0043
754.783	0.0044
755.025	0.0043
755.267	0.0027
755.509	0.0016
755.75	0.0014
755.992	0.0019
756.234	0.0017
756.475	0.0007
756.716	0.0005
756.958	-0.0001
757.199	0.0001
757.44	0.0013
757.682	0.0014
757.923	-0.0004
758.164	0.0002
758.405	-0.0002
758.646	-0
758.887	0.0008
759.128	0.0002
759.369	0.0001
759.609	-0.0003
759.85	-0.0006
760.091	0.001
760.331	-0.0004
760.572	0.0002
760.812	-0.0007
761.053	-0.0015
761.293	0
761.533	-0.0003
761.774	0.0002
762.014	0.0003
762.254	0.0006
762.494	0.0004
762.734	0.0004
762.974	0.0003
763.214	-0.0005
763.454	-0.0004
763.694	-0.0004
763.933	-0.0014
764.173	-0.0001
764.413	-0
764.652	0.0008
764.892	0.0009
765.131	0.0008
765.371	0.001
765.61	0.0022
765.849	0.0016
766.089	0.0024
766.328	0.0031
766.567	0.0028
766.806	0.0032
767.045	0.0035
767.284	0.0028
767.523	0.0038
767.762	0.0037
768.001	0.0034
768.239	0.0039
768.478	0.0018
768.717	0.0022
768.955	0.0025
769.194	0.0022
769.432	0.0014
769.671	0.0023
769.909	0.0023
770.148	0.0025
770.386	0.0023
770.624	0.0017
770.862	0.002
771.1	0.0021
771.338	0.0015
771.576	0.0021
771.814	0.0023
772.052	0.0033
772.29	0.0028
772.528	0.0036
772.765	0.0037
773.003	0.0036
773.24	0.0035
773.478	0.0029
773.716	0.0044
773.953	0.0049
774.19	0.0052
774.428	0.0046
774.665	0.0051
774.902	0.0056
775.139	0.0034
775.376	0.0041
775.613	0.0037
775.85	0.0039
776.087	0.0035
776.324	0.0032
776.561	0.0044
776.798	0.0055
777.034	0.0073
777.271	0.0079
777.508	0.0085
777.744	0.0074
777.981	0.0066
778.217	0.0064
778.454	0.0055
778.69	0.0041
778.926	0.005
779.162	0.0051
779.399	0.0037
779.635	0.0034
779.871	0.0036
780.107	0.0037
780.343	0.0042
780.579	0.0049
780.814	0.0043
781.05	0.0045
781.286	0.0045
781.522	0.0043
781.757	0.0049
781.993	0.0055
782.228	0.005
782.464	0.0054
782.699	0.004
782.934	0.0032
783.17	0.0035
783.405	0.0034
783.64	0.0035
783.875	0.0028
784.11	0.0035
784.345	0.0039
784.58	0.0037
784.815	0.0038
785.05	0.0033
785.285	0.0021
785.52	0.0011
785.754	0.0016
785.989	0.0018
786.223	0.001
786.458	0.0008
786.692	0.0007
786.927	-0.0001
787.161	0.0005
787.396	-0.0002
787.63	-0.0001
787.864	0.0001
788.098	-0.0002
788.332	0.0006
788.566	0.0009
788.8	-0.0007
789.034	0.0005
789.268	0.0011
789.502	0.0017
789.736	0.0023
789.969	0.0028
790.203	0.0026
790.437	0.0022
790.67	0.0014
790.904	0.0025
791.137	0.0003
791.37	0.0006
791.604	-0.0006
791.837	-0.0007
792.07	-0.0001
792.303	0.0008
792.537	-0.0001
792.77	0.0001
793.003	-0.0006
793.236	-0.0017
793.469	-0.0014
793.701	-0.0008
793.934	0.0002
794.167	-0.0004
794.4	-0.0001
794.632	-0.0004
794.865	-0.001
795.097	0.0002
795.33	0.0013
795.562	0.0005
795.795	0.0007
796.027	0.0002
796.259	0.0008
796.491	0.001
796.724	0.0011
796.956	0.0015
797.188	0.0018
797.42	0.0012
797.652	0.0016
797.883	0.0008
798.115	0.0003
798.347	0.0001
798.579	-0.0014
798.81	-0.0024
799.042	-0.0018
799.274	-0.0026
799.505	-0.0022
799.737	-0.0029
799.968	-0.0014
800.199	-0.0009
800.431	-0.002
800.662	0.0004
800.893	0.0002
801.124	0.0008
801.355	0.0014
801.586	0.0008
801.817	0.0008
802.048	0.0007
802.279	0.0006
802.51	0.0007
802.741	-0.0006
802.971	-0.0008
803.202	-0.0014
803.433	-0.0009
803.663	-0.0016
803.894	-0.0005
804.124	-0.0005
804.354	-0.001
804.585	-0.0011
804.815	-0.0008
805.045	-0.0012
805.275	-0.0028
805.506	-0.0729
805.736	0.0602
805.966	-0.0806
806.196	0.1186
