Data from 03 0.2 mM BQDS 0.4 mM K2Cr2O7 1 M H2SO4 5 min_Absorbance_11-32-42-471.txt Node
Date: Wed Dec 08 11:32:42 EST 2021
User: kwabilab-user
Spectrometer: HDX00518
Trigger mode: 0
Integration Time (sec): 5.000000E-2
Scans to average: 50
Nonlinearity correction enabled: false
Boxcar width: 0
Storing dark spectrum: false
XAxis mode: Wavelengths
Number of Pixels in Spectrum: 2068
>>>>>Begin Spectral Data<<<<<
195.27	0.2659
195.642	0.1138
196.014	0.043
196.386	0.1797
196.758	0.0416
197.129	0.026
197.501	0.0568
197.872	0.1007
198.244	0.1234
198.615	0.1308
198.986	0.1146
199.357	0.1085
199.728	0.1153
200.099	0.0973
200.47	0.1263
200.841	0.1056
201.212	0.1124
201.582	0.113
201.953	0.1238
202.323	0.1155
202.694	0.1192
203.064	0.1125
203.434	0.0983
203.804	0.1101
204.174	0.1164
204.544	0.1087
204.914	0.1197
205.284	0.1199
205.653	0.1243
206.023	0.1234
206.393	0.1279
206.762	0.1239
207.131	0.1254
207.501	0.1303
207.87	0.1417
208.239	0.1295
208.608	0.1233
208.977	0.1396
209.346	0.1413
209.715	0.1337
210.083	0.1377
210.452	0.15
210.82	0.1366
211.189	0.1558
211.557	0.1512
211.925	0.1668
212.294	0.1731
212.662	0.165
213.03	0.1753
213.398	0.1645
213.766	0.1699
214.133	0.2045
214.501	0.1971
214.869	0.1957
215.236	0.2465
215.604	0.2308
215.971	0.2537
216.338	0.2575
216.705	0.2939
217.072	0.3059
217.439	0.3223
217.806	0.3519
218.173	0.3889
218.54	0.4173
218.907	0.4436
219.273	0.4873
219.64	0.5174
220.006	0.552
220.373	0.5748
220.739	0.6112
221.105	0.6646
221.471	0.7098
221.837	0.7303
222.203	0.7806
222.569	0.8063
222.935	0.8397
223.3	0.8445
223.666	0.8867
224.031	0.9041
224.397	0.9199
224.762	0.9364
225.127	0.962
225.493	0.9751
225.858	0.9913
226.223	0.9918
226.588	0.9993
226.952	1.0042
227.317	1.0133
227.682	1.0079
228.046	1.0049
228.411	1.0068
228.775	1.004
229.14	0.9981
229.504	0.9948
229.868	0.9917
230.232	0.982
230.596	0.9752
230.96	0.9673
231.324	0.9575
231.688	0.9485
232.052	0.9437
232.415	0.9356
232.779	0.9238
233.142	0.9201
233.505	0.9089
233.869	0.8992
234.232	0.8884
234.595	0.8793
234.958	0.8701
235.321	0.8618
235.684	0.8458
236.047	0.8384
236.409	0.8301
236.772	0.8226
237.134	0.8172
237.497	0.8035
237.859	0.7983
238.222	0.7883
238.584	0.7802
238.946	0.7708
239.308	0.7635
239.67	0.7553
240.032	0.7504
240.393	0.7422
240.755	0.7308
241.117	0.727
241.478	0.7206
241.84	0.7144
242.201	0.7063
242.562	0.6994
242.924	0.693
243.285	0.6888
243.646	0.681
244.007	0.6785
244.368	0.6738
244.728	0.6658
245.089	0.6644
245.45	0.6568
245.81	0.6557
246.171	0.6516
246.531	0.6435
246.891	0.6406
247.252	0.6362
247.612	0.6311
247.972	0.6295
248.332	0.6272
248.692	0.6233
249.051	0.6216
249.411	0.6185
249.771	0.6127
250.13	0.6095
250.49	0.6085
250.849	0.6066
251.208	0.6038
251.568	0.6031
251.927	0.599
252.286	0.5998
252.645	0.5963
253.004	0.593
253.363	0.588
253.721	0.5911
254.08	0.5856
254.439	0.5852
254.797	0.583
255.155	0.5808
255.514	0.5801
255.872	0.579
256.23	0.5757
256.588	0.5733
256.946	0.5738
257.304	0.5714
257.662	0.5718
258.02	0.5687
258.377	0.5676
258.735	0.5646
259.093	0.5644
259.45	0.5641
259.807	0.5619
260.165	0.5605
260.522	0.558
260.879	0.5558
261.236	0.5542
261.593	0.5513
261.95	0.549
262.306	0.5502
262.663	0.5468
263.02	0.5464
263.376	0.5441
263.733	0.5418
264.089	0.5403
264.445	0.5376
264.802	0.5347
265.158	0.534
265.514	0.531
265.87	0.5299
266.226	0.5278
266.581	0.5253
266.937	0.5224
267.293	0.5215
267.648	0.5191
268.004	0.5149
268.359	0.5138
268.714	0.509
269.07	0.5079
269.425	0.5072
269.78	0.5056
270.135	0.5013
270.49	0.4992
270.844	0.4955
271.199	0.4926
271.554	0.4913
271.908	0.4874
272.263	0.4865
272.617	0.4832
272.972	0.4791
273.326	0.4772
273.68	0.4745
274.034	0.4716
274.388	0.4676
274.742	0.4654
275.096	0.4627
275.45	0.4598
275.803	0.4559
276.157	0.4525
276.51	0.4494
276.864	0.4461
277.217	0.4426
277.571	0.4382
277.924	0.4358
278.277	0.4331
278.63	0.4279
278.983	0.4243
279.336	0.4213
279.688	0.4185
280.041	0.4148
280.394	0.4097
280.746	0.407
281.099	0.4027
281.451	0.3994
281.803	0.3953
282.156	0.3928
282.508	0.3883
282.86	0.3845
283.212	0.3815
283.564	0.3775
283.916	0.3737
284.267	0.3702
284.619	0.3657
284.971	0.3619
285.322	0.3594
285.673	0.3549
286.025	0.3521
286.376	0.348
286.727	0.343
287.078	0.3396
287.429	0.337
287.78	0.3321
288.131	0.3279
288.482	0.3239
288.833	0.3223
289.183	0.3169
289.534	0.3136
289.884	0.3089
290.235	0.306
290.585	0.3014
290.935	0.2989
291.285	0.2951
291.635	0.2915
291.985	0.2872
292.335	0.2837
292.685	0.2804
293.035	0.2765
293.384	0.2723
293.734	0.2685
294.083	0.2648
294.433	0.261
294.782	0.2576
295.131	0.2546
295.48	0.2522
295.829	0.2488
296.179	0.2447
296.527	0.2416
296.876	0.2384
297.225	0.2364
297.574	0.2312
297.922	0.2286
298.271	0.2257
298.619	0.2224
298.968	0.2194
299.316	0.2165
299.664	0.2135
300.012	0.2109
300.36	0.2069
300.708	0.2055
301.056	0.2031
301.404	0.2003
301.752	0.1978
302.099	0.1956
302.447	0.1935
302.794	0.1907
303.142	0.189
303.489	0.1865
303.836	0.1842
304.183	0.1823
304.531	0.1808
304.878	0.1793
305.224	0.1772
305.571	0.1754
305.918	0.1734
306.265	0.1722
306.611	0.1706
306.958	0.169
307.304	0.1677
307.651	0.1671
307.997	0.1657
308.343	0.164
308.689	0.1636
309.035	0.1619
309.381	0.1617
309.727	0.1599
310.073	0.1598
310.419	0.1588
310.764	0.1582
311.11	0.1578
311.455	0.1576
311.801	0.1557
312.146	0.1564
312.491	0.1548
312.837	0.1555
313.182	0.1553
313.527	0.1549
313.872	0.1545
314.216	0.1539
314.561	0.1538
314.906	0.1542
315.251	0.1539
315.595	0.1535
315.94	0.1538
316.284	0.154
316.628	0.1536
316.972	0.1539
317.317	0.1542
317.661	0.1552
318.005	0.1551
318.348	0.1553
318.692	0.1555
319.036	0.1557
319.38	0.1569
319.723	0.1574
320.067	0.1576
320.41	0.158
320.754	0.1593
321.097	0.1591
321.44	0.1601
321.783	0.1609
322.126	0.1616
322.469	0.163
322.812	0.1638
323.155	0.1642
323.498	0.1655
323.84	0.1667
324.183	0.1671
324.525	0.168
324.868	0.1692
325.21	0.1705
325.552	0.1716
325.894	0.1719
326.236	0.1734
326.578	0.1747
326.92	0.1755
327.262	0.1761
327.604	0.1769
327.946	0.1787
328.287	0.1794
328.629	0.1809
328.97	0.1817
329.312	0.1832
329.653	0.1846
329.994	0.1856
330.335	0.1871
330.676	0.1876
331.017	0.1885
331.358	0.1904
331.699	0.1926
332.04	0.1929
332.38	0.1936
332.721	0.1959
333.061	0.1965
333.402	0.1979
333.742	0.1993
334.083	0.2004
334.423	0.2013
334.763	0.202
335.103	0.204
335.443	0.2039
335.783	0.2054
336.123	0.2057
336.462	0.2071
336.802	0.2087
337.141	0.2091
337.481	0.2108
337.82	0.2111
338.16	0.2117
338.499	0.2129
338.838	0.2141
339.177	0.2149
339.516	0.2155
339.855	0.2172
340.194	0.2178
340.533	0.2188
340.872	0.2197
341.21	0.2206
341.549	0.2209
341.887	0.2216
342.226	0.2221
342.564	0.2218
342.902	0.2232
343.24	0.2233
343.578	0.2232
343.916	0.2234
344.254	0.2243
344.592	0.2242
344.93	0.2245
345.268	0.2242
345.605	0.2244
345.943	0.2242
346.28	0.2247
346.618	0.225
346.955	0.2249
347.292	0.225
347.629	0.2258
347.966	0.2263
348.303	0.226
348.64	0.2251
348.977	0.2246
349.314	0.2258
349.65	0.2259
349.987	0.2259
350.324	0.2243
350.66	0.225
350.996	0.2247
351.333	0.2238
351.669	0.2223
352.005	0.2226
352.341	0.2216
352.677	0.2214
353.013	0.2199
353.349	0.2196
353.685	0.2184
354.02	0.2169
354.356	0.2169
354.691	0.2152
355.027	0.2146
355.362	0.2132
355.697	0.2127
356.033	0.2114
356.368	0.2108
356.703	0.2098
357.038	0.2092
357.373	0.2083
357.707	0.2076
358.042	0.2066
358.377	0.2062
358.711	0.2046
359.046	0.2036
359.38	0.203
359.715	0.2018
360.049	0.2009
360.383	0.2001
360.717	0.1983
361.051	0.1959
361.385	0.1957
361.719	0.1935
362.053	0.1931
362.387	0.1903
362.72	0.189
363.054	0.1867
363.387	0.1859
363.721	0.1847
364.054	0.1823
364.387	0.1811
364.721	0.1795
365.054	0.1776
365.387	0.1762
365.72	0.1749
366.053	0.1733
366.385	0.1714
366.718	0.1702
367.051	0.169
367.383	0.1669
367.716	0.1659
368.048	0.1649
368.381	0.1633
368.713	0.1624
369.045	0.1608
369.377	0.1593
369.709	0.1581
370.041	0.1574
370.373	0.1559
370.705	0.1546
371.037	0.1527
371.368	0.1511
371.7	0.1502
372.031	0.1481
372.363	0.1464
372.694	0.1453
373.025	0.1428
373.356	0.1413
373.688	0.1391
374.019	0.1372
374.35	0.1349
374.68	0.1335
375.011	0.1315
375.342	0.1297
375.673	0.1283
376.003	0.1267
376.334	0.1251
376.664	0.1229
376.995	0.122
377.325	0.1207
377.655	0.1196
377.985	0.1178
378.315	0.1173
378.645	0.1154
378.975	0.1139
379.305	0.1126
379.635	0.1117
379.964	0.1101
380.294	0.1087
380.623	0.1077
380.953	0.1073
381.282	0.1056
381.611	0.1035
381.941	0.103
382.27	0.1016
382.599	0.1002
382.928	0.0991
383.257	0.0975
383.585	0.0972
383.914	0.0948
384.243	0.0942
384.571	0.0918
384.9	0.0908
385.228	0.0886
385.557	0.0875
385.885	0.0859
386.213	0.0849
386.541	0.0831
386.869	0.0816
387.197	0.0801
387.525	0.0788
387.853	0.0773
388.181	0.0765
388.508	0.0755
388.836	0.0743
389.164	0.0734
389.491	0.0725
389.818	0.0707
390.146	0.0698
390.473	0.0678
390.8	0.0678
391.127	0.0663
391.454	0.0657
391.781	0.0641
392.108	0.0639
392.435	0.062
392.761	0.0613
393.088	0.0608
393.415	0.0599
393.741	0.0601
394.067	0.059
394.394	0.0588
394.72	0.058
395.046	0.0568
395.372	0.0551
395.698	0.0547
396.024	0.0542
396.35	0.0526
396.676	0.0531
397.001	0.0525
397.327	0.0508
397.653	0.0502
397.978	0.0493
398.303	0.0483
398.629	0.0481
398.954	0.0478
399.279	0.0467
399.604	0.0464
399.929	0.0458
400.254	0.0451
400.579	0.0446
400.904	0.0437
401.229	0.0434
401.553	0.0419
401.878	0.0417
402.202	0.0416
402.527	0.0416
402.851	0.0413
403.175	0.0405
403.5	0.0404
403.824	0.0404
404.148	0.0395
404.472	0.0401
404.796	0.0385
405.119	0.0385
405.443	0.0375
405.767	0.0376
406.09	0.0379
406.414	0.0385
406.737	0.0376
407.061	0.0379
407.384	0.0376
407.707	0.0368
408.03	0.0376
408.353	0.0372
408.676	0.037
408.999	0.0363
409.322	0.0369
409.645	0.0363
409.968	0.0358
410.29	0.0365
410.613	0.0362
410.935	0.0358
411.258	0.0367
411.58	0.0359
411.902	0.036
412.224	0.0363
412.546	0.036
412.868	0.0357
413.19	0.0357
413.512	0.0359
413.834	0.0357
414.156	0.0366
414.477	0.0354
414.799	0.0354
415.121	0.0365
415.442	0.0357
415.763	0.0367
416.085	0.0361
416.406	0.0361
416.727	0.0366
417.048	0.0361
417.369	0.0363
417.69	0.0362
418.011	0.0362
418.331	0.0362
418.652	0.0358
418.973	0.0365
419.293	0.0363
419.614	0.0365
419.934	0.0357
420.254	0.0366
420.574	0.036
420.895	0.0359
421.215	0.0361
421.535	0.0356
421.855	0.0361
422.174	0.0359
422.494	0.0362
422.814	0.0367
423.134	0.0369
423.453	0.0367
423.773	0.0368
424.092	0.0368
424.411	0.0365
424.731	0.0367
425.05	0.0366
425.369	0.0373
425.688	0.0368
426.007	0.0372
426.326	0.0374
426.644	0.0383
426.963	0.0376
427.282	0.0384
427.6	0.0381
427.919	0.0371
428.237	0.038
428.556	0.0384
428.874	0.0382
429.192	0.0376
429.51	0.0371
429.828	0.0382
430.146	0.0378
430.464	0.0383
430.782	0.0383
431.1	0.0383
431.418	0.0377
431.735	0.0378
432.053	0.0384
432.37	0.0384
432.688	0.038
433.005	0.0381
433.322	0.0384
433.639	0.0385
433.957	0.0383
434.274	0.0389
434.591	0.0385
434.907	0.0388
435.224	0.0384
435.541	0.0387
435.858	0.0393
436.174	0.0388
436.491	0.0393
436.807	0.0387
437.124	0.038
437.44	0.0382
437.756	0.0381
438.072	0.0381
438.388	0.0395
438.704	0.0389
439.02	0.039
439.336	0.038
439.652	0.0384
439.968	0.039
440.283	0.0386
440.599	0.0387
440.914	0.0383
441.23	0.0382
441.545	0.0382
441.86	0.0383
442.175	0.0388
442.491	0.038
442.806	0.0381
443.121	0.0385
443.435	0.0376
443.75	0.0382
444.065	0.0376
444.38	0.0385
444.694	0.0377
445.009	0.0385
445.323	0.0382
445.638	0.0381
445.952	0.0382
446.266	0.0374
446.58	0.0375
446.894	0.038
447.208	0.039
447.522	0.0381
447.836	0.0369
448.15	0.0367
448.464	0.0372
448.777	0.0369
449.091	0.0367
449.404	0.0372
449.718	0.0379
450.031	0.0375
450.345	0.0366
450.658	0.0369
450.971	0.0367
451.284	0.0365
451.597	0.0371
451.91	0.0369
452.223	0.0362
452.535	0.0371
452.848	0.0359
453.161	0.0363
453.473	0.0363
453.786	0.0366
454.098	0.0364
454.411	0.0362
454.723	0.0354
455.035	0.0359
455.347	0.0358
455.659	0.0363
455.971	0.0357
456.283	0.0359
456.595	0.035
456.907	0.0357
457.218	0.0361
457.53	0.0355
457.841	0.0348
458.153	0.0348
458.464	0.0349
458.776	0.0339
459.087	0.0336
459.398	0.034
459.709	0.034
460.02	0.0335
460.331	0.034
460.642	0.0335
460.953	0.0334
461.263	0.0336
461.574	0.0333
461.885	0.0329
462.195	0.0331
462.506	0.0326
462.816	0.0323
463.126	0.0321
463.437	0.0321
463.747	0.0312
464.057	0.0318
464.367	0.0314
464.677	0.0311
464.987	0.0319
465.296	0.0308
465.606	0.0307
465.916	0.0301
466.225	0.0304
466.535	0.0302
466.844	0.0298
467.154	0.0296
467.463	0.0295
467.772	0.0297
468.081	0.0296
468.39	0.0293
468.699	0.0296
469.008	0.0295
469.317	0.0285
469.626	0.029
469.935	0.0287
470.243	0.0287
470.552	0.0288
470.86	0.0292
471.169	0.0282
471.477	0.0279
471.785	0.0289
472.093	0.0284
472.402	0.0268
472.71	0.0275
473.018	0.0266
473.326	0.0258
473.633	0.0268
473.941	0.0267
474.249	0.0262
474.556	0.0265
474.864	0.0256
475.171	0.0249
475.479	0.0259
475.786	0.0258
476.094	0.0258
476.401	0.0255
476.708	0.0252
477.015	0.0251
477.322	0.0239
477.629	0.025
477.936	0.0241
478.242	0.0237
478.549	0.0239
478.856	0.0231
479.162	0.0234
479.469	0.024
479.775	0.0237
480.081	0.0229
480.388	0.0228
480.694	0.0225
481	0.0218
481.306	0.0223
481.612	0.0224
481.918	0.0216
482.224	0.0218
482.53	0.0221
482.835	0.0209
483.141	0.02
483.446	0.0203
483.752	0.0205
484.057	0.0199
484.363	0.0201
484.668	0.0194
484.973	0.019
485.278	0.0191
485.583	0.0184
485.888	0.0188
486.193	0.0182
486.498	0.0181
486.803	0.0196
487.107	0.0177
487.412	0.0177
487.717	0.0179
488.021	0.0188
488.325	0.0178
488.63	0.0168
488.934	0.0174
489.238	0.0178
489.542	0.0174
489.846	0.0169
490.15	0.0176
490.454	0.0172
490.758	0.0169
491.062	0.0164
491.366	0.0163
491.669	0.0165
491.973	0.0165
492.276	0.0154
492.58	0.0148
492.883	0.0163
493.186	0.0157
493.489	0.0151
493.792	0.0157
494.096	0.0154
494.399	0.0147
494.701	0.0146
495.004	0.0144
495.307	0.0133
495.61	0.0141
495.912	0.0133
496.215	0.0129
496.517	0.0134
496.82	0.013
497.122	0.0134
497.424	0.0134
497.727	0.0122
498.029	0.0132
498.331	0.0138
498.633	0.0129
498.935	0.0119
499.237	0.0124
499.538	0.012
499.84	0.0121
500.142	0.0126
500.443	0.0121
500.745	0.0113
501.046	0.0123
501.348	0.0108
501.649	0.0117
501.95	0.0107
502.251	0.0111
502.552	0.0101
502.853	0.0102
503.154	0.0106
503.455	0.01
503.756	0.0103
504.057	0.0107
504.357	0.0098
504.658	0.0093
504.958	0.0097
505.259	0.0098
505.559	0.0103
505.859	0.0094
506.16	0.0098
506.46	0.0097
506.76	0.0094
507.06	0.0092
507.36	0.0096
507.66	0.0097
507.96	0.0094
508.259	0.0094
508.559	0.0086
508.859	0.0089
509.158	0.0086
509.457	0.0076
509.757	0.0095
510.056	0.0085
510.355	0.0084
510.655	0.0067
510.954	0.0084
511.253	0.0085
511.552	0.0083
511.851	0.0078
512.149	0.0064
512.448	0.0063
512.747	0.0075
513.045	0.0073
513.344	0.0074
513.642	0.0075
513.941	0.0072
514.239	0.007
514.537	0.0062
514.836	0.007
515.134	0.0071
515.432	0.0069
515.73	0.0071
516.028	0.0053
516.326	0.0072
516.623	0.006
516.921	0.0058
517.219	0.0066
517.516	0.0062
517.814	0.0066
518.111	0.007
518.409	0.0082
518.706	0.0074
519.003	0.0057
519.3	0.0049
519.597	0.0057
519.894	0.0063
520.191	0.0072
520.488	0.0062
520.785	0.0052
521.082	0.005
521.378	0.0058
521.675	0.0037
521.971	0.0054
522.268	0.0049
522.564	0.0052
522.861	0.0058
523.157	0.0046
523.453	0.0052
523.749	0.0056
524.045	0.0053
524.341	0.0053
524.637	0.0052
524.933	0.0044
525.229	0.0048
525.524	0.0047
525.82	0.0051
526.115	0.0044
526.411	0.005
526.706	0.0045
527.002	0.0055
527.297	0.0036
527.592	0.0061
527.887	0.0056
528.182	0.0048
528.477	0.0059
528.772	0.0046
529.067	0.0048
529.362	0.0047
529.657	0.0048
529.951	0.0045
530.246	0.0036
530.54	0.0026
530.835	0.0029
531.129	0.0024
531.423	0.0042
531.718	0.004
532.012	0.0033
532.306	0.0039
532.6	0.0042
532.894	0.0037
533.188	0.004
533.482	0.004
533.775	0.0044
534.069	0.0033
534.363	0.0032
534.656	0.0029
534.95	0.002
535.243	0.0037
535.536	0.0026
535.83	0.0029
536.123	0.0022
536.416	0.003
536.709	0.0037
537.002	0.0044
537.295	0.004
537.588	0.0041
537.881	0.0041
538.173	0.0026
538.466	0.0029
538.759	0.0023
539.051	0.0019
539.344	0.0027
539.636	0.0029
539.928	0.0024
540.22	0.0027
540.513	0.0033
540.805	0.0028
541.097	0.0027
541.389	0.0031
541.681	0.0032
541.972	0.0025
542.264	0.0017
542.556	0.0025
542.847	0.0027
543.139	0.0024
543.431	0.0037
543.722	0.0032
544.013	0.0034
544.305	0.0039
544.596	0.0046
544.887	0.0034
545.178	0.0025
545.469	0.0021
545.76	0.0014
546.051	0.0017
546.342	0.0035
546.632	0.0011
546.923	0.0035
547.214	0.0033
547.504	0.0026
547.795	0.0031
548.085	0.0032
548.375	0.0028
548.666	0.0032
548.956	0.0028
549.246	0.0034
549.536	0.0018
549.826	0.0035
550.116	0.0036
550.406	0.0037
550.695	0.0047
550.985	0.0041
551.275	0.0046
551.564	0.0026
551.854	0.0039
552.143	0.0032
552.433	0.0031
552.722	0.0034
553.011	0.0029
553.3	0.0037
553.589	0.0032
553.879	0.0028
554.167	0.0038
554.456	0.0033
554.745	0.0024
555.034	0.0021
555.323	0.002
555.611	0.0021
555.9	0.0037
556.188	0.0039
556.477	0.0027
556.765	0.0024
557.053	0.0023
557.342	0.002
557.63	0.0031
557.918	0.0025
558.206	0.003
558.494	0.0032
558.782	0.0034
559.069	0.0033
559.357	0.0035
559.645	0.0034
559.932	0.0034
560.22	0.0034
560.507	0.0039
560.795	0.0033
561.082	0.0028
561.37	0.0027
561.657	0.003
561.944	0.0047
562.231	0.0032
562.518	0.002
562.805	0.0023
563.092	0.0037
563.379	0.004
563.665	0.003
563.952	0.0035
564.239	0.004
564.525	0.0037
564.811	0.0048
565.098	0.0043
565.384	0.0035
565.67	0.0025
565.957	0.004
566.243	0.0035
566.529	0.004
566.815	0.0059
567.101	0.0037
567.387	0.0029
567.672	0.0026
567.958	0.0034
568.244	0.0031
568.529	0.0031
568.815	0.0026
569.1	0.0031
569.386	0.0031
569.671	0.0031
569.956	0.0036
570.242	0.0033
570.527	0.0034
570.812	0.0037
571.097	0.0031
571.382	0.0034
571.666	0.0026
571.951	0.0023
572.236	0.0029
572.521	0.0024
572.805	0.0022
573.09	0.003
573.374	0.003
573.659	0.0017
573.943	0.0023
574.227	0.0026
574.511	0.0034
574.795	0.0028
575.079	0.0022
575.363	0.0024
575.647	0.0033
575.931	0.0029
576.215	0.0026
576.499	0.0022
576.782	0.0022
577.066	0.0021
577.349	0.0025
577.633	0.003
577.916	0.0038
578.2	0.0035
578.483	0.0031
578.766	0.0027
579.049	0.0029
579.332	0.003
579.615	0.0031
579.898	0.0032
580.181	0.0031
580.464	0.0027
580.746	0.0015
581.029	0.0026
581.312	0.0021
581.594	0.0017
581.877	0.0028
582.159	0.0026
582.441	0.0028
582.724	0.0027
583.006	0.0022
583.288	0.0017
583.57	0.0019
583.852	0.0014
584.134	0.0015
584.416	0.0031
584.697	0.0024
584.979	0.0022
585.261	0.0021
585.542	0.0019
585.824	0.0026
586.105	0.0027
586.387	0.0014
586.668	0.0018
586.949	0.0023
587.231	0.0018
587.512	0.0027
587.793	0.0018
588.074	0.0026
588.355	0.0027
588.636	0.0033
588.916	0.0029
589.197	0.0033
589.478	0.0035
589.758	0.0027
590.039	0.0028
590.319	0.0024
590.6	0.0024
590.88	0.0026
591.16	0.0036
591.441	0.0033
591.721	0.0029
592.001	0.0023
592.281	0.0028
592.561	0.0032
592.841	0.0039
593.12	0.0027
593.4	0.0015
593.68	0.0027
593.959	0.0024
594.239	0.0037
594.518	0.0018
594.798	0.0026
595.077	0.0037
595.356	0.0023
595.636	0.0028
595.915	0.0029
596.194	0.0028
596.473	0.0031
596.752	0.0024
597.031	0.0018
597.31	0.0014
597.588	0.0015
597.867	0.0023
598.146	0.0025
598.424	0.0014
598.703	0.003
598.981	0.002
599.259	0.0028
599.538	0.0028
599.816	0.0029
600.094	0.0024
600.372	0.0028
600.65	0.0028
600.928	0.0034
601.206	0.0029
601.484	0.0033
601.762	0.0034
602.04	0.0023
602.317	0.0025
602.595	0.0021
602.872	0.0027
603.15	0.0026
603.427	0.0019
603.704	0.002
603.982	0.0018
604.259	0.0013
604.536	0.0023
604.813	0.0016
605.09	0.0027
605.367	0.0021
605.644	0.0018
605.921	0.0023
606.197	0.0022
606.474	0.0022
606.751	0.0023
607.027	0.0022
607.304	0.0013
607.58	0.0018
607.856	0.0015
608.133	0.0024
608.409	0.003
608.685	0.0033
608.961	0.0026
609.237	0.0027
609.513	0.0031
609.789	0.0029
610.065	0.0022
610.341	0.0016
610.616	0.0016
610.892	0.0028
611.167	0.0023
611.443	0.0015
611.718	0.0009
611.994	0.001
612.269	0.0019
612.544	0.0014
612.819	0.002
613.095	0.0025
613.37	0.0023
613.645	0.0019
613.919	0.0018
614.194	0.0021
614.469	0.0017
614.744	0.0014
615.019	0.0009
615.293	0.0003
615.568	0.0006
615.842	0.0009
616.116	0.0008
616.391	0.0011
616.665	0.0025
616.939	0.0011
617.213	0.002
617.488	0.0015
617.762	0.0019
618.035	0.0014
618.309	0.0013
618.583	0.0017
618.857	0.0018
619.131	0.0026
619.404	0.0015
619.678	0.0017
619.951	0.0009
620.225	0.0008
620.498	0.0011
620.771	0.0016
621.045	0.0026
621.318	0.0024
621.591	0.0018
621.864	0.0012
622.137	0.0006
622.41	0.0015
622.683	0.0006
622.956	0.0017
623.228	0.0027
623.501	0.0026
623.774	0.0025
624.046	0.0027
624.319	0.0025
624.591	0.0004
624.863	0.002
625.136	0.0018
625.408	0.0028
625.68	0.0022
625.952	0.0024
626.224	0.0022
626.496	0.0022
626.768	0.0014
627.04	0.0013
627.311	0.0018
627.583	0.0017
627.855	0.0017
628.126	0.0025
628.398	0.0029
628.669	0.0017
628.941	0.002
629.212	0.0013
629.483	0.0012
629.755	0.0014
630.026	0.0009
630.297	0.0009
630.568	0.0007
630.839	0.0012
631.11	0.0002
631.38	0.0003
631.651	0.0003
631.922	0.0001
632.192	0
632.463	0.0002
632.733	0
633.004	0
633.274	-0.0004
633.545	0.0013
633.815	0.0027
634.085	0.0027
634.355	0.0017
634.625	0.0033
634.895	0.0015
635.165	-0.0001
635.435	0.0007
635.705	0.001
635.974	0.0009
636.244	0.0027
636.514	0.0024
636.783	0.0018
637.053	0.0025
637.322	0.0008
637.591	0.002
637.861	0.002
638.13	0.0015
638.399	0.0017
638.668	0.0022
638.937	0.0008
639.206	0.0021
639.475	0.0018
639.744	0.0022
640.013	0.003
640.281	0.0042
640.55	0.003
640.819	0.0028
641.087	0.003
641.356	0.0019
641.624	0.0018
641.892	0.002
642.161	0.0028
642.429	0.0041
642.697	0.002
642.965	0.0034
643.233	0.0039
643.501	0.0024
643.769	0.002
644.037	0.0028
644.305	0.0014
644.572	0.0002
644.84	0.0006
645.108	0.0017
645.375	0.0003
645.643	0.0012
645.91	0.0007
646.177	0.0034
646.445	0.0041
646.712	0.0041
646.979	0.0046
647.246	0.0034
647.513	0.0037
647.78	0.0035
648.047	0.0049
648.314	0.0025
648.58	0.0026
648.847	0.0022
649.114	0.0013
649.38	0.0011
649.647	0.0006
649.913	0.0003
650.18	0.0016
650.446	0.002
650.712	0.0024
650.978	0.002
651.245	0.0033
651.511	0.0025
651.777	0.0015
652.043	0.0028
652.309	0.0023
652.574	0.0037
652.84	0.002
653.106	0.0016
653.371	0.0007
653.637	0.0022
653.903	0.0032
654.168	0.0034
654.433	0.0033
654.699	0.0033
654.964	0.004
655.229	0.0036
655.494	0.0025
655.759	0.0016
656.024	0.0004
656.289	-0
656.554	-0.0013
656.819	-0.0006
657.084	0.0017
657.349	0.0035
657.613	0.004
657.878	0.0024
658.142	0.0036
658.407	0.0029
658.671	0.0023
658.936	0.002
659.2	0.0017
659.464	0.002
659.728	0.0012
659.992	0.0024
660.256	0.0014
660.52	0.0011
660.784	0.0004
661.048	0.0007
661.312	0.0005
661.575	0.0005
661.839	-0.001
662.103	-0.0011
662.366	-0.0012
662.63	-0.0003
662.893	0.0011
663.156	-0
663.42	-0
663.683	0.0005
663.946	0.001
664.209	0.0024
664.472	0.0017
664.735	0.0027
664.998	0.0016
665.261	0.0011
665.524	0.0011
665.786	0.0009
666.049	0.0015
666.312	0.0014
666.574	0.001
666.837	0.0004
667.099	-0.0002
667.361	0.0001
667.624	-0.0005
667.886	0.0003
668.148	0.0009
668.41	0.0021
668.672	0.0006
668.934	0.001
669.196	0.0013
669.458	0.0014
669.72	0.0022
669.982	0.0029
670.243	0.0024
670.505	0.0022
670.766	0.0025
671.028	0.0024
671.289	0.0023
671.551	0.0017
671.812	-0.0002
672.073	0.0009
672.334	0.0001
672.596	0.0013
672.857	0.0003
673.118	0.0008
673.379	0.0001
673.639	-0.0006
673.9	-0.0003
674.161	-0.0016
674.422	-0.0024
674.682	-0.0015
674.943	-0.0019
675.203	-0.0003
675.464	0.0002
675.724	0.0012
675.985	0.0013
676.245	0.0017
676.505	0.0025
676.765	0.0026
677.025	0.0017
677.285	0.0025
677.545	0.0039
677.805	0.0031
678.065	0.0033
678.325	0.0034
678.585	0.0028
678.844	0.0028
679.104	0.0017
679.363	0.0018
679.623	0.0036
679.882	0.0038
680.142	0.0031
680.401	0.0037
680.66	0.0045
680.919	0.0043
681.178	0.0046
681.437	0.0044
681.696	0.004
681.955	0.0039
682.214	0.0044
682.473	0.0046
682.732	0.0022
682.99	0.0024
683.249	0.0036
683.508	0.0032
683.766	0.0035
684.024	0.0029
684.283	0.0036
684.541	0.0032
684.799	0.0033
685.058	0.0026
685.316	0.0035
685.574	0.003
685.832	0.0037
686.09	0.0035
686.348	0.0043
686.606	0.0036
686.863	0.004
687.121	0.0045
687.379	0.0044
687.636	0.0036
687.894	0.0043
688.151	0.0051
688.409	0.0045
688.666	0.0046
688.923	0.0052
689.181	0.0041
689.438	0.0031
689.695	0.0038
689.952	0.0013
690.209	0.0015
690.466	0.0013
690.723	0.0034
690.979	0.0025
691.236	0.0021
691.493	0.0022
691.75	0.003
692.006	0.0036
692.263	0.0034
692.519	0.0036
692.775	0.0027
693.032	0.0014
693.288	0.0024
693.544	0.0029
693.8	0.0027
694.056	0.0022
694.313	0.0028
694.568	0.0027
694.824	0.003
695.08	0.0039
695.336	0.0035
695.592	0.0031
695.847	0.0032
696.103	0.0041
696.359	0.0031
696.614	0.0027
696.869	0.0022
697.125	0.0003
697.38	0.0002
697.635	-0.0001
697.891	0.0006
698.146	0.0005
698.401	0.002
698.656	0.0009
698.911	0.002
699.166	0.0016
699.42	0.0015
699.675	0.0009
699.93	0.0003
700.185	0.001
700.439	0.0022
700.694	0.0017
700.948	0.0018
701.203	0.0023
701.457	0.0026
701.711	0.0018
701.965	0.0006
702.22	-0.0003
702.474	0.0002
702.728	-0.0005
702.982	-0.0005
703.236	0
703.49	0.0006
703.743	-0.0001
703.997	0.0003
704.251	0.0008
704.504	0.0018
704.758	0.0011
705.012	0.0003
705.265	0.0004
705.518	0.0003
705.772	0.0005
706.025	0.0008
706.278	0.0004
706.531	-0.0001
706.785	-0.0009
707.038	0.0003
707.291	-0.0005
707.543	0.0007
707.796	-0.0003
708.049	-0.001
708.302	-0.0014
708.555	-0.0004
708.807	0.0006
709.06	-0.0005
709.312	-0.0025
709.565	-0.0018
709.817	-0.0024
710.069	-0.0018
710.322	-0.0011
710.574	-0.0007
710.826	-0.0005
711.078	0.0002
711.33	-0.0002
711.582	-0.0007
711.834	0.001
712.086	0.0013
712.338	0.0019
712.59	0.0022
712.841	0.0023
713.093	0.0014
713.344	0.0013
713.596	0.0014
713.847	0.0017
714.099	0.0018
714.35	0.0025
714.601	0.003
714.853	0.0031
715.104	0.0031
715.355	0.0017
715.606	0.002
715.857	0.0024
716.108	0.0034
716.359	0.0032
716.609	0.0034
716.86	0.0017
717.111	0.001
717.361	0.0003
717.612	0
717.863	0.0005
718.113	0.0009
718.363	0.0004
718.614	0.0007
718.864	0.0009
719.114	0.0019
719.364	0.0015
719.614	0.0001
719.865	-0.0006
720.114	0.0006
720.364	0.0012
720.614	0.0016
720.864	0.0022
721.114	0.0023
721.364	0.0035
721.613	0.0029
721.863	0.0036
722.112	0.0034
722.362	0.0038
722.611	0.0028
722.86	0.0027
723.11	0.0014
723.359	0.0016
723.608	0.0032
723.857	0.0035
724.106	0.0054
724.355	0.006
724.604	0.0057
724.853	0.0047
725.102	0.0037
725.351	0.0031
725.599	0.003
725.848	0.0024
726.097	0.0018
726.345	0.0024
726.594	0.0021
726.842	0.0019
727.09	0.0019
727.339	0.0021
727.587	0.0016
727.835	0.0007
728.083	-0.0003
728.331	-0.0006
728.579	-0.0014
728.827	-0.0008
729.075	0.0002
729.323	0.0008
729.571	0.0012
729.818	0.0021
730.066	0.0014
730.314	0.0021
730.561	0.0005
730.809	0.0008
731.056	-0.0001
731.303	-0.0008
731.551	0.0004
731.798	0.0005
732.045	0.0001
732.292	0.0006
732.539	0.0004
732.786	0.0011
733.033	0.0017
733.28	0.0024
733.527	0.0039
733.774	0.0024
734.021	0.0037
734.267	0.004
734.514	0.0037
734.76	0.0033
735.007	0.0056
735.253	0.0058
735.5	0.0053
735.746	0.0058
735.992	0.0048
736.238	0.0047
736.485	0.0062
736.731	0.0055
736.977	0.0052
737.223	0.0045
737.469	0.0056
737.715	0.0056
737.96	0.0072
738.206	0.0061
738.452	0.0076
738.697	0.0078
738.943	0.0066
739.189	0.0054
739.434	0.0024
739.679	0.0017
739.925	0.0015
740.17	0.0019
740.415	0.0019
740.66	0.002
740.906	0.0029
741.151	0.0033
741.396	0.0026
741.641	0.0053
741.886	0.0056
742.13	0.0052
742.375	0.0055
742.62	0.0068
742.865	0.0052
743.109	0.0045
743.354	0.0048
743.598	0.0051
743.843	0.0052
744.087	0.0045
744.331	0.0053
744.576	0.0047
744.82	0.0043
745.064	0.0042
745.308	0.0035
745.552	0.0035
745.796	0.0037
746.04	0.0031
746.284	0.0018
746.528	-0.0006
746.771	0.0008
747.015	0.0009
747.259	0.0014
747.502	0.0009
747.746	0.0022
747.989	0.0019
748.233	0.003
748.476	0.0032
748.719	0.0036
748.963	0.0045
749.206	0.0036
749.449	0.0042
749.692	0.0032
749.935	0.0041
750.178	0.0032
750.421	0.0034
750.664	0.0043
750.906	0.0039
751.149	0.0033
751.392	0.0035
751.635	0.0017
751.877	0.0004
752.12	-0.0001
752.362	0.0011
752.604	0.0005
752.847	0.0013
753.089	0.0017
753.331	0.0022
753.573	0.0022
753.816	0.0022
754.058	0.003
754.3	0.0033
754.542	0.0041
754.783	0.0035
755.025	0.0034
755.267	0.0016
755.509	0.0014
755.75	0.0017
755.992	0.0017
756.234	0.0009
756.475	0
756.716	0.0003
756.958	0.0003
757.199	-0.0001
757.44	0.0015
757.682	0.0012
757.923	-0.0003
758.164	0.0001
758.405	-0.0003
758.646	0
758.887	0.0005
759.128	0.0004
759.369	-0.0003
759.609	-0.0005
759.85	-0.0009
760.091	0.0004
760.331	0.0002
760.572	-0.0003
760.812	-0.0007
761.053	-0.0011
761.293	-0.0001
761.533	0.0005
761.774	0.0006
762.014	0.0013
762.254	0.001
762.494	0.0003
762.734	0.0002
762.974	-0.0001
763.214	-0.0011
763.454	-0.0007
763.694	-0.0011
763.933	-0.0015
764.173	0.0004
764.413	0.0002
764.652	0.0004
764.892	0.0004
765.131	0.0019
765.371	0.0012
765.61	0.0025
765.849	0.002
766.089	0.003
766.328	0.0038
766.567	0.0032
766.806	0.0036
767.045	0.0036
767.284	0.0029
767.523	0.004
767.762	0.0046
768.001	0.0035
768.239	0.0032
768.478	0.0019
768.717	0.0023
768.955	0.0027
769.194	0.0019
769.432	0.0021
769.671	0.0032
769.909	0.002
770.148	0.0023
770.386	0.0029
770.624	0.0033
770.862	0.0027
771.1	0.0022
771.338	0.0023
771.576	0.0022
771.814	0.0027
772.052	0.0023
772.29	0.0025
772.528	0.0037
772.765	0.0031
773.003	0.0035
773.24	0.0036
773.478	0.003
773.716	0.0047
773.953	0.0043
774.19	0.0046
774.428	0.0046
774.665	0.0042
774.902	0.0042
775.139	0.0027
775.376	0.0032
775.613	0.0029
775.85	0.0033
776.087	0.0022
776.324	0.0024
776.561	0.0034
776.798	0.0048
777.034	0.0056
777.271	0.0069
777.508	0.0071
777.744	0.0063
777.981	0.0064
778.217	0.0055
778.454	0.0054
778.69	0.0048
778.926	0.0048
779.162	0.0043
779.399	0.0042
779.635	0.004
779.871	0.0036
780.107	0.0041
780.343	0.0045
780.579	0.0051
780.814	0.0048
781.05	0.0045
781.286	0.0046
781.522	0.0041
781.757	0.005
781.993	0.0053
782.228	0.0055
782.464	0.0051
782.699	0.0046
782.934	0.0033
783.17	0.0033
783.405	0.004
783.64	0.0034
783.875	0.0025
784.11	0.0036
784.345	0.0039
784.58	0.0034
784.815	0.0039
785.05	0.0041
785.285	0.0028
785.52	0.0014
785.754	0.0022
785.989	0.0022
786.223	0.0011
786.458	0.0011
786.692	0.0007
786.927	0.0009
787.161	0.0006
787.396	0.0003
787.63	-0.0004
787.864	-0.0003
788.098	0.0001
788.332	0.0007
788.566	0.0003
788.8	-0
789.034	0.0002
789.268	0.0006
789.502	0.0012
789.736	0.0027
789.969	0.0025
790.203	0.0028
790.437	0.0026
790.67	0.0022
790.904	0.0027
791.137	0.0001
791.37	0.0007
791.604	0.0001
791.837	-0.0003
792.07	0.0002
792.303	0.0007
792.537	-0.0001
792.77	-0.0003
793.003	0
793.236	-0.0005
793.469	-0.0014
793.701	-0.0007
793.934	-0.0002
794.167	-0.0002
794.4	-0.0003
794.632	-0.0003
794.865	-0.001
795.097	-0.0001
795.33	0.0013
795.562	0.0003
795.795	0.0006
796.027	0.0006
796.259	0.0008
796.491	0.0006
796.724	-0.0004
796.956	0.0009
797.188	0.0019
797.42	0.0009
797.652	0.0007
797.883	0.0002
798.115	-0.0004
798.347	-0.0005
798.579	-0.0013
798.81	-0.0015
799.042	-0.0018
799.274	-0.002
799.505	-0.0022
799.737	-0.0029
799.968	-0.0009
800.199	-0.0006
800.431	-0.0014
800.662	0.0001
800.893	0.0007
801.124	0.0002
801.355	0.0008
801.586	0.0009
801.817	0.001
802.048	-0.0002
802.279	0.001
802.51	0.0021
802.741	0.0003
802.971	0.0002
803.202	-0.0012
803.433	-0.0008
803.663	-0.0011
803.894	0
804.124	0.0002
804.354	0.0001
804.585	-0.0006
804.815	-0.0002
805.045	-0.0004
805.275	-0.0013
805.506	-0.032
805.736	0.1118
805.966	0.0072
806.196	0.1249
