Data from 03 0.2 mM BQDS 0.4 mM K2Cr2O7 1 M H2SO4 5 min_Absorbance_23-22-42-347.txt Node
Date: Tue Dec 07 23:22:42 EST 2021
User: kwabilab-user
Spectrometer: HDX00518
Trigger mode: 0
Integration Time (sec): 5.000000E-2
Scans to average: 50
Nonlinearity correction enabled: false
Boxcar width: 0
Storing dark spectrum: false
XAxis mode: Wavelengths
Number of Pixels in Spectrum: 2068
>>>>>Begin Spectral Data<<<<<
195.27	0.3639
195.642	0.1671
196.014	0.2296
196.386	0.0564
196.758	0.0897
197.129	0.0475
197.501	0.0729
197.872	0.1063
198.244	0.1203
198.615	0.1363
198.986	0.1261
199.357	0.1293
199.728	0.1339
200.099	0.1149
200.47	0.1309
200.841	0.1312
201.212	0.1387
201.582	0.1134
201.953	0.1433
202.323	0.1434
202.694	0.1077
203.064	0.1505
203.434	0.1121
203.804	0.1424
204.174	0.1336
204.544	0.1444
204.914	0.1357
205.284	0.1338
205.653	0.1434
206.023	0.1316
206.393	0.1387
206.762	0.1325
207.131	0.1385
207.501	0.1555
207.87	0.1597
208.239	0.1453
208.608	0.1358
208.977	0.1704
209.346	0.1606
209.715	0.1529
210.083	0.1785
210.452	0.1579
210.82	0.1616
211.189	0.1712
211.557	0.1681
211.925	0.1754
212.294	0.1885
212.662	0.2015
213.03	0.2008
213.398	0.1727
213.766	0.2201
214.133	0.2223
214.501	0.2408
214.869	0.2338
215.236	0.2795
215.604	0.2514
215.971	0.28
216.338	0.2938
216.705	0.3166
217.072	0.3362
217.439	0.3402
217.806	0.3893
218.173	0.4123
218.54	0.4321
218.907	0.4682
219.273	0.5077
219.64	0.5251
220.006	0.5704
220.373	0.6131
220.739	0.6452
221.105	0.6952
221.471	0.7042
221.837	0.7505
222.203	0.7968
222.569	0.8167
222.935	0.8517
223.3	0.869
223.666	0.9084
224.031	0.9361
224.397	0.9404
224.762	0.9601
225.127	0.9744
225.493	0.9913
225.858	1.0064
226.223	1.0179
226.588	1.0201
226.952	1.0203
227.317	1.0338
227.682	1.0217
228.046	1.0156
228.411	1.0218
228.775	1.0263
229.14	1.0122
229.504	1.0052
229.868	1.0089
230.232	0.9922
230.596	0.9909
230.96	0.9808
231.324	0.9721
231.688	0.9606
232.052	0.9565
232.415	0.9426
232.779	0.9401
233.142	0.9278
233.505	0.9236
233.869	0.9126
234.232	0.9034
234.595	0.8889
234.958	0.8799
235.321	0.8729
235.684	0.8621
236.047	0.8531
236.409	0.8422
236.772	0.8341
237.134	0.8251
237.497	0.8174
237.859	0.8124
238.222	0.8008
238.584	0.7919
238.946	0.7815
239.308	0.7775
239.67	0.7707
240.032	0.7675
240.393	0.7563
240.755	0.7513
241.117	0.7441
241.478	0.7408
241.84	0.7316
242.201	0.7261
242.562	0.72
242.924	0.7179
243.285	0.7105
243.646	0.7043
244.007	0.7006
244.368	0.6981
244.728	0.6912
245.089	0.6884
245.45	0.6833
245.81	0.6806
246.171	0.6766
246.531	0.6751
246.891	0.6697
247.252	0.6683
247.612	0.6646
247.972	0.6642
248.332	0.658
248.692	0.6574
249.051	0.6539
249.411	0.6535
249.771	0.6512
250.13	0.6486
250.49	0.6503
250.849	0.6477
251.208	0.6449
251.568	0.6415
251.927	0.6411
252.286	0.6412
252.645	0.6396
253.004	0.6385
253.363	0.6352
253.721	0.636
254.08	0.6356
254.439	0.6343
254.797	0.6304
255.155	0.6301
255.514	0.6303
255.872	0.6296
256.23	0.6279
256.588	0.6283
256.946	0.6287
257.304	0.6255
257.662	0.6257
258.02	0.6237
258.377	0.6225
258.735	0.6231
259.093	0.623
259.45	0.6226
259.807	0.6197
260.165	0.6192
260.522	0.6173
260.879	0.6167
261.236	0.6164
261.593	0.6139
261.95	0.6108
262.306	0.6112
262.663	0.6084
263.02	0.6098
263.376	0.6083
263.733	0.6041
264.089	0.6035
264.445	0.6009
264.802	0.5985
265.158	0.5976
265.514	0.596
265.87	0.5942
266.226	0.5909
266.581	0.5902
266.937	0.5867
267.293	0.5849
267.648	0.5823
268.004	0.5798
268.359	0.5757
268.714	0.5742
269.07	0.573
269.425	0.5683
269.78	0.5678
270.135	0.564
270.49	0.5621
270.844	0.5593
271.199	0.5573
271.554	0.5529
271.908	0.5498
272.263	0.547
272.617	0.543
272.972	0.5397
273.326	0.5367
273.68	0.5332
274.034	0.5299
274.388	0.5248
274.742	0.5227
275.096	0.5179
275.45	0.5135
275.803	0.5102
276.157	0.506
276.51	0.5032
276.864	0.4995
277.217	0.4942
277.571	0.489
277.924	0.4867
278.277	0.4815
278.63	0.4761
278.983	0.4728
279.336	0.4693
279.688	0.4652
280.041	0.4594
280.394	0.4548
280.746	0.4519
281.099	0.4461
281.451	0.4412
281.803	0.4374
282.156	0.4342
282.508	0.4291
282.86	0.4249
283.212	0.4201
283.564	0.4168
283.916	0.4112
284.267	0.4064
284.619	0.4023
284.971	0.3992
285.322	0.395
285.673	0.3902
286.025	0.3867
286.376	0.3824
286.727	0.3774
287.078	0.3732
287.429	0.3697
287.78	0.365
288.131	0.3602
288.482	0.356
288.833	0.3533
289.183	0.3483
289.534	0.3443
289.884	0.3396
290.235	0.3354
290.585	0.3312
290.935	0.3278
291.285	0.3232
291.635	0.32
291.985	0.3146
292.335	0.311
292.685	0.3073
293.035	0.304
293.384	0.2988
293.734	0.2948
294.083	0.2912
294.433	0.2872
294.782	0.2834
295.131	0.28
295.48	0.277
295.829	0.2729
296.179	0.2678
296.527	0.2656
296.876	0.2623
297.225	0.2585
297.574	0.2548
297.922	0.2512
298.271	0.2482
298.619	0.2439
298.968	0.2419
299.316	0.2376
299.664	0.2352
300.012	0.2321
300.36	0.2281
300.708	0.2259
301.056	0.2231
301.404	0.2204
301.752	0.2174
302.099	0.2156
302.447	0.2128
302.794	0.2103
303.142	0.2075
303.489	0.2052
303.836	0.2035
304.183	0.2003
304.531	0.1989
304.878	0.1967
305.224	0.1945
305.571	0.1928
305.918	0.191
306.265	0.1886
306.611	0.1878
306.958	0.1863
307.304	0.1843
307.651	0.183
307.997	0.1818
308.343	0.1804
308.689	0.1795
309.035	0.1781
309.381	0.177
309.727	0.1758
310.073	0.176
310.419	0.1748
310.764	0.1737
311.11	0.1731
311.455	0.1727
311.801	0.1722
312.146	0.1715
312.491	0.1705
312.837	0.1707
313.182	0.1708
313.527	0.1701
313.872	0.17
314.216	0.1699
314.561	0.1693
314.906	0.1703
315.251	0.1695
315.595	0.1694
315.94	0.1695
316.284	0.1697
316.628	0.1697
316.972	0.1699
317.317	0.1704
317.661	0.1707
318.005	0.1715
318.348	0.1716
318.692	0.1717
319.036	0.1724
319.38	0.1728
319.723	0.1735
320.067	0.174
320.41	0.1749
320.754	0.1757
321.097	0.176
321.44	0.1773
321.783	0.178
322.126	0.1787
322.469	0.1803
322.812	0.1808
323.155	0.1824
323.498	0.184
323.84	0.1849
324.183	0.1855
324.525	0.1867
324.868	0.1876
325.21	0.1888
325.552	0.1907
325.894	0.1907
326.236	0.1923
326.578	0.1933
326.92	0.1948
327.262	0.1961
327.604	0.1975
327.946	0.1991
328.287	0.1998
328.629	0.2015
328.97	0.2029
329.312	0.2038
329.653	0.205
329.994	0.2074
330.335	0.2086
330.676	0.2094
331.017	0.2102
331.358	0.2123
331.699	0.2143
332.04	0.2157
332.38	0.2166
332.721	0.219
333.061	0.2195
333.402	0.2206
333.742	0.2228
334.083	0.2244
334.423	0.2252
334.763	0.2261
335.103	0.2277
335.443	0.2284
335.783	0.2301
336.123	0.2301
336.462	0.2323
336.802	0.2333
337.141	0.2342
337.481	0.2355
337.82	0.2354
338.16	0.2377
338.499	0.2385
338.838	0.2391
339.177	0.2418
339.516	0.2422
339.855	0.2432
340.194	0.2439
340.533	0.2455
340.872	0.2454
341.21	0.2477
341.549	0.2483
341.887	0.2492
342.226	0.2493
342.564	0.2492
342.902	0.25
343.24	0.2505
343.578	0.2506
343.916	0.2522
344.254	0.2515
344.592	0.252
344.93	0.2526
345.268	0.2524
345.605	0.2525
345.943	0.2533
346.28	0.2527
346.618	0.253
346.955	0.2537
347.292	0.253
347.629	0.2536
347.966	0.2539
348.303	0.2533
348.64	0.2535
348.977	0.2535
349.314	0.254
349.65	0.2541
349.987	0.2539
350.324	0.2531
350.66	0.2529
350.996	0.2537
351.333	0.2514
351.669	0.2514
352.005	0.2505
352.341	0.2498
352.677	0.2499
353.013	0.2473
353.349	0.2473
353.685	0.2456
354.02	0.2458
354.356	0.2441
354.691	0.2428
355.027	0.2425
355.362	0.2411
355.697	0.2402
356.033	0.2388
356.368	0.238
356.703	0.2374
357.038	0.2362
357.373	0.2356
357.707	0.2348
358.042	0.2336
358.377	0.2322
358.711	0.2314
359.046	0.2304
359.38	0.2288
359.715	0.2274
360.049	0.2275
360.383	0.226
360.717	0.2244
361.051	0.2226
361.385	0.2222
361.719	0.2195
362.053	0.2179
362.387	0.2156
362.72	0.2146
363.054	0.2126
363.387	0.2107
363.721	0.209
364.054	0.2067
364.387	0.2045
364.721	0.2033
365.054	0.2015
365.387	0.1996
365.72	0.1985
366.053	0.1965
366.385	0.1945
366.718	0.1934
367.051	0.1915
367.383	0.1902
367.716	0.1893
368.048	0.1879
368.381	0.187
368.713	0.1851
369.045	0.184
369.377	0.1822
369.709	0.1809
370.041	0.1788
370.373	0.1778
370.705	0.1758
371.037	0.1745
371.368	0.1727
371.7	0.1711
372.031	0.1694
372.363	0.1671
372.694	0.1661
373.025	0.1633
373.356	0.1615
373.688	0.1596
374.019	0.1565
374.35	0.1554
374.68	0.1531
375.011	0.1501
375.342	0.1489
375.673	0.1477
376.003	0.1448
376.334	0.1431
376.664	0.1414
376.995	0.1395
377.325	0.1384
377.655	0.1373
377.985	0.1354
378.315	0.1342
378.645	0.1325
378.975	0.1307
379.305	0.1295
379.635	0.1288
379.964	0.1271
380.294	0.1261
380.623	0.1242
380.953	0.1237
381.282	0.1218
381.611	0.1205
381.941	0.1187
382.27	0.1172
382.599	0.1158
382.928	0.1148
383.257	0.1127
383.585	0.1119
383.914	0.1106
384.243	0.1084
384.571	0.1066
384.9	0.1047
385.228	0.1035
385.557	0.1018
385.885	0.0997
386.213	0.0984
386.541	0.0969
386.869	0.0951
387.197	0.093
387.525	0.0915
387.853	0.0903
388.181	0.0889
388.508	0.0878
388.836	0.087
389.164	0.0856
389.491	0.0842
389.818	0.083
390.146	0.082
390.473	0.0802
390.8	0.0791
391.127	0.078
391.454	0.0771
391.781	0.0762
392.108	0.0755
392.435	0.0738
392.761	0.0726
393.088	0.072
393.415	0.0713
393.741	0.0705
394.067	0.0692
394.394	0.069
394.72	0.0683
395.046	0.067
395.372	0.0654
395.698	0.0649
396.024	0.064
396.35	0.0633
396.676	0.0626
397.001	0.0623
397.327	0.0605
397.653	0.0595
397.978	0.0584
398.303	0.0573
398.629	0.0568
398.954	0.0562
399.279	0.0556
399.604	0.0551
399.929	0.0546
400.254	0.0537
400.579	0.0536
400.904	0.0523
401.229	0.0518
401.553	0.0511
401.878	0.0501
402.202	0.0494
402.527	0.0492
402.851	0.0493
403.175	0.0483
403.5	0.0483
403.824	0.0486
404.148	0.0473
404.472	0.0475
404.796	0.0464
405.119	0.046
405.443	0.0458
405.767	0.0451
406.09	0.045
406.414	0.0453
406.737	0.045
407.061	0.0447
407.384	0.0447
407.707	0.0439
408.03	0.044
408.353	0.0443
408.676	0.0436
408.999	0.0436
409.322	0.0438
409.645	0.0438
409.968	0.0426
410.29	0.0431
410.613	0.0427
410.935	0.0426
411.258	0.0428
411.58	0.0429
411.902	0.0424
412.224	0.0427
412.546	0.0423
412.868	0.0417
413.19	0.0422
413.512	0.0419
413.834	0.0424
414.156	0.0424
414.477	0.0422
414.799	0.0421
415.121	0.0428
415.442	0.0425
415.763	0.0425
416.085	0.0427
416.406	0.0422
416.727	0.0425
417.048	0.042
417.369	0.0419
417.69	0.042
418.011	0.0423
418.331	0.0421
418.652	0.042
418.973	0.0429
419.293	0.0422
419.614	0.0429
419.934	0.042
420.254	0.0427
420.574	0.0419
420.895	0.0428
421.215	0.0421
421.535	0.042
421.855	0.042
422.174	0.0421
422.494	0.0421
422.814	0.0429
423.134	0.0422
423.453	0.0427
423.773	0.0422
424.092	0.0424
424.411	0.0423
424.731	0.0428
425.05	0.0426
425.369	0.0432
425.688	0.0432
426.007	0.0435
426.326	0.0432
426.644	0.0438
426.963	0.0441
427.282	0.044
427.6	0.0435
427.919	0.0429
428.237	0.0437
428.556	0.0444
428.874	0.0438
429.192	0.0431
429.51	0.0436
429.828	0.0442
430.146	0.0437
430.464	0.0434
430.782	0.0441
431.1	0.0443
431.418	0.0433
431.735	0.0436
432.053	0.0447
432.37	0.0443
432.688	0.0439
433.005	0.0444
433.322	0.0447
433.639	0.0444
433.957	0.0444
434.274	0.0443
434.591	0.0442
434.907	0.0444
435.224	0.0443
435.541	0.0447
435.858	0.0455
436.174	0.0453
436.491	0.045
436.807	0.0446
437.124	0.0434
437.44	0.0438
437.756	0.0433
438.072	0.0435
438.388	0.0449
438.704	0.0443
439.02	0.0442
439.336	0.0439
439.652	0.0443
439.968	0.0445
440.283	0.0439
440.599	0.0445
440.914	0.0439
441.23	0.0437
441.545	0.0445
441.86	0.0441
442.175	0.0441
442.491	0.0436
442.806	0.0441
443.121	0.0439
443.435	0.0434
443.75	0.0434
444.065	0.0433
444.38	0.0436
444.694	0.0434
445.009	0.0433
445.323	0.0436
445.638	0.0435
445.952	0.0438
446.266	0.0432
446.58	0.0439
446.894	0.0439
447.208	0.0437
447.522	0.0439
447.836	0.043
448.15	0.0429
448.464	0.0424
448.777	0.0428
449.091	0.0425
449.404	0.0432
449.718	0.043
450.031	0.0424
450.345	0.0423
450.658	0.0428
450.971	0.0422
451.284	0.0419
451.597	0.042
451.91	0.0429
452.223	0.0417
452.535	0.0425
452.848	0.042
453.161	0.0421
453.473	0.0426
453.786	0.0414
454.098	0.0413
454.411	0.0411
454.723	0.0411
455.035	0.0406
455.347	0.0413
455.659	0.0414
455.971	0.0413
456.283	0.0411
456.595	0.0407
456.907	0.0403
457.218	0.0415
457.53	0.0401
457.841	0.0396
458.153	0.0394
458.464	0.0399
458.776	0.0384
459.087	0.0395
459.398	0.0391
459.709	0.0393
460.02	0.0386
460.331	0.0385
460.642	0.0381
460.953	0.0384
461.263	0.0386
461.574	0.0383
461.885	0.0383
462.195	0.0381
462.506	0.0376
462.816	0.0376
463.126	0.0366
463.437	0.0362
463.747	0.036
464.057	0.0363
464.367	0.0357
464.677	0.036
464.987	0.0365
465.296	0.0359
465.606	0.0356
465.916	0.0355
466.225	0.0355
466.535	0.035
466.844	0.0343
467.154	0.0339
467.463	0.0343
467.772	0.0349
468.081	0.0342
468.39	0.0336
468.699	0.0333
469.008	0.0336
469.317	0.0335
469.626	0.0332
469.935	0.0334
470.243	0.0337
470.552	0.0338
470.86	0.0331
471.169	0.0322
471.477	0.0323
471.785	0.0319
472.093	0.0318
472.402	0.0321
472.71	0.0314
473.018	0.0311
473.326	0.0306
473.633	0.0309
473.941	0.031
474.249	0.0299
474.556	0.0299
474.864	0.0301
475.171	0.0288
475.479	0.03
475.786	0.0301
476.094	0.0297
476.401	0.0296
476.708	0.0291
477.015	0.0291
477.322	0.0275
477.629	0.0284
477.936	0.0274
478.242	0.0285
478.549	0.028
478.856	0.0268
479.162	0.0277
479.469	0.0272
479.775	0.027
480.081	0.0265
480.388	0.0265
480.694	0.0261
481	0.0263
481.306	0.0261
481.612	0.026
481.918	0.0251
482.224	0.0259
482.53	0.0254
482.835	0.0251
483.141	0.0242
483.446	0.0243
483.752	0.0233
484.057	0.0231
484.363	0.0236
484.668	0.0228
484.973	0.0229
485.278	0.0228
485.583	0.022
485.888	0.0219
486.193	0.0217
486.498	0.0221
486.803	0.0227
487.107	0.0213
487.412	0.021
487.717	0.0208
488.021	0.0211
488.325	0.0204
488.63	0.0193
488.934	0.0206
489.238	0.0213
489.542	0.0198
489.846	0.0194
490.15	0.0207
490.454	0.0202
490.758	0.0199
491.062	0.019
491.366	0.0198
491.669	0.0196
491.973	0.0179
492.276	0.0192
492.58	0.0168
492.883	0.0178
493.186	0.0185
493.489	0.0177
493.792	0.0183
494.096	0.0179
494.399	0.0175
494.701	0.0175
495.004	0.0168
495.307	0.016
495.61	0.0167
495.912	0.0157
496.215	0.0154
496.517	0.0159
496.82	0.0157
497.122	0.0157
497.424	0.015
497.727	0.0149
498.029	0.015
498.331	0.0158
498.633	0.0152
498.935	0.0148
499.237	0.0156
499.538	0.0148
499.84	0.0139
500.142	0.0148
500.443	0.0141
500.745	0.0135
501.046	0.0139
501.348	0.0132
501.649	0.0141
501.95	0.0125
502.251	0.0135
502.552	0.0127
502.853	0.0119
503.154	0.0126
503.455	0.0117
503.756	0.0127
504.057	0.0124
504.357	0.0119
504.658	0.011
504.958	0.0119
505.259	0.0125
505.559	0.0125
505.859	0.0113
506.16	0.0116
506.46	0.0112
506.76	0.011
507.06	0.0104
507.36	0.0106
507.66	0.0118
507.96	0.0113
508.259	0.0111
508.559	0.0103
508.859	0.0106
509.158	0.0099
509.457	0.0098
509.757	0.0109
510.056	0.0096
510.355	0.0094
510.655	0.0086
510.954	0.0102
511.253	0.0091
511.552	0.0097
511.851	0.0086
512.149	0.0081
512.448	0.0089
512.747	0.0097
513.045	0.0076
513.344	0.0094
513.642	0.009
513.941	0.0086
514.239	0.0085
514.537	0.0087
514.836	0.0085
515.134	0.0078
515.432	0.0082
515.73	0.0091
516.028	0.0072
516.326	0.0087
516.623	0.007
516.921	0.0074
517.219	0.0085
517.516	0.0073
517.814	0.0073
518.111	0.0078
518.409	0.0087
518.706	0.0078
519.003	0.0081
519.3	0.0071
519.597	0.0069
519.894	0.0071
520.191	0.0075
520.488	0.007
520.785	0.0054
521.082	0.0066
521.378	0.0068
521.675	0.0056
521.971	0.0058
522.268	0.0052
522.564	0.0063
522.861	0.0056
523.157	0.0058
523.453	0.0054
523.749	0.0064
524.045	0.0079
524.341	0.0059
524.637	0.0056
524.933	0.0048
525.229	0.0055
525.524	0.004
525.82	0.0068
526.115	0.0052
526.411	0.0048
526.706	0.0058
527.002	0.005
527.297	0.0033
527.592	0.0067
527.887	0.0059
528.182	0.0058
528.477	0.0068
528.772	0.0054
529.067	0.0055
529.362	0.0054
529.657	0.0048
529.951	0.0045
530.246	0.0053
530.54	0.003
530.835	0.004
531.129	0.0034
531.423	0.0049
531.718	0.0039
532.012	0.0043
532.306	0.0039
532.6	0.0043
532.894	0.0037
533.188	0.0053
533.482	0.0038
533.775	0.0037
534.069	0.0042
534.363	0.0031
534.656	0.0045
534.95	0.0027
535.243	0.0035
535.536	0.0041
535.83	0.0036
536.123	0.0029
536.416	0.0043
536.709	0.0041
537.002	0.0038
537.295	0.0038
537.588	0.0045
537.881	0.0037
538.173	0.0028
538.466	0.0031
538.759	0.0027
539.051	0.0026
539.344	0.0029
539.636	0.0036
539.928	0.0031
540.22	0.003
540.513	0.0033
540.805	0.0037
541.097	0.0034
541.389	0.0035
541.681	0.0018
541.972	0.004
542.264	0.0038
542.556	0.0037
542.847	0.0035
543.139	0.0037
543.431	0.0049
543.722	0.0038
544.013	0.0041
544.305	0.0051
544.596	0.0055
544.887	0.0038
545.178	0.004
545.469	0.0028
545.76	0.0028
546.051	0.0038
546.342	0.0048
546.632	0.0019
546.923	0.0037
547.214	0.0037
547.504	0.0038
547.795	0.0032
548.085	0.004
548.375	0.0036
548.666	0.0033
548.956	0.0017
549.246	0.003
549.536	0.0031
549.826	0.0031
550.116	0.0033
550.406	0.004
550.695	0.0046
550.985	0.0039
551.275	0.0047
551.564	0.0031
551.854	0.0041
552.143	0.0042
552.433	0.0041
552.722	0.0034
553.011	0.0042
553.3	0.0049
553.589	0.004
553.879	0.004
554.167	0.0044
554.456	0.0027
554.745	0.003
555.034	0.0021
555.323	0.0019
555.611	0.0029
555.9	0.0046
556.188	0.0038
556.477	0.0035
556.765	0.0022
557.053	0.0033
557.342	0.0025
557.63	0.0042
557.918	0.0035
558.206	0.0037
558.494	0.003
558.782	0.0022
559.069	0.0037
559.357	0.0036
559.645	0.0022
559.932	0.0023
560.22	0.0038
560.507	0.0032
560.795	0.0025
561.082	0.0021
561.37	0.0035
561.657	0.0025
561.944	0.0032
562.231	0.0033
562.518	0.002
562.805	0.0031
563.092	0.0039
563.379	0.0031
563.665	0.0028
563.952	0.004
564.239	0.0041
564.525	0.0047
564.811	0.0037
565.098	0.0034
565.384	0.0042
565.67	0.0041
565.957	0.0034
566.243	0.0033
566.529	0.004
566.815	0.0045
567.101	0.0038
567.387	0.0027
567.672	0.0025
567.958	0.0031
568.244	0.0034
568.529	0.0034
568.815	0.0028
569.1	0.0035
569.386	0.0031
569.671	0.0033
569.956	0.0031
570.242	0.0034
570.527	0.0039
570.812	0.0035
571.097	0.0035
571.382	0.0041
571.666	0.0031
571.951	0.0033
572.236	0.0042
572.521	0.0028
572.805	0.0034
573.09	0.0033
573.374	0.0032
573.659	0.0022
573.943	0.0038
574.227	0.0034
574.511	0.0039
574.795	0.0032
575.079	0.003
575.363	0.003
575.647	0.0037
575.931	0.0033
576.215	0.003
576.499	0.0029
576.782	0.0032
577.066	0.0024
577.349	0.0034
577.633	0.0038
577.916	0.0042
578.2	0.004
578.483	0.0036
578.766	0.0027
579.049	0.004
579.332	0.0027
579.615	0.003
579.898	0.0033
580.181	0.0029
580.464	0.0031
580.746	0.0015
581.029	0.0028
581.312	0.0023
581.594	0.003
581.877	0.0033
582.159	0.0035
582.441	0.0033
582.724	0.0025
583.006	0.0024
583.288	0.0024
583.57	0.0024
583.852	0.0027
584.134	0.0024
584.416	0.0035
584.697	0.0026
584.979	0.0026
585.261	0.0028
585.542	0.003
585.824	0.0032
586.105	0.0027
586.387	0.0025
586.668	0.0025
586.949	0.0027
587.231	0.0025
587.512	0.0028
587.793	0.0028
588.074	0.003
588.355	0.0028
588.636	0.0043
588.916	0.0034
589.197	0.0028
589.478	0.003
589.758	0.0037
590.039	0.0026
590.319	0.003
590.6	0.0036
590.88	0.0026
591.16	0.003
591.441	0.0029
591.721	0.0026
592.001	0.0034
592.281	0.0031
592.561	0.0025
592.841	0.0034
593.12	0.0032
593.4	0.0022
593.68	0.003
593.959	0.0031
594.239	0.0039
594.518	0.0029
594.798	0.0019
595.077	0.0034
595.356	0.0029
595.636	0.0031
595.915	0.0033
596.194	0.0034
596.473	0.0029
596.752	0.0029
597.031	0.0023
597.31	0.0022
597.588	0.0022
597.867	0.0021
598.146	0.003
598.424	0.0027
598.703	0.0029
598.981	0.0029
599.259	0.0036
599.538	0.0035
599.816	0.0027
600.094	0.0033
600.372	0.0037
600.65	0.0034
600.928	0.0033
601.206	0.0036
601.484	0.0034
601.762	0.0037
602.04	0.0031
602.317	0.0033
602.595	0.0025
602.872	0.0035
603.15	0.0027
603.427	0.0028
603.704	0.0026
603.982	0.0028
604.259	0.0026
604.536	0.0018
604.813	0.002
605.09	0.0017
605.367	0.0024
605.644	0.0021
605.921	0.0023
606.197	0.0027
606.474	0.0018
606.751	0.0022
607.027	0.0026
607.304	0.0021
607.58	0.0024
607.856	0.0025
608.133	0.0026
608.409	0.0028
608.685	0.0022
608.961	0.0022
609.237	0.0019
609.513	0.0027
609.789	0.0034
610.065	0.0022
610.341	0.0022
610.616	0.0025
610.892	0.0038
611.167	0.0035
611.443	0.0035
611.718	0.0032
611.994	0.0028
612.269	0.0034
612.544	0.0023
612.819	0.0024
613.095	0.0032
613.37	0.0025
613.645	0.0024
613.919	0.0021
614.194	0.0027
614.469	0.0017
614.744	0.0014
615.019	0.0018
615.293	0.0008
615.568	0.0001
615.842	0.0012
616.116	0.0014
616.391	0.0014
616.665	0.0027
616.939	0.0016
617.213	0.0014
617.488	0.0008
617.762	0.0015
618.035	0.0016
618.309	0.0013
618.583	0.0021
618.857	0.0015
619.131	0.0028
619.404	0.0014
619.678	0.001
619.951	0.0006
620.225	0.0016
620.498	0.0021
620.771	0.0014
621.045	0.0027
621.318	0.002
621.591	0.0029
621.864	0.0017
622.137	0.0011
622.41	0.0019
622.683	0.0017
622.956	0.002
623.228	0.0022
623.501	0.0028
623.774	0.003
624.046	0.0017
624.319	0.0015
624.591	0.0015
624.863	0.0021
625.136	0.0015
625.408	0.0015
625.68	0.0015
625.952	0.0022
626.224	0.0016
626.496	0.0014
626.768	0.0009
627.04	0.0007
627.311	0.0016
627.583	0.0011
627.855	0.0018
628.126	0.0015
628.398	0.0023
628.669	0.001
628.941	0.001
629.212	0.0001
629.483	0.0005
629.755	0.0005
630.026	0.0003
630.297	0.0001
630.568	-0.0005
630.839	-0.0006
631.11	-0
631.38	-0.0002
631.651	-0
631.922	-0.001
632.192	-0.0007
632.463	-0.0002
632.733	0.0008
633.004	0.0008
633.274	0
633.545	0.0021
633.815	0.0028
634.085	0.0024
634.355	0.002
634.625	0.0028
634.895	0.0014
635.165	0.0001
635.435	0.0017
635.705	0.0026
635.974	0.0004
636.244	0.0011
636.514	0.0013
636.783	0.0016
637.053	0.0022
637.322	0.0013
637.591	0.0019
637.861	0.0015
638.13	0.0022
638.399	0.0018
638.668	0.0026
638.937	0.0008
639.206	0.0024
639.475	0.0013
639.744	0.0015
640.013	0.0014
640.281	0.0027
640.55	0.0027
640.819	0.0026
641.087	0.003
641.356	0.0018
641.624	0.0016
641.892	0.0022
642.161	0.0021
642.429	0.0026
642.697	0.0016
642.965	0.0028
643.233	0.003
643.501	0.0012
643.769	0.0013
644.037	0.0015
644.305	0.0001
644.572	-0.0009
644.84	-0.0001
645.108	0.0008
645.375	-0.0005
645.643	0.0006
645.91	-0.0001
646.177	0.0021
646.445	0.0037
646.712	0.0042
646.979	0.0041
647.246	0.0032
647.513	0.0039
647.78	0.0028
648.047	0.004
648.314	0.0028
648.58	0.0037
648.847	0.0018
649.114	0.0004
649.38	0.0003
649.647	0.0004
649.913	0.0004
650.18	0.0009
650.446	0.0012
650.712	0.0018
650.978	0.001
651.245	0.0019
651.511	0.0017
651.777	0.0019
652.043	0.0024
652.309	0.0022
652.574	0.0028
652.84	0.0029
653.106	0.002
653.371	0.0011
653.637	0.0019
653.903	0.0027
654.168	0.0023
654.433	0.0028
654.699	0.0025
654.964	0.0031
655.229	0.0033
655.494	0.0024
655.759	0.0007
656.024	0.0006
656.289	-0
656.554	-0.0011
656.819	-0.0001
657.084	0.0021
657.349	0.0033
657.613	0.0027
657.878	0.0021
658.142	0.0031
658.407	0.0026
658.671	0.0022
658.936	0.0017
659.2	0.0008
659.464	0.0006
659.728	0.0007
659.992	0.0013
660.256	0.0005
660.52	0.0002
660.784	-0
661.048	-0.001
661.312	-0.0021
661.575	-0.0016
661.839	-0.0022
662.103	-0.0021
662.366	-0.0025
662.63	-0.0015
662.893	-0.001
663.156	-0.0009
663.42	-0.0005
663.683	-0.0002
663.946	0.001
664.209	0.0031
664.472	0.0029
664.735	0.0021
664.998	0.0018
665.261	0.0011
665.524	0.0009
665.786	0.0003
666.049	0.0008
666.312	0.0017
666.574	0.0016
666.837	0.0009
667.099	-0.0004
667.361	0.0001
667.624	-0.0006
667.886	-0
668.148	0.0005
668.41	0.0011
668.672	0.0001
668.934	0.0004
669.196	0.001
669.458	0.0008
669.72	0.0015
669.982	0.0013
670.243	0.002
670.505	0.0025
670.766	0.001
671.028	0.0014
671.289	0.0012
671.551	0.0002
671.812	0
672.073	0.0007
672.334	0.0003
672.596	0.0009
672.857	0.0005
673.118	-0.0001
673.379	-0.0003
673.639	-0.0006
673.9	-0.0001
674.161	-0.0024
674.422	-0.0029
674.682	-0.0021
674.943	-0.0023
675.203	-0.0013
675.464	-0.0008
675.724	-0.0006
675.985	0.0001
676.245	0.0006
676.505	0.0012
676.765	0.001
677.025	0.0003
677.285	0.0009
677.545	0.0017
677.805	0.0022
678.065	0.0026
678.325	0.0021
678.585	0.0015
678.844	0.0016
679.104	0.0019
679.363	0.0024
679.623	0.0031
679.882	0.0031
680.142	0.0033
680.401	0.0028
680.66	0.0034
680.919	0.0028
681.178	0.0037
681.437	0.003
681.696	0.0024
681.955	0.0031
682.214	0.0035
682.473	0.0039
682.732	0.0015
682.99	0.0021
683.249	0.0026
683.508	0.003
683.766	0.0029
684.024	0.0034
684.283	0.0035
684.541	0.0029
684.799	0.0033
685.058	0.0031
685.316	0.0023
685.574	0.0028
685.832	0.0036
686.09	0.003
686.348	0.0028
686.606	0.0024
686.863	0.0038
687.121	0.0032
687.379	0.003
687.636	0.0036
687.894	0.0036
688.151	0.0043
688.409	0.0041
688.666	0.0036
688.923	0.0037
689.181	0.0031
689.438	0.0016
689.695	0.0016
689.952	0.0005
690.209	0.0017
690.466	0.0012
690.723	0.0031
690.979	0.0023
691.236	0.002
691.493	0.0021
691.75	0.0024
692.006	0.0023
692.263	0.0022
692.519	0.002
692.775	0.0009
693.032	-0.0001
693.288	0.0009
693.544	0.0016
693.8	0.0016
694.056	0.0021
694.313	0.0015
694.568	0.0015
694.824	0.0026
695.08	0.003
695.336	0.0031
695.592	0.0022
695.847	0.0019
696.103	0.0022
696.359	0.0025
696.614	0.0022
696.869	0.0013
697.125	0.0013
697.38	0.0006
697.635	0.0004
697.891	0.001
698.146	0.0006
698.401	0.0017
698.656	0.0012
698.911	0.0025
699.166	0.0016
699.42	0.0013
699.675	0.0011
699.93	0.0007
700.185	0.0012
700.439	0.0029
700.694	0.0018
700.948	0.0025
701.203	0.0028
701.457	0.0015
701.711	0.001
701.965	-0.0003
702.22	-0.0001
702.474	0.0001
702.728	-0.0005
702.982	-0.0009
703.236	-0.0002
703.49	0.0001
703.743	-0.0004
703.997	0.0004
704.251	0.0004
704.504	0.0004
704.758	0.0007
705.012	0.0001
705.265	0.0002
705.518	-0.0003
705.772	-0.0009
706.025	-0.0007
706.278	-0.0013
706.531	-0.0013
706.785	-0.0017
707.038	0.0002
707.291	-0.0004
707.543	0.0007
707.796	0.0003
708.049	-0.0005
708.302	-0.001
708.555	-0
708.807	0.0005
709.06	-0.0001
709.312	-0.0015
709.565	-0.0012
709.817	-0.0022
710.069	-0.0008
710.322	-0.0009
710.574	-0.0001
710.826	-0.0003
711.078	0.0006
711.33	0.0007
711.582	-0.0001
711.834	0.0013
712.086	0.0014
712.338	0.0027
712.59	0.0028
712.841	0.0016
713.093	0.0017
713.344	0.0019
713.596	0.0023
713.847	0.0021
714.099	0.0028
714.35	0.003
714.601	0.0028
714.853	0.0038
715.104	0.004
715.355	0.0028
715.606	0.0026
715.857	0.0026
716.108	0.0031
716.359	0.0031
716.609	0.0031
716.86	0.0025
717.111	0.0014
717.361	-0.0001
717.612	0.001
717.863	0.0004
718.113	0.0013
718.363	0.0004
718.614	0.0003
718.864	0.0009
719.114	0.0011
719.364	0.0003
719.614	-0.0003
719.865	-0.0017
720.114	-0.0004
720.364	-0.0003
720.614	0.001
720.864	0.0019
721.114	0.0012
721.364	0.0023
721.613	0.0026
721.863	0.0033
722.112	0.0028
722.362	0.0036
722.611	0.0033
722.86	0.0018
723.11	0.0007
723.359	0.001
723.608	0.0021
723.857	0.0025
724.106	0.0043
724.355	0.0037
724.604	0.0044
724.853	0.004
725.102	0.0033
725.351	0.0025
725.599	0.0017
725.848	0.002
726.097	0.001
726.345	0.0012
726.594	0.0014
726.842	0.0003
727.09	0.0002
727.339	0.0005
727.587	-0.0004
727.835	-0.0005
728.083	-0.0004
728.331	-0.001
728.579	-0.0009
728.827	0
729.075	0.0005
729.323	0.0014
729.571	0.0027
729.818	0.0022
730.066	0.0021
730.314	0.0023
730.561	0.0005
730.809	0.0003
731.056	0.0005
731.303	0.0003
731.551	0.0008
731.798	0.0011
732.045	0.0007
732.292	0.0007
732.539	0.0008
732.786	0.0008
733.033	0.0021
733.28	0.0019
733.527	0.0034
733.774	0.0017
734.021	0.0031
734.267	0.0037
734.514	0.0033
734.76	0.0029
735.007	0.0046
735.253	0.0044
735.5	0.0042
735.746	0.0047
735.992	0.0046
736.238	0.0044
736.485	0.0048
736.731	0.0048
736.977	0.0045
737.223	0.0038
737.469	0.0048
737.715	0.0053
737.96	0.0062
738.206	0.0056
738.452	0.0073
738.697	0.0078
738.943	0.0065
739.189	0.0054
739.434	0.0037
739.679	0.003
739.925	0.0035
740.17	0.0022
740.415	0.0018
740.66	0.0026
740.906	0.0031
741.151	0.0029
741.396	0.0027
741.641	0.0048
741.886	0.0054
742.13	0.0058
742.375	0.0055
742.62	0.0064
742.865	0.005
743.109	0.0041
743.354	0.0037
743.598	0.0046
743.843	0.0046
744.087	0.005
744.331	0.0047
744.576	0.0042
744.82	0.0045
745.064	0.0041
745.308	0.0025
745.552	0.0028
745.796	0.0036
746.04	0.0031
746.284	0.0021
746.528	0.001
746.771	0.0022
747.015	0.0011
747.259	0.0011
747.502	0.0007
747.746	0.0012
747.989	0.0022
748.233	0.0034
748.476	0.0028
748.719	0.0044
748.963	0.0051
749.206	0.0043
749.449	0.0046
749.692	0.0033
749.935	0.0047
750.178	0.0039
750.421	0.0038
750.664	0.0038
750.906	0.0027
751.149	0.0015
751.392	0.001
751.635	-0.0002
751.877	-0.0009
752.12	-0.0008
752.362	-0.0001
752.604	-0.0007
752.847	0.0002
753.089	0.0007
753.331	0.0006
753.573	0.002
753.816	0.0022
754.058	0.0033
754.3	0.0033
754.542	0.0037
754.783	0.0028
755.025	0.0033
755.267	0.001
755.509	0.0012
755.75	0.0013
755.992	0.0025
756.234	0.0015
756.475	-0.0001
756.716	0.0001
756.958	0.0006
757.199	0.0005
757.44	0.0017
757.682	0.0015
757.923	0.0004
758.164	0.0004
758.405	-0.0007
758.646	0.0003
758.887	0.001
759.128	0.0005
759.369	-0.0001
759.609	-0.0001
759.85	-0
760.091	0.001
760.331	0.0002
760.572	-0.0001
760.812	-0.0007
761.053	-0.0006
761.293	0.0001
761.533	0.0013
761.774	0.0013
762.014	0.0014
762.254	0.0013
762.494	0.0001
762.734	0.0005
762.974	0.0005
763.214	-0.0005
763.454	-0.0009
763.694	-0.0005
763.933	-0.002
764.173	0
764.413	-0.0004
764.652	0.0001
764.892	0.0008
765.131	0.0011
765.371	0.0006
765.61	0.0013
765.849	0.0007
766.089	0.0007
766.328	0.0016
766.567	0.0018
766.806	0.0018
767.045	0.0019
767.284	0.0024
767.523	0.0035
767.762	0.0037
768.001	0.0027
768.239	0.0019
768.478	0.0016
768.717	0.0023
768.955	0.0029
769.194	0.0014
769.432	0.0025
769.671	0.0024
769.909	0.0022
770.148	0.0026
770.386	0.0028
770.624	0.0024
770.862	0.0022
771.1	0.002
771.338	0.0017
771.576	0.0024
771.814	0.0022
772.052	0.0021
772.29	0.0028
772.528	0.0029
772.765	0.0027
773.003	0.0027
773.24	0.002
773.478	0.0018
773.716	0.0025
773.953	0.0027
774.19	0.003
774.428	0.0028
774.665	0.0031
774.902	0.0035
775.139	0.0021
775.376	0.0028
775.613	0.0026
775.85	0.0031
776.087	0.0018
776.324	0.0021
776.561	0.0031
776.798	0.0048
777.034	0.005
777.271	0.0069
777.508	0.0058
777.744	0.0056
777.981	0.0055
778.217	0.0053
778.454	0.0055
778.69	0.0041
778.926	0.0053
779.162	0.0043
779.399	0.0034
779.635	0.0037
779.871	0.0035
780.107	0.004
780.343	0.0044
780.579	0.0054
780.814	0.0043
781.05	0.0036
781.286	0.0047
781.522	0.0037
781.757	0.0051
781.993	0.0057
782.228	0.0058
782.464	0.0055
782.699	0.0047
782.934	0.0042
783.17	0.0038
783.405	0.0032
783.64	0.0036
783.875	0.0033
784.11	0.0035
784.345	0.0038
784.58	0.0038
784.815	0.0042
785.05	0.0041
785.285	0.0034
785.52	0.0029
785.754	0.0033
785.989	0.0023
786.223	0.0021
786.458	0.0026
786.692	0.003
786.927	0.0025
787.161	0.0031
787.396	0.0023
787.63	0.0018
787.864	0.0009
788.098	0.0011
788.332	0.0016
788.566	0.0016
788.8	0.0006
789.034	0.0018
789.268	0.0014
789.502	0.0026
789.736	0.0023
789.969	0.003
790.203	0.0027
790.437	0.0019
790.67	0.0015
790.904	0.0019
791.137	0.0001
791.37	0.0003
791.604	0.0002
791.837	0.0004
792.07	0.0006
792.303	0.0013
792.537	0.0005
792.77	0.0008
793.003	0.0002
793.236	-0.0007
793.469	-0.0003
793.701	0
793.934	0.0007
794.167	0.0006
794.4	0.0011
794.632	0.0012
794.865	0.0003
795.097	0.0007
795.33	0.0023
795.562	0.0007
795.795	0.002
796.027	0.0013
796.259	0.0018
796.491	0.0008
796.724	0.0005
796.956	0.0014
797.188	0.0019
797.42	0.0009
797.652	0.0007
797.883	0.0013
798.115	0.0008
798.347	0.0004
798.579	-0.0005
798.81	-0.0012
799.042	-0.0014
799.274	-0.0014
799.505	-0.0009
799.737	-0.0015
799.968	-0.0015
800.199	-0.0014
800.431	-0.0009
800.662	-0.0006
800.893	-0.0008
801.124	0.0003
801.355	0.0006
801.586	-0.0001
801.817	0.0004
802.048	-0.0008
802.279	-0.0003
802.51	-0.0001
802.741	-0.0012
802.971	-0.0017
803.202	-0.0017
803.433	-0.0025
803.663	-0.0012
803.894	-0.0005
804.124	0.0004
804.354	0.0003
804.585	-0.0006
804.815	-0.0005
805.045	-0.0007
805.275	-0.0011
805.506	-0.0954
805.736	0.1137
805.966	0.0101
806.196	0.1224
