Data from 03 0.2 mM BQDS 0.4 mM K2Cr2O7 1 M H2SO4 5 min_Absorbance_08-47-42-445.txt Node
Date: Wed Dec 08 08:47:42 EST 2021
User: kwabilab-user
Spectrometer: HDX00518
Trigger mode: 0
Integration Time (sec): 5.000000E-2
Scans to average: 50
Nonlinearity correction enabled: false
Boxcar width: 0
Storing dark spectrum: false
XAxis mode: Wavelengths
Number of Pixels in Spectrum: 2068
>>>>>Begin Spectral Data<<<<<
195.27	-0.0989
195.642	0.0012
196.014	0.0139
196.386	-0.106
196.758	-0.0174
197.129	-0.0154
197.501	-0.009
197.872	0.0622
198.244	0.0908
198.615	0.0861
198.986	0.0792
199.357	0.082
199.728	0.1
200.099	0.0877
200.47	0.0765
200.841	0.0773
201.212	0.0687
201.582	0.0743
201.953	0.0944
202.323	0.0723
202.694	0.0732
203.064	0.086
203.434	0.0732
203.804	0.0981
204.174	0.078
204.544	0.0692
204.914	0.0728
205.284	0.0833
205.653	0.0962
206.023	0.0713
206.393	0.0806
206.762	0.0945
207.131	0.0838
207.501	0.0958
207.87	0.0895
208.239	0.0885
208.608	0.0943
208.977	0.0906
209.346	0.1075
209.715	0.102
210.083	0.1166
210.452	0.0956
210.82	0.1176
211.189	0.115
211.557	0.1193
211.925	0.1192
212.294	0.1385
212.662	0.1334
213.03	0.1418
213.398	0.119
213.766	0.151
214.133	0.1474
214.501	0.1734
214.869	0.1836
215.236	0.1858
215.604	0.2011
215.971	0.2112
216.338	0.2159
216.705	0.2548
217.072	0.2747
217.439	0.292
217.806	0.3206
218.173	0.337
218.54	0.3704
218.907	0.4039
219.273	0.4374
219.64	0.4802
220.006	0.5294
220.373	0.5443
220.739	0.5989
221.105	0.6235
221.471	0.6477
221.837	0.6982
222.203	0.7327
222.569	0.7743
222.935	0.7901
223.3	0.821
223.666	0.8519
224.031	0.8775
224.397	0.8911
224.762	0.922
225.127	0.9311
225.493	0.9582
225.858	0.9605
226.223	0.9707
226.588	0.9814
226.952	0.9859
227.317	0.9877
227.682	0.9851
228.046	0.9813
228.411	0.9886
228.775	0.9834
229.14	0.9839
229.504	0.9761
229.868	0.9746
230.232	0.964
230.596	0.9574
230.96	0.9565
231.324	0.9473
231.688	0.9336
232.052	0.93
232.415	0.9199
232.779	0.9125
233.142	0.9064
233.505	0.8931
233.869	0.886
234.232	0.8778
234.595	0.8674
234.958	0.8596
235.321	0.848
235.684	0.8392
236.047	0.8277
236.409	0.822
236.772	0.8077
237.134	0.8031
237.497	0.795
237.859	0.789
238.222	0.7814
238.584	0.7737
238.946	0.7638
239.308	0.7541
239.67	0.7504
240.032	0.7432
240.393	0.7362
240.755	0.7287
241.117	0.721
241.478	0.7157
241.84	0.7066
242.201	0.7
242.562	0.6934
242.924	0.689
243.285	0.6807
243.646	0.6766
244.007	0.6717
244.368	0.6672
244.728	0.6614
245.089	0.6586
245.45	0.6547
245.81	0.6499
246.171	0.6456
246.531	0.6401
246.891	0.6377
247.252	0.6333
247.612	0.6289
247.972	0.6283
248.332	0.6245
248.692	0.6217
249.051	0.6207
249.411	0.6153
249.771	0.6115
250.13	0.6123
250.49	0.6075
250.849	0.6075
251.208	0.6033
251.568	0.5995
251.927	0.5998
252.286	0.5976
252.645	0.5965
253.004	0.5917
253.363	0.5911
253.721	0.591
254.08	0.5862
254.439	0.5857
254.797	0.5852
255.155	0.5829
255.514	0.5831
255.872	0.5825
256.23	0.5793
256.588	0.5783
256.946	0.5764
257.304	0.5757
257.662	0.5739
258.02	0.5728
258.377	0.5687
258.735	0.5686
259.093	0.5674
259.45	0.5666
259.807	0.5654
260.165	0.5635
260.522	0.5601
260.879	0.5596
261.236	0.5587
261.593	0.5566
261.95	0.5548
262.306	0.5538
262.663	0.5519
263.02	0.55
263.376	0.5488
263.733	0.5463
264.089	0.5454
264.445	0.5434
264.802	0.5407
265.158	0.5374
265.514	0.5362
265.87	0.5347
266.226	0.5335
266.581	0.5312
266.937	0.527
267.293	0.5257
267.648	0.5249
268.004	0.5214
268.359	0.5191
268.714	0.5158
269.07	0.5133
269.425	0.5114
269.78	0.5105
270.135	0.5056
270.49	0.5033
270.844	0.5017
271.199	0.4996
271.554	0.4958
271.908	0.4926
272.263	0.4902
272.617	0.4874
272.972	0.4842
273.326	0.4818
273.68	0.48
274.034	0.4761
274.388	0.4724
274.742	0.4688
275.096	0.4664
275.45	0.4628
275.803	0.4594
276.157	0.4568
276.51	0.4528
276.864	0.4505
277.217	0.4459
277.571	0.4421
277.924	0.4387
278.277	0.4352
278.63	0.4314
278.983	0.4282
279.336	0.4259
279.688	0.4204
280.041	0.418
280.394	0.4132
280.746	0.41
281.099	0.4061
281.451	0.4017
281.803	0.3982
282.156	0.3959
282.508	0.3916
282.86	0.3879
283.212	0.3829
283.564	0.3793
283.916	0.3753
284.267	0.372
284.619	0.3681
284.971	0.3645
285.322	0.3603
285.673	0.3561
286.025	0.3537
286.376	0.3497
286.727	0.3448
287.078	0.3416
287.429	0.3384
287.78	0.3337
288.131	0.33
288.482	0.3257
288.833	0.3237
289.183	0.3188
289.534	0.3155
289.884	0.3114
290.235	0.3077
290.585	0.3028
290.935	0.2996
291.285	0.2961
291.635	0.2937
291.985	0.2892
292.335	0.2854
292.685	0.2829
293.035	0.2786
293.384	0.2743
293.734	0.271
294.083	0.2671
294.433	0.2629
294.782	0.2598
295.131	0.2563
295.48	0.2534
295.829	0.2493
296.179	0.2455
296.527	0.2421
296.876	0.2396
297.225	0.2374
297.574	0.2333
297.922	0.2301
298.271	0.2274
298.619	0.2229
298.968	0.2214
299.316	0.2182
299.664	0.2148
300.012	0.2128
300.36	0.2088
300.708	0.2068
301.056	0.2043
301.404	0.2025
301.752	0.1991
302.099	0.1972
302.447	0.1953
302.794	0.1926
303.142	0.1906
303.489	0.1883
303.836	0.1858
304.183	0.1841
304.531	0.1818
304.878	0.1802
305.224	0.1783
305.571	0.177
305.918	0.1756
306.265	0.1736
306.611	0.1721
306.958	0.1711
307.304	0.1695
307.651	0.1684
307.997	0.1672
308.343	0.1662
308.689	0.165
309.035	0.1635
309.381	0.1631
309.727	0.1617
310.073	0.1615
310.419	0.1608
310.764	0.1599
311.11	0.1592
311.455	0.1587
311.801	0.1583
312.146	0.1575
312.491	0.1568
312.837	0.1572
313.182	0.1569
313.527	0.1561
313.872	0.1557
314.216	0.156
314.561	0.1559
314.906	0.1561
315.251	0.1561
315.595	0.1553
315.94	0.1556
316.284	0.156
316.628	0.1557
316.972	0.1555
317.317	0.1562
317.661	0.1574
318.005	0.1568
318.348	0.1574
318.692	0.1578
319.036	0.1582
319.38	0.1591
319.723	0.1594
320.067	0.1597
320.41	0.1605
320.754	0.1614
321.097	0.1619
321.44	0.1625
321.783	0.1631
322.126	0.1639
322.469	0.1651
322.812	0.1662
323.155	0.1673
323.498	0.1675
323.84	0.1688
324.183	0.1692
324.525	0.1706
324.868	0.1718
325.21	0.173
325.552	0.1738
325.894	0.1746
326.236	0.1764
326.578	0.1769
326.92	0.1779
327.262	0.1789
327.604	0.1802
327.946	0.181
328.287	0.1829
328.629	0.1838
328.97	0.1849
329.312	0.1864
329.653	0.1875
329.994	0.1885
330.335	0.19
330.676	0.1906
331.017	0.1918
331.358	0.1935
331.699	0.1953
332.04	0.1963
332.38	0.1973
332.721	0.1991
333.061	0.2
333.402	0.2014
333.742	0.2026
334.083	0.2037
334.423	0.2042
334.763	0.2058
335.103	0.2075
335.443	0.2073
335.783	0.2083
336.123	0.2088
336.462	0.211
336.802	0.2117
337.141	0.2127
337.481	0.2141
337.82	0.2141
338.16	0.2156
338.499	0.2163
338.838	0.2168
339.177	0.2195
339.516	0.2193
339.855	0.2203
340.194	0.2217
340.533	0.2221
340.872	0.2235
341.21	0.2247
341.549	0.225
341.887	0.2259
342.226	0.226
342.564	0.2258
342.902	0.2263
343.24	0.2272
343.578	0.2268
343.916	0.228
344.254	0.2281
344.592	0.2283
344.93	0.2283
345.268	0.2281
345.605	0.2288
345.943	0.2283
346.28	0.2286
346.618	0.2287
346.955	0.2289
347.292	0.229
347.629	0.2295
347.966	0.2296
348.303	0.2298
348.64	0.2294
348.977	0.2292
349.314	0.2291
349.65	0.2295
349.987	0.2296
350.324	0.2288
350.66	0.2286
350.996	0.2291
351.333	0.2273
351.669	0.2263
352.005	0.2264
352.341	0.2256
352.677	0.2256
353.013	0.2244
353.349	0.2238
353.685	0.2219
354.02	0.2214
354.356	0.221
354.691	0.219
355.027	0.2189
355.362	0.2171
355.697	0.2168
356.033	0.2154
356.368	0.2148
356.703	0.214
357.038	0.2132
357.373	0.2128
357.707	0.2113
358.042	0.2102
358.377	0.2101
358.711	0.2086
359.046	0.2077
359.38	0.2064
359.715	0.2053
360.049	0.2042
360.383	0.2038
360.717	0.202
361.051	0.2001
361.385	0.1997
361.719	0.1975
362.053	0.1964
362.387	0.1942
362.72	0.1927
363.054	0.1909
363.387	0.1897
363.721	0.1882
364.054	0.1864
364.387	0.184
364.721	0.1831
365.054	0.1814
365.387	0.1796
365.72	0.1781
366.053	0.1766
366.385	0.1747
366.718	0.1735
367.051	0.1722
367.383	0.1706
367.716	0.1692
368.048	0.1687
368.381	0.1671
368.713	0.166
369.045	0.1645
369.377	0.163
369.709	0.162
370.041	0.161
370.373	0.1596
370.705	0.1574
371.037	0.1558
371.368	0.1542
371.7	0.1536
372.031	0.1519
372.363	0.15
372.694	0.1483
373.025	0.146
373.356	0.1447
373.688	0.142
374.019	0.1404
374.35	0.139
374.68	0.1369
375.011	0.1346
375.342	0.1331
375.673	0.1314
376.003	0.1297
376.334	0.1281
376.664	0.1259
376.995	0.1249
377.325	0.124
377.655	0.1225
377.985	0.1202
378.315	0.1196
378.645	0.118
378.975	0.1161
379.305	0.1153
379.635	0.115
379.964	0.1134
380.294	0.112
380.623	0.1105
380.953	0.1097
381.282	0.1086
381.611	0.107
381.941	0.1058
382.27	0.1046
382.599	0.1024
382.928	0.1017
383.257	0.1002
383.585	0.0991
383.914	0.0981
384.243	0.0963
384.571	0.0942
384.9	0.0921
385.228	0.0911
385.557	0.0903
385.885	0.0888
386.213	0.0868
386.541	0.0858
386.869	0.0839
387.197	0.0821
387.525	0.0809
387.853	0.0796
388.181	0.0785
388.508	0.0777
388.836	0.0769
389.164	0.0749
389.491	0.0741
389.818	0.0735
390.146	0.0714
390.473	0.0701
390.8	0.0691
391.127	0.0683
391.454	0.0682
391.781	0.0668
392.108	0.0655
392.435	0.0642
392.761	0.0629
393.088	0.0635
393.415	0.0621
393.741	0.0621
394.067	0.0609
394.394	0.06
394.72	0.0598
395.046	0.0583
395.372	0.0574
395.698	0.056
396.024	0.0563
396.35	0.0547
396.676	0.0548
397.001	0.0542
397.327	0.0533
397.653	0.0519
397.978	0.0509
398.303	0.05
398.629	0.0495
398.954	0.0489
399.279	0.0483
399.604	0.048
399.929	0.0472
400.254	0.0467
400.579	0.0461
400.904	0.0453
401.229	0.0453
401.553	0.0443
401.878	0.0434
402.202	0.0426
402.527	0.0432
402.851	0.0427
403.175	0.0419
403.5	0.0423
403.824	0.0425
404.148	0.0412
404.472	0.0414
404.796	0.04
405.119	0.0398
405.443	0.04
405.767	0.0391
406.09	0.0392
406.414	0.0395
406.737	0.0388
407.061	0.0389
407.384	0.0388
407.707	0.0385
408.03	0.0388
408.353	0.0389
408.676	0.038
408.999	0.038
409.322	0.0375
409.645	0.0381
409.968	0.0381
410.29	0.0378
410.613	0.0374
410.935	0.0373
411.258	0.0378
411.58	0.0374
411.902	0.0375
412.224	0.0374
412.546	0.0372
412.868	0.0373
413.19	0.0374
413.512	0.0376
413.834	0.0375
414.156	0.0378
414.477	0.0373
414.799	0.0377
415.121	0.0381
415.442	0.0375
415.763	0.0381
416.085	0.0372
416.406	0.0376
416.727	0.038
417.048	0.0377
417.369	0.0371
417.69	0.0372
418.011	0.0379
418.331	0.0377
418.652	0.0375
418.973	0.0382
419.293	0.0382
419.614	0.0378
419.934	0.0373
420.254	0.0382
420.574	0.037
420.895	0.0382
421.215	0.0374
421.535	0.037
421.855	0.0376
422.174	0.0377
422.494	0.0377
422.814	0.0387
423.134	0.0377
423.453	0.038
423.773	0.0383
424.092	0.0377
424.411	0.0384
424.731	0.0386
425.05	0.038
425.369	0.0387
425.688	0.0385
426.007	0.0389
426.326	0.039
426.644	0.0398
426.963	0.0389
427.282	0.0391
427.6	0.0394
427.919	0.0391
428.237	0.0389
428.556	0.0394
428.874	0.0388
429.192	0.039
429.51	0.039
429.828	0.0393
430.146	0.0397
430.464	0.0393
430.782	0.0393
431.1	0.0394
431.418	0.0388
431.735	0.0394
432.053	0.0398
432.37	0.0395
432.688	0.0394
433.005	0.0399
433.322	0.0398
433.639	0.0396
433.957	0.0398
434.274	0.0398
434.591	0.0399
434.907	0.0399
435.224	0.0399
435.541	0.0408
435.858	0.0411
436.174	0.0406
436.491	0.0403
436.807	0.04
437.124	0.0395
437.44	0.0392
437.756	0.0399
438.072	0.0393
438.388	0.0404
438.704	0.0397
439.02	0.0397
439.336	0.0396
439.652	0.04
439.968	0.0399
440.283	0.0393
440.599	0.0402
440.914	0.0397
441.23	0.0391
441.545	0.0393
441.86	0.0391
442.175	0.0397
442.491	0.0396
442.806	0.0387
443.121	0.0395
443.435	0.0394
443.75	0.0398
444.065	0.0386
444.38	0.0394
444.694	0.0393
445.009	0.0402
445.323	0.0395
445.638	0.0391
445.952	0.0391
446.266	0.0386
446.58	0.0394
446.894	0.0386
447.208	0.0396
447.522	0.0395
447.836	0.0377
448.15	0.0385
448.464	0.0385
448.777	0.0388
449.091	0.0378
449.404	0.0388
449.718	0.0385
450.031	0.0385
450.345	0.038
450.658	0.0381
450.971	0.0377
451.284	0.0377
451.597	0.0383
451.91	0.0387
452.223	0.0376
452.535	0.038
452.848	0.0382
453.161	0.0373
453.473	0.038
453.786	0.0376
454.098	0.037
454.411	0.0369
454.723	0.0369
455.035	0.0366
455.347	0.0377
455.659	0.0373
455.971	0.037
456.283	0.0368
456.595	0.0365
456.907	0.0368
457.218	0.0368
457.53	0.0366
457.841	0.036
458.153	0.036
458.464	0.0356
458.776	0.0343
459.087	0.0348
459.398	0.0349
459.709	0.0354
460.02	0.035
460.331	0.0341
460.642	0.0347
460.953	0.0347
461.263	0.0342
461.574	0.0336
461.885	0.0342
462.195	0.0344
462.506	0.0347
462.816	0.034
463.126	0.0327
463.437	0.0335
463.747	0.0328
464.057	0.0327
464.367	0.0324
464.677	0.0324
464.987	0.0327
465.296	0.0323
465.606	0.0316
465.916	0.0316
466.225	0.0312
466.535	0.0311
466.844	0.031
467.154	0.0311
467.463	0.0304
467.772	0.0308
468.081	0.0306
468.39	0.0308
468.699	0.0299
469.008	0.0306
469.317	0.0303
469.626	0.0303
469.935	0.0299
470.243	0.0298
470.552	0.0304
470.86	0.0291
471.169	0.0287
471.477	0.0293
471.785	0.0288
472.093	0.0292
472.402	0.0276
472.71	0.0279
473.018	0.0273
473.326	0.0268
473.633	0.0276
473.941	0.0273
474.249	0.0276
474.556	0.0271
474.864	0.026
475.171	0.0265
475.479	0.0269
475.786	0.0265
476.094	0.0262
476.401	0.0265
476.708	0.0258
477.015	0.0259
477.322	0.0263
477.629	0.0254
477.936	0.0247
478.242	0.025
478.549	0.0249
478.856	0.0239
479.162	0.0241
479.469	0.0248
479.775	0.0246
480.081	0.0236
480.388	0.024
480.694	0.0226
481	0.0232
481.306	0.0237
481.612	0.0232
481.918	0.0222
482.224	0.0232
482.53	0.0221
482.835	0.022
483.141	0.0215
483.446	0.0211
483.752	0.0213
484.057	0.0205
484.363	0.0208
484.668	0.0207
484.973	0.0202
485.278	0.0204
485.583	0.0193
485.888	0.0197
486.193	0.0195
486.498	0.0193
486.803	0.0202
487.107	0.0194
487.412	0.0186
487.717	0.0188
488.021	0.0187
488.325	0.0185
488.63	0.0176
488.934	0.0183
489.238	0.0188
489.542	0.0186
489.846	0.0164
490.15	0.0183
490.454	0.0172
490.758	0.0179
491.062	0.0165
491.366	0.0159
491.669	0.0169
491.973	0.0174
492.276	0.0168
492.58	0.0154
492.883	0.0165
493.186	0.0168
493.489	0.0163
493.792	0.0163
494.096	0.0162
494.399	0.0164
494.701	0.0157
495.004	0.0154
495.307	0.0149
495.61	0.0139
495.912	0.0149
496.215	0.0142
496.517	0.0139
496.82	0.0132
497.122	0.0141
497.424	0.0131
497.727	0.0133
498.029	0.0142
498.331	0.0136
498.633	0.0137
498.935	0.0126
499.237	0.0132
499.538	0.0125
499.84	0.0122
500.142	0.0128
500.443	0.0126
500.745	0.0122
501.046	0.0128
501.348	0.012
501.649	0.0123
501.95	0.0117
502.251	0.0117
502.552	0.0108
502.853	0.0116
503.154	0.0112
503.455	0.0102
503.756	0.0105
504.057	0.0111
504.357	0.0104
504.658	0.0104
504.958	0.0112
505.259	0.0107
505.559	0.011
505.859	0.0105
506.16	0.01
506.46	0.0106
506.76	0.0105
507.06	0.0094
507.36	0.0094
507.66	0.0107
507.96	0.0103
508.259	0.0089
508.559	0.0086
508.859	0.0093
509.158	0.0089
509.457	0.0089
509.757	0.0093
510.056	0.0089
510.355	0.0088
510.655	0.0074
510.954	0.0081
511.253	0.0078
511.552	0.0084
511.851	0.0072
512.149	0.0077
512.448	0.0073
512.747	0.0077
513.045	0.0074
513.344	0.0078
513.642	0.0082
513.941	0.0078
514.239	0.0076
514.537	0.0069
514.836	0.0073
515.134	0.0069
515.432	0.0071
515.73	0.0078
516.028	0.0063
516.326	0.0066
516.623	0.006
516.921	0.0064
517.219	0.0073
517.516	0.0068
517.814	0.0064
518.111	0.0065
518.409	0.0077
518.706	0.0067
519.003	0.0062
519.3	0.0054
519.597	0.0054
519.894	0.0054
520.191	0.0065
520.488	0.0067
520.785	0.0045
521.082	0.0053
521.378	0.006
521.675	0.0041
521.971	0.0054
522.268	0.0058
522.564	0.0058
522.861	0.005
523.157	0.0056
523.453	0.0047
523.749	0.0054
524.045	0.006
524.341	0.0049
524.637	0.0052
524.933	0.0046
525.229	0.0057
525.524	0.0047
525.82	0.0053
526.115	0.0049
526.411	0.0048
526.706	0.0049
527.002	0.0037
527.297	0.0028
527.592	0.0057
527.887	0.0049
528.182	0.0053
528.477	0.0064
528.772	0.0048
529.067	0.0054
529.362	0.0048
529.657	0.005
529.951	0.0046
530.246	0.0042
530.54	0.0027
530.835	0.0038
531.129	0.0038
531.423	0.005
531.718	0.0036
532.012	0.0038
532.306	0.0034
532.6	0.0038
532.894	0.0034
533.188	0.0042
533.482	0.0027
533.775	0.0041
534.069	0.0027
534.363	0.0033
534.656	0.0034
534.95	0.0026
535.243	0.0026
535.536	0.0037
535.83	0.0038
536.123	0.0022
536.416	0.0034
536.709	0.004
537.002	0.0044
537.295	0.0036
537.588	0.0042
537.881	0.0038
538.173	0.0037
538.466	0.0036
538.759	0.0029
539.051	0.0028
539.344	0.003
539.636	0.0031
539.928	0.003
540.22	0.0027
540.513	0.0033
540.805	0.0034
541.097	0.0034
541.389	0.0032
541.681	0.0031
541.972	0.0039
542.264	0.0027
542.556	0.0025
542.847	0.0039
543.139	0.0036
543.431	0.0037
543.722	0.0034
544.013	0.0049
544.305	0.0038
544.596	0.0054
544.887	0.0039
545.178	0.0039
545.469	0.0035
545.76	0.0032
546.051	0.0036
546.342	0.0049
546.632	0.0024
546.923	0.0032
547.214	0.0036
547.504	0.0033
547.795	0.0032
548.085	0.0044
548.375	0.003
548.666	0.0031
548.956	0.0021
549.246	0.0032
549.536	0.0024
549.826	0.0035
550.116	0.0027
550.406	0.0034
550.695	0.0041
550.985	0.0035
551.275	0.0035
551.564	0.0028
551.854	0.0037
552.143	0.0031
552.433	0.004
552.722	0.0026
553.011	0.0034
553.3	0.0033
553.589	0.0031
553.879	0.0025
554.167	0.003
554.456	0.0028
554.745	0.0027
555.034	0.0021
555.323	0.0018
555.611	0.0013
555.9	0.0036
556.188	0.003
556.477	0.0025
556.765	0.0019
557.053	0.0025
557.342	0.0011
557.63	0.0022
557.918	0.0023
558.206	0.0022
558.494	0.0037
558.782	0.0029
559.069	0.0032
559.357	0.0033
559.645	0.0017
559.932	0.0022
560.22	0.0033
560.507	0.0027
560.795	0.0032
561.082	0.0026
561.37	0.003
561.657	0.0031
561.944	0.0033
562.231	0.0027
562.518	0.0013
562.805	0.0036
563.092	0.0038
563.379	0.0032
563.665	0.003
563.952	0.0043
564.239	0.0035
564.525	0.004
564.811	0.0043
565.098	0.0042
565.384	0.0033
565.67	0.0025
565.957	0.0038
566.243	0.0035
566.529	0.0046
566.815	0.0043
567.101	0.0029
567.387	0.003
567.672	0.0024
567.958	0.0032
568.244	0.0037
568.529	0.0027
568.815	0.0027
569.1	0.0024
569.386	0.0029
569.671	0.0029
569.956	0.002
570.242	0.0024
570.527	0.0031
570.812	0.0031
571.097	0.0031
571.382	0.0028
571.666	0.0025
571.951	0.0023
572.236	0.0034
572.521	0.0024
572.805	0.0035
573.09	0.0029
573.374	0.0031
573.659	0.002
573.943	0.0028
574.227	0.0027
574.511	0.0027
574.795	0.0028
575.079	0.0021
575.363	0.0022
575.647	0.0034
575.931	0.0037
576.215	0.0026
576.499	0.0027
576.782	0.0028
577.066	0.002
577.349	0.0028
577.633	0.0037
577.916	0.0032
578.2	0.0032
578.483	0.0037
578.766	0.003
579.049	0.003
579.332	0.0028
579.615	0.0028
579.898	0.0029
580.181	0.0033
580.464	0.0031
580.746	0.0028
581.029	0.0031
581.312	0.0026
581.594	0.0023
581.877	0.0026
582.159	0.0037
582.441	0.0034
582.724	0.0026
583.006	0.0024
583.288	0.0019
583.57	0.0019
583.852	0.0021
584.134	0.002
584.416	0.0035
584.697	0.0029
584.979	0.003
585.261	0.0031
585.542	0.0022
585.824	0.0038
586.105	0.0027
586.387	0.0022
586.668	0.0028
586.949	0.0033
587.231	0.0023
587.512	0.003
587.793	0.0024
588.074	0.003
588.355	0.0034
588.636	0.0042
588.916	0.0033
589.197	0.0029
589.478	0.0035
589.758	0.0029
590.039	0.003
590.319	0.0031
590.6	0.003
590.88	0.0031
591.16	0.0034
591.441	0.0033
591.721	0.0034
592.001	0.003
592.281	0.0029
592.561	0.0038
592.841	0.0031
593.12	0.0026
593.4	0.0018
593.68	0.0028
593.959	0.0028
594.239	0.0037
594.518	0.0027
594.798	0.0036
595.077	0.0029
595.356	0.0026
595.636	0.0026
595.915	0.0029
596.194	0.0034
596.473	0.0035
596.752	0.0029
597.031	0.0022
597.31	0.0023
597.588	0.0024
597.867	0.0026
598.146	0.0019
598.424	0.0025
598.703	0.0025
598.981	0.0021
599.259	0.0023
599.538	0.0034
599.816	0.0034
600.094	0.0032
600.372	0.0036
600.65	0.0031
600.928	0.004
601.206	0.0029
601.484	0.003
601.762	0.0026
602.04	0.0021
602.317	0.0027
602.595	0.0023
602.872	0.0024
603.15	0.0019
603.427	0.002
603.704	0.0017
603.982	0.0028
604.259	0.0017
604.536	0.0022
604.813	0.0022
605.09	0.0027
605.367	0.0027
605.644	0.0021
605.921	0.0025
606.197	0.0022
606.474	0.0028
606.751	0.0033
607.027	0.0032
607.304	0.002
607.58	0.0026
607.856	0.0024
608.133	0.0035
608.409	0.0028
608.685	0.0028
608.961	0.0035
609.237	0.0029
609.513	0.0024
609.789	0.0029
610.065	0.002
610.341	0.0024
610.616	0.0023
610.892	0.0039
611.167	0.0039
611.443	0.0029
611.718	0.0022
611.994	0.0025
612.269	0.0031
612.544	0.0025
612.819	0.0023
613.095	0.0031
613.37	0.0026
613.645	0.0027
613.919	0.0017
614.194	0.0035
614.469	0.0024
614.744	0.0019
615.019	0.0026
615.293	0.0018
615.568	0.0017
615.842	0.0018
616.116	0.0018
616.391	0.0019
616.665	0.0028
616.939	0.0021
617.213	0.0024
617.488	0.0016
617.762	0.0026
618.035	0.0023
618.309	0.0023
618.583	0.0022
618.857	0.0032
619.131	0.0036
619.404	0.0025
619.678	0.0024
619.951	0.0018
620.225	0.0016
620.498	0.0015
620.771	0.0021
621.045	0.0017
621.318	0.0022
621.591	0.0021
621.864	0.0012
622.137	0.0003
622.41	0.0015
622.683	0.0008
622.956	0.0023
623.228	0.0019
623.501	0.0023
623.774	0.0032
624.046	0.003
624.319	0.0027
624.591	0.0017
624.863	0.0018
625.136	0.0021
625.408	0.0028
625.68	0.0022
625.952	0.003
626.224	0.0033
626.496	0.0022
626.768	0.002
627.04	0.0022
627.311	0.0031
627.583	0.0024
627.855	0.0023
628.126	0.0026
628.398	0.0038
628.669	0.0029
628.941	0.0012
629.212	0.0012
629.483	0.0021
629.755	0.0019
630.026	0.0021
630.297	0.0015
630.568	0.0019
630.839	0.0011
631.11	0.0008
631.38	0
631.651	0.001
631.922	0.0003
632.192	-0.0009
632.463	-0.0001
632.733	-0.0005
633.004	0.0002
633.274	-0.0017
633.545	0.0005
633.815	0.0026
634.085	0.0012
634.355	0.0008
634.625	0.0022
634.895	0.0009
635.165	-0.0005
635.435	-0.0001
635.705	0.0013
635.974	-0.0002
636.244	0.0015
636.514	0.0011
636.783	0.0024
637.053	0.002
637.322	0.0009
637.591	0.0026
637.861	0.0016
638.13	0.0021
638.399	0.0018
638.668	0.0021
638.937	0.0005
639.206	0.0019
639.475	0.0013
639.744	0.0017
640.013	0.002
640.281	0.0033
640.55	0.003
640.819	0.0027
641.087	0.0023
641.356	0.0025
641.624	0.0015
641.892	0.0019
642.161	0.0014
642.429	0.0032
642.697	0.002
642.965	0.0029
643.233	0.0023
643.501	0.0025
643.769	0.0016
644.037	0.0016
644.305	0.0022
644.572	0.0005
644.84	0.001
645.108	0.0014
645.375	0.0017
645.643	0.0018
645.91	0.0009
646.177	0.0027
646.445	0.004
646.712	0.0039
646.979	0.0039
647.246	0.0036
647.513	0.0038
647.78	0.0034
648.047	0.0036
648.314	0.0032
648.58	0.0025
648.847	0.0019
649.114	0.0018
649.38	0.0013
649.647	0.0008
649.913	0.0014
650.18	0.002
650.446	0.002
650.712	0.0033
650.978	0.0031
651.245	0.0034
651.511	0.0037
651.777	0.0025
652.043	0.0027
652.309	0.0023
652.574	0.0023
652.84	0.0009
653.106	0.0005
653.371	0.0003
653.637	0.001
653.903	0.0009
654.168	0.0012
654.433	0.0023
654.699	0.0023
654.964	0.0034
655.229	0.0029
655.494	0.0043
655.759	0.0026
656.024	0.0011
656.289	-0
656.554	-0.0004
656.819	0.0002
657.084	0.002
657.349	0.0028
657.613	0.0026
657.878	0.0027
658.142	0.0023
658.407	0.0026
658.671	0.0015
658.936	0.001
659.2	0.0009
659.464	0.0005
659.728	0.001
659.992	0.0011
660.256	0.0013
660.52	0.0014
660.784	0.001
661.048	0.0008
661.312	0.0002
661.575	0.0002
661.839	-0.0009
662.103	-0.0016
662.366	-0.0018
662.63	0.0005
662.893	0.0008
663.156	0
663.42	-0.0005
663.683	0.0002
663.946	0.001
664.209	0.003
664.472	0.0023
664.735	0.0024
664.998	0.001
665.261	0.0008
665.524	0.0001
665.786	0
666.049	0.0007
666.312	-0.0001
666.574	-0.0003
666.837	0.0003
667.099	-0.0014
667.361	-0.0011
667.624	-0.0018
667.886	-0.0016
668.148	0.0003
668.41	0.0016
668.672	0.0003
668.934	0.0007
669.196	0.0017
669.458	0.0007
669.72	0.0007
669.982	0.0008
670.243	0.0013
670.505	0.0003
670.766	0.0013
671.028	0.0009
671.289	0.0011
671.551	0.0011
671.812	0.0002
672.073	0.0007
672.334	0.0004
672.596	0.0008
672.857	0.0002
673.118	0.0004
673.379	0.0001
673.639	-0.0002
673.9	0.0004
674.161	-0.0004
674.422	-0.0014
674.682	-0.0009
674.943	-0.0008
675.203	-0.0001
675.464	0.0006
675.724	0.0006
675.985	0.0017
676.245	0.0025
676.505	0.0033
676.765	0.0033
677.025	0.0025
677.285	0.0029
677.545	0.0039
677.805	0.0039
678.065	0.003
678.325	0.0027
678.585	0.0024
678.844	0.0027
679.104	0.0016
679.363	0.0027
679.623	0.0026
679.882	0.0029
680.142	0.0034
680.401	0.003
680.66	0.0044
680.919	0.0031
681.178	0.0047
681.437	0.0053
681.696	0.0034
681.955	0.0043
682.214	0.0043
682.473	0.0041
682.732	0.0016
682.99	0.0033
683.249	0.0032
683.508	0.0039
683.766	0.003
684.024	0.0023
684.283	0.0034
684.541	0.0026
684.799	0.0035
685.058	0.0027
685.316	0.0031
685.574	0.0034
685.832	0.0036
686.09	0.0034
686.348	0.0046
686.606	0.0047
686.863	0.0038
687.121	0.0049
687.379	0.0043
687.636	0.0039
687.894	0.0045
688.151	0.0051
688.409	0.0041
688.666	0.0035
688.923	0.0042
689.181	0.0026
689.438	0.0024
689.695	0.0022
689.952	0.0006
690.209	0.0016
690.466	-0.0002
690.723	0.0019
690.979	0.0018
691.236	0.0014
691.493	0.0012
691.75	0.0023
692.006	0.0037
692.263	0.0046
692.519	0.0043
692.775	0.0037
693.032	0.0021
693.288	0.0039
693.544	0.0033
693.8	0.0035
694.056	0.0033
694.313	0.0035
694.568	0.0027
694.824	0.003
695.08	0.0036
695.336	0.0045
695.592	0.0032
695.847	0.0034
696.103	0.0036
696.359	0.0033
696.614	0.0028
696.869	0.0018
697.125	0.0014
697.38	0.0003
697.635	-0.0002
697.891	-0
698.146	0.0002
698.401	0.0018
698.656	0.0006
698.911	0.0009
699.166	0.0002
699.42	-0
699.675	0.0006
699.93	-0.0006
700.185	0.0002
700.439	0.0015
700.694	0.0012
700.948	0.0012
701.203	0.0016
701.457	0.0005
701.711	0.0012
701.965	0.0002
702.22	0.0001
702.474	0.0012
702.728	0.0005
702.982	0.0002
703.236	0.0013
703.49	0.0014
703.743	0.0004
703.997	0.0012
704.251	0.0018
704.504	0.0026
704.758	0.0014
705.012	0.0002
705.265	0.0001
705.518	-0.0007
705.772	-0.0005
706.025	0.0002
706.278	-0.0001
706.531	-0.0003
706.785	-0.0012
707.038	0.0003
707.291	-0.001
707.543	-0.0007
707.796	-0.0013
708.049	-0.0012
708.302	-0.0021
708.555	-0.0017
708.807	-0.001
709.06	-0.0014
709.312	-0.0031
709.565	-0.0029
709.817	-0.0034
710.069	-0.0027
710.322	-0.0018
710.574	-0.001
710.826	-0.0014
711.078	-0.0009
711.33	-0.0018
711.582	-0.0018
711.834	-0.0006
712.086	-0.0007
712.338	0.0009
712.59	0.0005
712.841	0.0003
713.093	-0.0006
713.344	0.0005
713.596	0.0005
713.847	0.0013
714.099	0.0005
714.35	0.0011
714.601	0.002
714.853	0.0027
715.104	0.0017
715.355	0.0005
715.606	0.0015
715.857	0.0016
716.108	0.0028
716.359	0.0031
716.609	0.0027
716.86	0.0016
717.111	0.0003
717.361	-0.0004
717.612	0.0001
717.863	-0.0006
718.113	-0.0002
718.363	-0.0009
718.614	-0.0001
718.864	0.0009
719.114	0.0006
719.364	0.001
719.614	-0.0004
719.865	-0.0012
720.114	-0.0003
720.364	0
720.614	0.0016
720.864	0.0016
721.114	0.0015
721.364	0.0023
721.613	0.003
721.863	0.0034
722.112	0.002
722.362	0.0043
722.611	0.0022
722.86	0.0015
723.11	0.0018
723.359	0.0016
723.608	0.0022
723.857	0.0035
724.106	0.0046
724.355	0.0048
724.604	0.0051
724.853	0.0044
725.102	0.0039
725.351	0.003
725.599	0.0028
725.848	0.0028
726.097	0.0024
726.345	0.0028
726.594	0.0025
726.842	0.0014
727.09	0.002
727.339	0.0012
727.587	0.0002
727.835	0.0001
728.083	-0.0007
728.331	-0.0012
728.579	-0.0018
728.827	-0.0014
729.075	-0.001
729.323	-0.0004
729.571	-0.0008
729.818	-0.0004
730.066	-0
730.314	0.001
730.561	-0.0013
730.809	-0.0011
731.056	-0.0004
731.303	-0.0014
731.551	-0.0004
731.798	-0
732.045	-0.0004
732.292	-0.0004
732.539	-0.0002
732.786	-0.0003
733.033	0.0014
733.28	0.0011
733.527	0.0022
733.774	0.0018
734.021	0.0029
734.267	0.0033
734.514	0.0032
734.76	0.0032
735.007	0.0052
735.253	0.0058
735.5	0.0062
735.746	0.0055
735.992	0.0048
736.238	0.004
736.485	0.0046
736.731	0.0041
736.977	0.0038
737.223	0.0033
737.469	0.004
737.715	0.0038
737.96	0.0051
738.206	0.0046
738.452	0.0056
738.697	0.0051
738.943	0.0047
739.189	0.0027
739.434	0.0007
739.679	0.0003
739.925	-0.0008
740.17	-0.0006
740.415	-0
740.66	0.0008
740.906	0.0008
741.151	0.0005
741.396	0.0009
741.641	0.0029
741.886	0.0034
742.13	0.0045
742.375	0.0042
742.62	0.0058
742.865	0.0048
743.109	0.0035
743.354	0.004
743.598	0.0041
743.843	0.0038
744.087	0.0036
744.331	0.0035
744.576	0.0029
744.82	0.0037
745.064	0.0028
745.308	0.0021
745.552	0.0028
745.796	0.0031
746.04	0.0028
746.284	0.0023
746.528	0.0002
746.771	0.0005
747.015	0.0014
747.259	0.0016
747.502	0.0009
747.746	0.0017
747.989	0.0026
748.233	0.0029
748.476	0.0027
748.719	0.0025
748.963	0.0027
749.206	0.0015
749.449	0.0027
749.692	0.0014
749.935	0.0021
750.178	0.0018
750.421	0.0022
750.664	0.0027
750.906	0.0036
751.149	0.0018
751.392	0.0032
751.635	0.0008
751.877	0.0003
752.12	0.0004
752.362	0.0009
752.604	0.0009
752.847	0.0019
753.089	0.0011
753.331	0.0016
753.573	0.0016
753.816	0.002
754.058	0.0021
754.3	0.002
754.542	0.0017
754.783	0.0024
755.025	0.0015
755.267	0.0011
755.509	0.0003
755.75	0.0006
755.992	0.0005
756.234	0.0005
756.475	0.0002
756.716	0.0007
756.958	0.0002
757.199	0.0008
757.44	0.0015
757.682	0.002
757.923	0.0008
758.164	0.0004
758.405	0.0004
758.646	0.0003
758.887	0.0005
759.128	0.0004
759.369	-0.0007
759.609	-0.0001
759.85	-0.0008
760.091	0
760.331	0.0001
760.572	0.0002
760.812	-0.0006
761.053	-0.0009
761.293	-0.0011
761.533	-0.0001
761.774	-0.0007
762.014	-0.0013
762.254	-0.0009
762.494	-0.001
762.734	-0.0017
762.974	-0.0015
763.214	-0.002
763.454	-0.0021
763.694	-0.0014
763.933	-0.0018
764.173	-0.0004
764.413	-0.0011
764.652	0.0003
764.892	0.0005
765.131	0.0007
765.371	0.0004
765.61	0.0018
765.849	0.0018
766.089	0.0015
766.328	0.0017
766.567	0.0013
766.806	0.0019
767.045	0.0017
767.284	0.0022
767.523	0.0022
767.762	0.0029
768.001	0.0021
768.239	0.0021
768.478	0.0008
768.717	0.0012
768.955	0.0022
769.194	0.0004
769.432	0.0007
769.671	0.0011
769.909	0.0009
770.148	0.0012
770.386	0.0014
770.624	0.0012
770.862	0.0015
771.1	0.0011
771.338	0.0012
771.576	0.0006
771.814	0
772.052	-0
772.29	0.0008
772.528	0.0008
772.765	0.0005
773.003	0.0014
773.24	0.002
773.478	0.0016
773.716	0.0031
773.953	0.0036
774.19	0.0036
774.428	0.0034
774.665	0.0032
774.902	0.0034
775.139	0.0019
775.376	0.003
775.613	0.0015
775.85	0.0022
776.087	0.0012
776.324	0.0012
776.561	0.0018
776.798	0.0034
777.034	0.0036
777.271	0.0055
777.508	0.0058
777.744	0.0044
777.981	0.0038
778.217	0.0041
778.454	0.0035
778.69	0.0038
778.926	0.0034
779.162	0.0033
779.399	0.0024
779.635	0.0024
779.871	0.0025
780.107	0.0031
780.343	0.0035
780.579	0.0032
780.814	0.0022
781.05	0.0034
781.286	0.0033
781.522	0.0027
781.757	0.0041
781.993	0.0036
782.228	0.0041
782.464	0.0035
782.699	0.0024
782.934	0.0017
783.17	0.0015
783.405	0.001
783.64	0.0012
783.875	0.0016
784.11	0.0023
784.345	0.0031
784.58	0.0032
784.815	0.0026
785.05	0.003
785.285	0.0021
785.52	0.0017
785.754	0.0019
785.989	0.0012
786.223	0.0006
786.458	0.0007
786.692	-0.0004
786.927	-0.0007
787.161	-0.0013
787.396	-0.0012
787.63	-0.0022
787.864	-0.0021
788.098	-0.0017
788.332	-0.0002
788.566	-0.0008
788.8	-0.0006
789.034	0.0002
789.268	0.0012
789.502	0.0011
789.736	0.0017
789.969	0.0022
790.203	0.0022
790.437	0.0023
790.67	0.0018
790.904	0.0021
791.137	0.0006
791.37	-0.0003
791.604	-0.0006
791.837	0.0002
792.07	-0.0006
792.303	-0.0001
792.537	-0.0005
792.77	-0.0001
793.003	-0.0002
793.236	-0.0006
793.469	-0.0011
793.701	-0.0005
793.934	-0.0006
794.167	-0.0005
794.4	-0.0002
794.632	0.0003
794.865	-0.0009
795.097	0.0002
795.33	0.0018
795.562	0.0002
795.795	0.0001
796.027	-0.0003
796.259	0.0002
796.491	-0.0008
796.724	0.0002
796.956	0.0008
797.188	0.0014
797.42	0.0002
797.652	0.0005
797.883	-0.0006
798.115	-0.0008
798.347	-0.0009
798.579	-0.0023
798.81	-0.003
799.042	-0.0027
799.274	-0.0035
799.505	-0.0035
799.737	-0.0039
799.968	-0.0032
800.199	-0.0026
800.431	-0.0028
800.662	-0.002
800.893	-0.0016
801.124	-0.0016
801.355	-0.0013
801.586	-0.0006
801.817	-0.0007
802.048	-0.001
802.279	-0.0006
802.51	-0.0001
802.741	-0.0013
802.971	-0.0006
803.202	-0.0016
803.433	-0.0008
803.663	-0.0011
803.894	-0.0011
804.124	-0.0004
804.354	-0.001
804.585	-0.0013
804.815	-0.0008
805.045	0
805.275	-0.0022
805.506	0.0054
805.736	0.0186
805.966	-0.1723
806.196	0.0117
