Data from 03 0.2 mM BQDS 0.4 mM K2Cr2O7 1 M H2SO4 5 min_Absorbance_12-57-42-763.txt Node
Date: Wed Dec 08 12:57:42 EST 2021
User: kwabilab-user
Spectrometer: HDX00518
Trigger mode: 0
Integration Time (sec): 5.000000E-2
Scans to average: 50
Nonlinearity correction enabled: false
Boxcar width: 0
Storing dark spectrum: false
XAxis mode: Wavelengths
Number of Pixels in Spectrum: 2068
>>>>>Begin Spectral Data<<<<<
195.27	0.2504
195.642	0.1282
196.014	0.1146
196.386	0.0937
196.758	0.0211
197.129	0.0039
197.501	0.0495
197.872	0.0907
198.244	0.0963
198.615	0.12
198.986	0.0894
199.357	0.1029
199.728	0.1242
200.099	0.0912
200.47	0.1024
200.841	0.1011
201.212	0.1104
201.582	0.1071
201.953	0.1245
202.323	0.1178
202.694	0.1004
203.064	0.1086
203.434	0.0974
203.804	0.1132
204.174	0.1041
204.544	0.1081
204.914	0.1049
205.284	0.1114
205.653	0.1188
206.023	0.1166
206.393	0.1159
206.762	0.1232
207.131	0.1139
207.501	0.1315
207.87	0.129
208.239	0.1239
208.608	0.1168
208.977	0.1187
209.346	0.117
209.715	0.1179
210.083	0.1364
210.452	0.131
210.82	0.123
211.189	0.1454
211.557	0.1296
211.925	0.1525
212.294	0.1651
212.662	0.1453
213.03	0.1504
213.398	0.1501
213.766	0.1742
214.133	0.1783
214.501	0.1867
214.869	0.1972
215.236	0.2273
215.604	0.2197
215.971	0.2381
216.338	0.252
216.705	0.2794
217.072	0.2895
217.439	0.3168
217.806	0.3508
218.173	0.3605
218.54	0.3828
218.907	0.4353
219.273	0.4751
219.64	0.502
220.006	0.5479
220.373	0.5624
220.739	0.6175
221.105	0.65
221.471	0.6753
221.837	0.7203
222.203	0.7616
222.569	0.791
222.935	0.83
223.3	0.8396
223.666	0.8774
224.031	0.8989
224.397	0.9155
224.762	0.9433
225.127	0.953
225.493	0.9741
225.858	0.9726
226.223	0.9953
226.588	1.0023
226.952	1.0081
227.317	1.004
227.682	0.9972
228.046	1.0024
228.411	1.004
228.775	1.0074
229.14	0.9925
229.504	0.9939
229.868	0.9881
230.232	0.9836
230.596	0.977
230.96	0.9688
231.324	0.9621
231.688	0.9529
232.052	0.9432
232.415	0.9339
232.779	0.9222
233.142	0.916
233.505	0.9065
233.869	0.9027
234.232	0.8936
234.595	0.8807
234.958	0.872
235.321	0.8597
235.684	0.8541
236.047	0.8413
236.409	0.8329
236.772	0.8263
237.134	0.8174
237.497	0.8066
237.859	0.7997
238.222	0.7934
238.584	0.7808
238.946	0.7751
239.308	0.7662
239.67	0.7585
240.032	0.7519
240.393	0.7445
240.755	0.735
241.117	0.7305
241.478	0.7218
241.84	0.7154
242.201	0.7079
242.562	0.7034
242.924	0.6964
243.285	0.6898
243.646	0.6829
244.007	0.6808
244.368	0.6728
244.728	0.6693
245.089	0.6642
245.45	0.6604
245.81	0.6564
246.171	0.6509
246.531	0.645
246.891	0.6395
247.252	0.6375
247.612	0.6332
247.972	0.6289
248.332	0.6273
248.692	0.6219
249.051	0.6188
249.411	0.62
249.771	0.6149
250.13	0.6111
250.49	0.6093
250.849	0.6063
251.208	0.6021
251.568	0.6008
251.927	0.5989
252.286	0.5975
252.645	0.5945
253.004	0.5915
253.363	0.5913
253.721	0.5881
254.08	0.5861
254.439	0.5835
254.797	0.5808
255.155	0.5797
255.514	0.5784
255.872	0.5773
256.23	0.5732
256.588	0.5726
256.946	0.5714
257.304	0.571
257.662	0.5697
258.02	0.568
258.377	0.5664
258.735	0.5628
259.093	0.5619
259.45	0.5615
259.807	0.559
260.165	0.556
260.522	0.5549
260.879	0.554
261.236	0.5522
261.593	0.5497
261.95	0.5465
262.306	0.5467
262.663	0.5448
263.02	0.5419
263.376	0.5398
263.733	0.5384
264.089	0.5381
264.445	0.535
264.802	0.5328
265.158	0.53
265.514	0.5285
265.87	0.5279
266.226	0.5246
266.581	0.5223
266.937	0.5186
267.293	0.5186
267.648	0.5175
268.004	0.5132
268.359	0.51
268.714	0.5073
269.07	0.5058
269.425	0.5043
269.78	0.5019
270.135	0.499
270.49	0.4974
270.844	0.494
271.199	0.4915
271.554	0.4878
271.908	0.4862
272.263	0.4825
272.617	0.4818
272.972	0.4781
273.326	0.4739
273.68	0.4731
274.034	0.4683
274.388	0.4673
274.742	0.4626
275.096	0.4595
275.45	0.4564
275.803	0.4534
276.157	0.4496
276.51	0.4479
276.864	0.4452
277.217	0.4421
277.571	0.4367
277.924	0.4348
278.277	0.4308
278.63	0.4271
278.983	0.4244
279.336	0.4195
279.688	0.4173
280.041	0.4128
280.394	0.4089
280.746	0.4065
281.099	0.4023
281.451	0.3976
281.803	0.3943
282.156	0.3913
282.508	0.3878
282.86	0.3842
283.212	0.3802
283.564	0.3771
283.916	0.3727
284.267	0.3687
284.619	0.3662
284.971	0.3621
285.322	0.3588
285.673	0.3552
286.025	0.3515
286.376	0.3476
286.727	0.3432
287.078	0.3387
287.429	0.3373
287.78	0.3318
288.131	0.3281
288.482	0.3247
288.833	0.3207
289.183	0.3168
289.534	0.3136
289.884	0.3087
290.235	0.3055
290.585	0.3017
290.935	0.2975
291.285	0.2947
291.635	0.2916
291.985	0.287
292.335	0.2836
292.685	0.2806
293.035	0.2761
293.384	0.2722
293.734	0.2689
294.083	0.2657
294.433	0.2612
294.782	0.2581
295.131	0.2548
295.48	0.2522
295.829	0.2484
296.179	0.2443
296.527	0.2409
296.876	0.2388
297.225	0.2358
297.574	0.232
297.922	0.2289
298.271	0.2257
298.619	0.2223
298.968	0.2194
299.316	0.2169
299.664	0.2139
300.012	0.2111
300.36	0.207
300.708	0.2052
301.056	0.2025
301.404	0.2003
301.752	0.1975
302.099	0.1955
302.447	0.1936
302.794	0.1899
303.142	0.1884
303.489	0.1866
303.836	0.1841
304.183	0.1826
304.531	0.1807
304.878	0.1792
305.224	0.177
305.571	0.1749
305.918	0.1737
306.265	0.1718
306.611	0.1709
306.958	0.1694
307.304	0.1677
307.651	0.1667
307.997	0.1649
308.343	0.1637
308.689	0.1631
309.035	0.1619
309.381	0.1616
309.727	0.1599
310.073	0.1593
310.419	0.1585
310.764	0.1576
311.11	0.1575
311.455	0.1568
311.801	0.1555
312.146	0.1557
312.491	0.1549
312.837	0.1549
313.182	0.1552
313.527	0.1542
313.872	0.1543
314.216	0.1542
314.561	0.154
314.906	0.1535
315.251	0.1533
315.595	0.1533
315.94	0.1533
316.284	0.1538
316.628	0.153
316.972	0.1531
317.317	0.1532
317.661	0.1548
318.005	0.1547
318.348	0.155
318.692	0.1552
319.036	0.1558
319.38	0.1556
319.723	0.1568
320.067	0.1569
320.41	0.1572
320.754	0.1587
321.097	0.1591
321.44	0.1597
321.783	0.1603
322.126	0.1608
322.469	0.1622
322.812	0.1631
323.155	0.1639
323.498	0.1642
323.84	0.1658
324.183	0.1667
324.525	0.1673
324.868	0.1683
325.21	0.1698
325.552	0.1706
325.894	0.1711
326.236	0.1729
326.578	0.1734
326.92	0.1745
327.262	0.1754
327.604	0.1769
327.946	0.1776
328.287	0.1792
328.629	0.1801
328.97	0.1812
329.312	0.1827
329.653	0.183
329.994	0.1846
330.335	0.1859
330.676	0.1873
331.017	0.1874
331.358	0.1894
331.699	0.1906
332.04	0.1924
332.38	0.1925
332.721	0.1947
333.061	0.1955
333.402	0.1966
333.742	0.1978
334.083	0.1998
334.423	0.2002
334.763	0.2013
335.103	0.2028
335.443	0.2034
335.783	0.2038
336.123	0.2044
336.462	0.2063
336.802	0.2071
337.141	0.2074
337.481	0.209
337.82	0.2091
338.16	0.2103
338.499	0.2113
338.838	0.2122
339.177	0.2138
339.516	0.2147
339.855	0.2157
340.194	0.2164
340.533	0.2169
340.872	0.2181
341.21	0.219
341.549	0.2196
341.887	0.2207
342.226	0.2209
342.564	0.2208
342.902	0.2209
343.24	0.2211
343.578	0.2219
343.916	0.2219
344.254	0.2224
344.592	0.2222
344.93	0.2236
345.268	0.2231
345.605	0.2226
345.943	0.2227
346.28	0.2231
346.618	0.223
346.955	0.2232
347.292	0.2233
347.629	0.2243
347.966	0.2243
348.303	0.2237
348.64	0.2237
348.977	0.2233
349.314	0.2238
349.65	0.2243
349.987	0.2241
350.324	0.2231
350.66	0.2233
350.996	0.223
351.333	0.2211
351.669	0.2214
352.005	0.2207
352.341	0.2201
352.677	0.2196
353.013	0.2185
353.349	0.2178
353.685	0.2168
354.02	0.2154
354.356	0.2148
354.691	0.2139
355.027	0.2134
355.362	0.2117
355.697	0.2109
356.033	0.2101
356.368	0.2087
356.703	0.2085
357.038	0.2077
357.373	0.2068
357.707	0.2064
358.042	0.2052
358.377	0.2041
358.711	0.2031
359.046	0.2026
359.38	0.2013
359.715	0.2004
360.049	0.1992
360.383	0.1981
360.717	0.197
361.051	0.1948
361.385	0.1943
361.719	0.1921
362.053	0.1912
362.387	0.189
362.72	0.1872
363.054	0.1858
363.387	0.1842
363.721	0.1832
364.054	0.1808
364.387	0.1791
364.721	0.1774
365.054	0.1763
365.387	0.1747
365.72	0.1725
366.053	0.1713
366.385	0.17
366.718	0.1688
367.051	0.1668
367.383	0.1659
367.716	0.1648
368.048	0.1637
368.381	0.162
368.713	0.161
369.045	0.1595
369.377	0.1586
369.709	0.1569
370.041	0.1557
370.373	0.1548
370.705	0.1533
371.037	0.1515
371.368	0.1498
371.7	0.1483
372.031	0.1467
372.363	0.1452
372.694	0.1435
373.025	0.1416
373.356	0.14
373.688	0.1376
374.019	0.1356
374.35	0.1339
374.68	0.1326
375.011	0.131
375.342	0.1288
375.673	0.1271
376.003	0.1256
376.334	0.1237
376.664	0.1219
376.995	0.1206
377.325	0.1197
377.655	0.1183
377.985	0.1162
378.315	0.1157
378.645	0.1134
378.975	0.113
379.305	0.1117
379.635	0.1109
379.964	0.109
380.294	0.108
380.623	0.1075
380.953	0.1055
381.282	0.1045
381.611	0.103
381.941	0.1013
382.27	0.1004
382.599	0.0991
382.928	0.0978
383.257	0.0965
383.585	0.0957
383.914	0.0937
384.243	0.0929
384.571	0.0909
384.9	0.0891
385.228	0.0881
385.557	0.0864
385.885	0.0853
386.213	0.0836
386.541	0.0821
386.869	0.0809
387.197	0.0796
387.525	0.0775
387.853	0.0764
388.181	0.0758
388.508	0.075
388.836	0.0734
389.164	0.0724
389.491	0.0712
389.818	0.0702
390.146	0.0688
390.473	0.0672
390.8	0.0664
391.127	0.0658
391.454	0.0652
391.781	0.0641
392.108	0.0632
392.435	0.0616
392.761	0.0602
393.088	0.0601
393.415	0.0595
393.741	0.0592
394.067	0.0585
394.394	0.0575
394.72	0.0572
395.046	0.0555
395.372	0.0551
395.698	0.0536
396.024	0.0537
396.35	0.0528
396.676	0.0522
397.001	0.0517
397.327	0.0505
397.653	0.0495
397.978	0.0488
398.303	0.0477
398.629	0.0472
398.954	0.0468
399.279	0.0463
399.604	0.0459
399.929	0.0451
400.254	0.0446
400.579	0.0443
400.904	0.0434
401.229	0.0429
401.553	0.0416
401.878	0.0412
402.202	0.0413
402.527	0.0409
402.851	0.0404
403.175	0.04
403.5	0.0402
403.824	0.04
404.148	0.0397
404.472	0.0395
404.796	0.0381
405.119	0.0378
405.443	0.0383
405.767	0.037
406.09	0.0368
406.414	0.0377
406.737	0.0371
407.061	0.0367
407.384	0.0371
407.707	0.0366
408.03	0.0364
408.353	0.0365
408.676	0.0363
408.999	0.0355
409.322	0.036
409.645	0.0358
409.968	0.0352
410.29	0.0355
410.613	0.0352
410.935	0.0359
411.258	0.0358
411.58	0.0355
411.902	0.0359
412.224	0.0355
412.546	0.0358
412.868	0.0355
413.19	0.0354
413.512	0.036
413.834	0.0353
414.156	0.0363
414.477	0.0352
414.799	0.0357
415.121	0.0361
415.442	0.0358
415.763	0.036
416.085	0.0352
416.406	0.0361
416.727	0.036
417.048	0.0351
417.369	0.0356
417.69	0.0357
418.011	0.0358
418.331	0.0361
418.652	0.0361
418.973	0.0365
419.293	0.0361
419.614	0.0364
419.934	0.0361
420.254	0.0363
420.574	0.0357
420.895	0.0361
421.215	0.0355
421.535	0.0358
421.855	0.0353
422.174	0.0357
422.494	0.0355
422.814	0.0368
423.134	0.0363
423.453	0.0364
423.773	0.0359
424.092	0.0364
424.411	0.036
424.731	0.0367
425.05	0.0367
425.369	0.0364
425.688	0.0371
426.007	0.037
426.326	0.037
426.644	0.0381
426.963	0.0373
427.282	0.0376
427.6	0.0375
427.919	0.0372
428.237	0.0379
428.556	0.0383
428.874	0.0376
429.192	0.0376
429.51	0.0373
429.828	0.0375
430.146	0.0377
430.464	0.0379
430.782	0.0379
431.1	0.0378
431.418	0.037
431.735	0.0379
432.053	0.0379
432.37	0.0381
432.688	0.038
433.005	0.0377
433.322	0.038
433.639	0.0384
433.957	0.0381
434.274	0.0384
434.591	0.0386
434.907	0.0384
435.224	0.0381
435.541	0.0388
435.858	0.0393
436.174	0.0389
436.491	0.0381
436.807	0.0382
437.124	0.0376
437.44	0.0379
437.756	0.038
438.072	0.0375
438.388	0.0386
438.704	0.0381
439.02	0.0382
439.336	0.0379
439.652	0.0376
439.968	0.0382
440.283	0.0379
440.599	0.0384
440.914	0.038
441.23	0.0382
441.545	0.0379
441.86	0.0386
442.175	0.0388
442.491	0.0376
442.806	0.0381
443.121	0.0383
443.435	0.0379
443.75	0.0379
444.065	0.0377
444.38	0.038
444.694	0.038
445.009	0.0387
445.323	0.0382
445.638	0.0374
445.952	0.0375
446.266	0.0378
446.58	0.0378
446.894	0.0376
447.208	0.038
447.522	0.0375
447.836	0.0364
448.15	0.0369
448.464	0.037
448.777	0.0364
449.091	0.0363
449.404	0.0376
449.718	0.0376
450.031	0.0367
450.345	0.0372
450.658	0.0364
450.971	0.0362
451.284	0.0359
451.597	0.0362
451.91	0.037
452.223	0.0356
452.535	0.0366
452.848	0.0362
453.161	0.0361
453.473	0.0361
453.786	0.0361
454.098	0.0359
454.411	0.0352
454.723	0.0354
455.035	0.0353
455.347	0.036
455.659	0.0363
455.971	0.0355
456.283	0.0358
456.595	0.0352
456.907	0.0349
457.218	0.0349
457.53	0.0348
457.841	0.0338
458.153	0.0337
458.464	0.0341
458.776	0.033
459.087	0.033
459.398	0.0331
459.709	0.0336
460.02	0.033
460.331	0.0331
460.642	0.0333
460.953	0.0333
461.263	0.0329
461.574	0.0334
461.885	0.0322
462.195	0.0327
462.506	0.0326
462.816	0.0325
463.126	0.0308
463.437	0.0316
463.747	0.0318
464.057	0.0313
464.367	0.0315
464.677	0.0309
464.987	0.0315
465.296	0.0306
465.606	0.03
465.916	0.03
466.225	0.0301
466.535	0.0295
466.844	0.0291
467.154	0.0294
467.463	0.0292
467.772	0.0298
468.081	0.0289
468.39	0.029
468.699	0.0288
469.008	0.0296
469.317	0.0285
469.626	0.0281
469.935	0.0283
470.243	0.0286
470.552	0.029
470.86	0.0284
471.169	0.0277
471.477	0.0278
471.785	0.0285
472.093	0.0279
472.402	0.0271
472.71	0.0271
473.018	0.0265
473.326	0.0257
473.633	0.0256
473.941	0.0256
474.249	0.0254
474.556	0.0261
474.864	0.0253
475.171	0.0247
475.479	0.0254
475.786	0.0248
476.094	0.0259
476.401	0.0247
476.708	0.0249
477.015	0.0246
477.322	0.0245
477.629	0.0244
477.936	0.0236
478.242	0.0237
478.549	0.0233
478.856	0.0236
479.162	0.024
479.469	0.024
479.775	0.0238
480.081	0.0225
480.388	0.0229
480.694	0.0219
481	0.0226
481.306	0.0221
481.612	0.0221
481.918	0.0219
482.224	0.0222
482.53	0.0212
482.835	0.0211
483.141	0.0206
483.446	0.0197
483.752	0.0203
484.057	0.0197
484.363	0.0199
484.668	0.0193
484.973	0.0191
485.278	0.0192
485.583	0.0183
485.888	0.0187
486.193	0.0181
486.498	0.0182
486.803	0.0193
487.107	0.018
487.412	0.0176
487.717	0.0175
488.021	0.0176
488.325	0.0175
488.63	0.0167
488.934	0.0172
489.238	0.0167
489.542	0.0176
489.846	0.0154
490.15	0.0171
490.454	0.0169
490.758	0.0165
491.062	0.016
491.366	0.0158
491.669	0.0165
491.973	0.0157
492.276	0.0156
492.58	0.0149
492.883	0.0151
493.186	0.0152
493.489	0.0149
493.792	0.0146
494.096	0.0151
494.399	0.0148
494.701	0.0161
495.004	0.0141
495.307	0.0134
495.61	0.013
495.912	0.0132
496.215	0.013
496.517	0.0133
496.82	0.0129
497.122	0.0134
497.424	0.0121
497.727	0.0128
498.029	0.0141
498.331	0.0128
498.633	0.0127
498.935	0.0124
499.237	0.0132
499.538	0.0119
499.84	0.0115
500.142	0.0122
500.443	0.0111
500.745	0.0114
501.046	0.0122
501.348	0.0111
501.649	0.012
501.95	0.0103
502.251	0.0107
502.552	0.0099
502.853	0.0108
503.154	0.0096
503.455	0.0101
503.756	0.0101
504.057	0.0104
504.357	0.0103
504.658	0.0095
504.958	0.0099
505.259	0.0103
505.559	0.0107
505.859	0.0091
506.16	0.0095
506.46	0.0095
506.76	0.0095
507.06	0.0084
507.36	0.0096
507.66	0.0098
507.96	0.0093
508.259	0.0082
508.559	0.0079
508.859	0.0081
509.158	0.0075
509.457	0.008
509.757	0.0098
510.056	0.0085
510.355	0.0085
510.655	0.0069
510.954	0.0075
511.253	0.0081
511.552	0.0079
511.851	0.0078
512.149	0.0072
512.448	0.0065
512.747	0.007
513.045	0.0062
513.344	0.0075
513.642	0.0075
513.941	0.0064
514.239	0.0065
514.537	0.0067
514.836	0.0062
515.134	0.0066
515.432	0.0062
515.73	0.0075
516.028	0.0056
516.326	0.0068
516.623	0.006
516.921	0.0067
517.219	0.0062
517.516	0.007
517.814	0.0061
518.111	0.0068
518.409	0.0076
518.706	0.0067
519.003	0.0065
519.3	0.0057
519.597	0.0059
519.894	0.0059
520.191	0.0068
520.488	0.0064
520.785	0.005
521.082	0.0063
521.378	0.0058
521.675	0.0037
521.971	0.0049
522.268	0.0044
522.564	0.0056
522.861	0.005
523.157	0.0045
523.453	0.0046
523.749	0.0065
524.045	0.0057
524.341	0.0051
524.637	0.0047
524.933	0.0052
525.229	0.0054
525.524	0.0042
525.82	0.0049
526.115	0.005
526.411	0.0043
526.706	0.0037
527.002	0.0047
527.297	0.0033
527.592	0.006
527.887	0.0054
528.182	0.005
528.477	0.0052
528.772	0.0047
529.067	0.0045
529.362	0.0046
529.657	0.0038
529.951	0.004
530.246	0.0038
530.54	0.003
530.835	0.0037
531.129	0.0033
531.423	0.0043
531.718	0.0034
532.012	0.0037
532.306	0.0031
532.6	0.0031
532.894	0.0024
533.188	0.0038
533.482	0.0027
533.775	0.0036
534.069	0.0027
534.363	0.0023
534.656	0.0027
534.95	0.0016
535.243	0.0031
535.536	0.0034
535.83	0.0035
536.123	0.0022
536.416	0.003
536.709	0.0029
537.002	0.0032
537.295	0.0034
537.588	0.0042
537.881	0.0032
538.173	0.0032
538.466	0.0024
538.759	0.0026
539.051	0.0012
539.344	0.0024
539.636	0.0023
539.928	0.003
540.22	0.0025
540.513	0.0034
540.805	0.0032
541.097	0.0024
541.389	0.0036
541.681	0.0018
541.972	0.0036
542.264	0.0023
542.556	0.0029
542.847	0.0033
543.139	0.0035
543.431	0.0044
543.722	0.0038
544.013	0.0041
544.305	0.0048
544.596	0.0051
544.887	0.0047
545.178	0.0039
545.469	0.0031
545.76	0.0022
546.051	0.0039
546.342	0.0037
546.632	0.0022
546.923	0.0033
547.214	0.0034
547.504	0.0028
547.795	0.0034
548.085	0.0026
548.375	0.0018
548.666	0.0026
548.956	0.002
549.246	0.0027
549.536	0.0017
549.826	0.0034
550.116	0.004
550.406	0.0035
550.695	0.0037
550.985	0.0038
551.275	0.0039
551.564	0.0033
551.854	0.0029
552.143	0.0031
552.433	0.0033
552.722	0.0032
553.011	0.003
553.3	0.0028
553.589	0.0025
553.879	0.0027
554.167	0.003
554.456	0.0034
554.745	0.0029
555.034	0.0032
555.323	0.0011
555.611	0.0017
555.9	0.0027
556.188	0.003
556.477	0.0028
556.765	0.0025
557.053	0.002
557.342	0.002
557.63	0.0029
557.918	0.003
558.206	0.0023
558.494	0.0039
558.782	0.0028
559.069	0.0037
559.357	0.0031
559.645	0.0022
559.932	0.0034
560.22	0.0039
560.507	0.0036
560.795	0.0026
561.082	0.0028
561.37	0.0027
561.657	0.0027
561.944	0.0032
562.231	0.0024
562.518	0.0022
562.805	0.0034
563.092	0.0032
563.379	0.0037
563.665	0.0027
563.952	0.0046
564.239	0.0044
564.525	0.0037
564.811	0.0047
565.098	0.0041
565.384	0.0038
565.67	0.0033
565.957	0.0026
566.243	0.0034
566.529	0.004
566.815	0.0055
567.101	0.0033
567.387	0.0028
567.672	0.0026
567.958	0.003
568.244	0.0034
568.529	0.0035
568.815	0.0029
569.1	0.0028
569.386	0.0025
569.671	0.0027
569.956	0.0026
570.242	0.0026
570.527	0.0033
570.812	0.003
571.097	0.0034
571.382	0.0024
571.666	0.0019
571.951	0.0021
572.236	0.0026
572.521	0.0016
572.805	0.0029
573.09	0.0021
573.374	0.0029
573.659	0.0018
573.943	0.0021
574.227	0.0018
574.511	0.0027
574.795	0.0028
575.079	0.0025
575.363	0.0025
575.647	0.002
575.931	0.0022
576.215	0.0027
576.499	0.0019
576.782	0.0022
577.066	0.0022
577.349	0.0024
577.633	0.0038
577.916	0.0036
578.2	0.003
578.483	0.0031
578.766	0.0027
579.049	0.003
579.332	0.0027
579.615	0.0029
579.898	0.0026
580.181	0.0031
580.464	0.0025
580.746	0.0024
581.029	0.0026
581.312	0.0027
581.594	0.0026
581.877	0.0024
582.159	0.0028
582.441	0.003
582.724	0.0023
583.006	0.0022
583.288	0.0015
583.57	0.0012
583.852	0.0014
584.134	0.0017
584.416	0.0027
584.697	0.0023
584.979	0.0025
585.261	0.003
585.542	0.0019
585.824	0.0025
586.105	0.003
586.387	0.0019
586.668	0.0019
586.949	0.0028
587.231	0.0021
587.512	0.0024
587.793	0.0021
588.074	0.0026
588.355	0.0025
588.636	0.0035
588.916	0.0025
589.197	0.0028
589.478	0.0026
589.758	0.0029
590.039	0.0028
590.319	0.003
590.6	0.0029
590.88	0.0029
591.16	0.0026
591.441	0.0037
591.721	0.003
592.001	0.0028
592.281	0.0033
592.561	0.0036
592.841	0.0035
593.12	0.0028
593.4	0.0017
593.68	0.0027
593.959	0.0026
594.239	0.0035
594.518	0.0027
594.798	0.0029
595.077	0.0035
595.356	0.0027
595.636	0.0025
595.915	0.0028
596.194	0.0031
596.473	0.0025
596.752	0.0026
597.031	0.0022
597.31	0.0016
597.588	0.002
597.867	0.0013
598.146	0.0013
598.424	0.0022
598.703	0.0024
598.981	0.0026
599.259	0.0023
599.538	0.0027
599.816	0.0029
600.094	0.0021
600.372	0.0021
600.65	0.0028
600.928	0.003
601.206	0.0026
601.484	0.003
601.762	0.0027
602.04	0.0024
602.317	0.0029
602.595	0.0022
602.872	0.0026
603.15	0.003
603.427	0.0017
603.704	0.0012
603.982	0.002
604.259	0.0013
604.536	0.0019
604.813	0.0017
605.09	0.0022
605.367	0.0024
605.644	0.0016
605.921	0.0023
606.197	0.002
606.474	0.0019
606.751	0.0022
607.027	0.0029
607.304	0.0024
607.58	0.0021
607.856	0.0016
608.133	0.0025
608.409	0.0027
608.685	0.0024
608.961	0.0027
609.237	0.0022
609.513	0.0024
609.789	0.0031
610.065	0.0021
610.341	0.0022
610.616	0.0024
610.892	0.004
611.167	0.0035
611.443	0.003
611.718	0.0021
611.994	0.0023
612.269	0.0031
612.544	0.0018
612.819	0.0026
613.095	0.0029
613.37	0.0024
613.645	0.0018
613.919	0.0013
614.194	0.0021
614.469	0.0023
614.744	0.0015
615.019	0.0014
615.293	0.0007
615.568	0.0009
615.842	0.0012
616.116	0.0012
616.391	0.0016
616.665	0.0026
616.939	0.0018
617.213	0.002
617.488	0.0019
617.762	0.0021
618.035	0.0023
618.309	0.0019
618.583	0.0014
618.857	0.0027
619.131	0.0028
619.404	0.0017
619.678	0.0019
619.951	0.0017
620.225	0.0009
620.498	0.0018
620.771	0.0022
621.045	0.0029
621.318	0.0027
621.591	0.0026
621.864	0.0014
622.137	0.0005
622.41	0.0003
622.683	0.0009
622.956	0.0023
623.228	0.0026
623.501	0.003
623.774	0.0029
624.046	0.0028
624.319	0.0024
624.591	0.0017
624.863	0.0015
625.136	0.0015
625.408	0.0025
625.68	0.0028
625.952	0.0026
626.224	0.002
626.496	0.0027
626.768	0.0014
627.04	0.0018
627.311	0.0025
627.583	0.0027
627.855	0.0023
628.126	0.0025
628.398	0.0029
628.669	0.0029
628.941	0.0021
629.212	0.0012
629.483	0.0007
629.755	0.0015
630.026	0.0021
630.297	0.0007
630.568	0.0016
630.839	0.0004
631.11	0.0002
631.38	0.0002
631.651	0.0005
631.922	0.0007
632.192	-0.0002
632.463	-0.0006
632.733	0.0009
633.004	0.0007
633.274	-0.001
633.545	0.0005
633.815	0.0032
634.085	0.0027
634.355	0.0015
634.625	0.0035
634.895	0.0008
635.165	0.0005
635.435	0.001
635.705	0.0011
635.974	-0
636.244	0.0014
636.514	0.0014
636.783	0.0018
637.053	0.0026
637.322	0.0014
637.591	0.0024
637.861	0.0011
638.13	0.0016
638.399	0.0028
638.668	0.0027
638.937	-0.0001
639.206	0.0023
639.475	0.0018
639.744	0.0025
640.013	0.003
640.281	0.0034
640.55	0.0035
640.819	0.002
641.087	0.003
641.356	0.0025
641.624	0.003
641.892	0.0029
642.161	0.0017
642.429	0.0027
642.697	0.0025
642.965	0.0037
643.233	0.004
643.501	0.0024
643.769	0.0016
644.037	0.0019
644.305	0.0008
644.572	0.0006
644.84	0.0013
645.108	0.001
645.375	0.0005
645.643	0.0013
645.91	0.0016
646.177	0.0027
646.445	0.0041
646.712	0.0045
646.979	0.005
647.246	0.0041
647.513	0.0049
647.78	0.0038
648.047	0.0053
648.314	0.0033
648.58	0.0024
648.847	0.0021
649.114	0.0013
649.38	0
649.647	0.0014
649.913	0.0006
650.18	0.0013
650.446	0.0021
650.712	0.0032
650.978	0.0029
651.245	0.0034
651.511	0.0033
651.777	0.0026
652.043	0.0034
652.309	0.0029
652.574	0.0021
652.84	0.0022
653.106	0.0014
653.371	0.0009
653.637	0.0014
653.903	0.0029
654.168	0.0017
654.433	0.0032
654.699	0.0035
654.964	0.0032
655.229	0.0034
655.494	0.0032
655.759	0.0023
656.024	0.0006
656.289	-0
656.554	-0.0017
656.819	-0.0003
657.084	0.0016
657.349	0.0033
657.613	0.0035
657.878	0.004
658.142	0.003
658.407	0.0026
658.671	0.0024
658.936	0.0015
659.2	0.0006
659.464	0.0017
659.728	0.0013
659.992	0.0017
660.256	0.0009
660.52	0.0017
660.784	0.0006
661.048	0.0009
661.312	0.0004
661.575	-0.0001
661.839	-0.0017
662.103	-0.0016
662.366	-0.0013
662.63	-0
662.893	0.0009
663.156	0.0004
663.42	-0.0002
663.683	0.0005
663.946	0.0017
664.209	0.0035
664.472	0.0023
664.735	0.0025
664.998	0.0016
665.261	0.0012
665.524	0.0009
665.786	0.0009
666.049	0.0014
666.312	0.001
666.574	0.0007
666.837	0.0005
667.099	0
667.361	-0.0005
667.624	-0.0008
667.886	0.0001
668.148	0.0009
668.41	0.003
668.672	-0
668.934	0.0018
669.196	0.0016
669.458	0.0011
669.72	0.0021
669.982	0.0021
670.243	0.0026
670.505	0.0019
670.766	0.0018
671.028	0.0025
671.289	0.0016
671.551	0.0016
671.812	0.0005
672.073	0.0011
672.334	0.0005
672.596	0.0016
672.857	0
673.118	-0.0002
673.379	-0
673.639	0.0003
673.9	0
674.161	-0.0007
674.422	-0.0017
674.682	-0.0013
674.943	-0.001
675.203	0.0003
675.464	0.0003
675.724	0.0008
675.985	0.0009
676.245	0.0024
676.505	0.003
676.765	0.0025
677.025	0.0027
677.285	0.0022
677.545	0.0037
677.805	0.0025
678.065	0.0035
678.325	0.0028
678.585	0.0039
678.844	0.0026
679.104	0.0018
679.363	0.0025
679.623	0.0032
679.882	0.0031
680.142	0.0033
680.401	0.0041
680.66	0.0043
680.919	0.004
681.178	0.0049
681.437	0.0042
681.696	0.0034
681.955	0.0035
682.214	0.0046
682.473	0.0038
682.732	0.0017
682.99	0.0024
683.249	0.0036
683.508	0.0027
683.766	0.003
684.024	0.0028
684.283	0.0034
684.541	0.0029
684.799	0.0034
685.058	0.0034
685.316	0.0022
685.574	0.0034
685.832	0.0032
686.09	0.0026
686.348	0.0037
686.606	0.0038
686.863	0.0045
687.121	0.0044
687.379	0.0042
687.636	0.0041
687.894	0.0042
688.151	0.0048
688.409	0.0039
688.666	0.0042
688.923	0.0049
689.181	0.0037
689.438	0.0029
689.695	0.0031
689.952	0.0009
690.209	0.0018
690.466	0.0014
690.723	0.0031
690.979	0.0019
691.236	0.0017
691.493	0.0011
691.75	0.0031
692.006	0.0031
692.263	0.0036
692.519	0.0037
692.775	0.0031
693.032	0.0014
693.288	0.0033
693.544	0.0029
693.8	0.0031
694.056	0.0027
694.313	0.0026
694.568	0.0029
694.824	0.0031
695.08	0.0033
695.336	0.004
695.592	0.0025
695.847	0.0031
696.103	0.0033
696.359	0.0036
696.614	0.0033
696.869	0.0022
697.125	0.0012
697.38	-0
697.635	-0.0003
697.891	0.0008
698.146	0.0004
698.401	0.0017
698.656	0.0007
698.911	0.0024
699.166	0.001
699.42	0.0016
699.675	0.0009
699.93	-0.0004
700.185	0.0004
700.439	0.0023
700.694	0.0015
700.948	0.0019
701.203	0.0013
701.457	0.0016
701.711	0.0017
701.965	0.0003
702.22	0.0005
702.474	0.0008
702.728	0.0003
702.982	-0.0007
703.236	0.0006
703.49	0.001
703.743	0.0005
703.997	0.0013
704.251	0.0012
704.504	0.0015
704.758	0.0011
705.012	0.0006
705.265	0.001
705.518	0.0001
705.772	-0.0002
706.025	0.0008
706.278	0.0005
706.531	-0.0002
706.785	-0.0004
707.038	-0.0005
707.291	-0.0008
707.543	-0.0002
707.796	-0.0012
708.049	-0.0013
708.302	-0.0018
708.555	-0.0014
708.807	-0.0004
709.06	-0.0009
709.312	-0.0028
709.565	-0.0022
709.817	-0.0025
710.069	-0.0015
710.322	-0.0006
710.574	-0.0013
710.826	-0.0008
711.078	-0.0001
711.33	0.0003
711.582	-0.0003
711.834	0.0011
712.086	0.0011
712.338	0.0015
712.59	0.0016
712.841	0.0024
713.093	0
713.344	0.0007
713.596	0.0018
713.847	0.0017
714.099	0.0017
714.35	0.0018
714.601	0.0025
714.853	0.0033
715.104	0.0018
715.355	0.0017
715.606	0.0014
715.857	0.0022
716.108	0.003
716.359	0.0025
716.609	0.0032
716.86	0.0016
717.111	0.0017
717.361	-0.0006
717.612	-0.0002
717.863	0.0001
718.113	-0.0001
718.363	0.0002
718.614	0.0006
718.864	0.0004
719.114	0.0012
719.364	0.001
719.614	-0.0001
719.865	-0.0005
720.114	-0.0004
720.364	0.001
720.614	0.0022
720.864	0.0027
721.114	0.0026
721.364	0.0028
721.613	0.0032
721.863	0.0034
722.112	0.0026
722.362	0.0036
722.611	0.003
722.86	0.0016
723.11	0.0012
723.359	0.0018
723.608	0.0033
723.857	0.0036
724.106	0.0058
724.355	0.0052
724.604	0.0061
724.853	0.0048
725.102	0.0039
725.351	0.0034
725.599	0.002
725.848	0.003
726.097	0.0024
726.345	0.0024
726.594	0.0021
726.842	0.0019
727.09	0.0025
727.339	0.002
727.587	0.0008
727.835	0.0005
728.083	-0.0003
728.331	-0.001
728.579	-0.0007
728.827	-0.0008
729.075	-0
729.323	0.0003
729.571	0.0011
729.818	0.0015
730.066	0.0014
730.314	0.0015
730.561	0.0004
730.809	0.0003
731.056	-0.0011
731.303	-0.0011
731.551	0.0003
731.798	0
732.045	0.0003
732.292	0.0002
732.539	0.0006
732.786	0.0009
733.033	0.0019
733.28	0.0022
733.527	0.0033
733.774	0.003
734.021	0.0028
734.267	0.0035
734.514	0.0042
734.76	0.0033
735.007	0.0058
735.253	0.006
735.5	0.0055
735.746	0.0064
735.992	0.0051
736.238	0.0051
736.485	0.0057
736.731	0.0055
736.977	0.0055
737.223	0.0036
737.469	0.0045
737.715	0.0049
737.96	0.0065
738.206	0.0064
738.452	0.007
738.697	0.0068
738.943	0.0059
739.189	0.0046
739.434	0.0022
739.679	0.0016
739.925	0.0008
740.17	0.0006
740.415	0.0009
740.66	0.0016
740.906	0.0024
741.151	0.0025
741.396	0.0026
741.641	0.0048
741.886	0.0056
742.13	0.0051
742.375	0.0055
742.62	0.0066
742.865	0.0048
743.109	0.0044
743.354	0.0042
743.598	0.0045
743.843	0.0041
744.087	0.0042
744.331	0.0042
744.576	0.0043
744.82	0.0046
745.064	0.0039
745.308	0.0037
745.552	0.0035
745.796	0.0044
746.04	0.003
746.284	0.0024
746.528	0.0006
746.771	0.0011
747.015	0.0011
747.259	0.0012
747.502	0.0012
747.746	0.0017
747.989	0.0023
748.233	0.0033
748.476	0.0034
748.719	0.0042
748.963	0.004
749.206	0.0035
749.449	0.0041
749.692	0.0025
749.935	0.0041
750.178	0.0035
750.421	0.0034
750.664	0.0031
750.906	0.0038
751.149	0.0038
751.392	0.0031
751.635	0.0021
751.877	0.0006
752.12	0.0001
752.362	0.0012
752.604	0.0007
752.847	0.0019
753.089	0.002
753.331	0.0019
753.573	0.0014
753.816	0.0021
754.058	0.002
754.3	0.0032
754.542	0.0039
754.783	0.0033
755.025	0.0034
755.267	0.0015
755.509	0.001
755.75	0.0007
755.992	0.0021
756.234	0.0013
756.475	0.0006
756.716	-0.0002
756.958	0.0002
757.199	-0.0001
757.44	0.0015
757.682	0.0015
757.923	0.0003
758.164	0.0006
758.405	0.0002
758.646	0.001
758.887	0.0008
759.128	0.0007
759.369	0
759.609	-0.0005
759.85	-0.0003
760.091	0.0004
760.331	-0.0004
760.572	0.0003
760.812	-0.001
761.053	-0.0016
761.293	-0.0002
761.533	0
761.774	0.0006
762.014	-0.0002
762.254	0.0005
762.494	-0.001
762.734	-0.0002
762.974	-0.001
763.214	-0.0014
763.454	-0.001
763.694	0.0002
763.933	-0.0017
764.173	0.0002
764.413	0.0001
764.652	-0.0002
764.892	0.0006
765.131	0.0012
765.371	0.0011
765.61	0.0021
765.849	0.0018
766.089	0.002
766.328	0.0029
766.567	0.0026
766.806	0.0029
767.045	0.0028
767.284	0.0028
767.523	0.0036
767.762	0.0031
768.001	0.0025
768.239	0.0023
768.478	0.002
768.717	0.0016
768.955	0.0022
769.194	0.0016
769.432	0.0018
769.671	0.0023
769.909	0.002
770.148	0.0025
770.386	0.0028
770.624	0.0024
770.862	0.002
771.1	0.0016
771.338	0.0023
771.576	0.0014
771.814	0.0014
772.052	0.0011
772.29	0.0019
772.528	0.0026
772.765	0.0026
773.003	0.0028
773.24	0.0031
773.478	0.0024
773.716	0.0037
773.953	0.0038
774.19	0.0044
774.428	0.0045
774.665	0.0044
774.902	0.0041
775.139	0.0027
775.376	0.0034
775.613	0.002
775.85	0.0028
776.087	0.0023
776.324	0.0021
776.561	0.0031
776.798	0.0046
777.034	0.005
777.271	0.0067
777.508	0.0066
777.744	0.0064
777.981	0.0052
778.217	0.0053
778.454	0.0042
778.69	0.0041
778.926	0.005
779.162	0.0042
779.399	0.0034
779.635	0.0038
779.871	0.003
780.107	0.004
780.343	0.0042
780.579	0.0053
780.814	0.0046
781.05	0.0047
781.286	0.0039
781.522	0.0033
781.757	0.0052
781.993	0.0049
782.228	0.0053
782.464	0.0045
782.699	0.0039
782.934	0.003
783.17	0.0036
783.405	0.003
783.64	0.0025
783.875	0.0026
784.11	0.0027
784.345	0.004
784.58	0.0035
784.815	0.0031
785.05	0.0032
785.285	0.002
785.52	0.0017
785.754	0.0021
785.989	0.0019
786.223	0.0011
786.458	0.0005
786.692	0.0005
786.927	0.0006
787.161	0
787.396	0.0001
787.63	-0
787.864	-0.0008
788.098	-0.0007
788.332	0
788.566	0.001
788.8	-0.0001
789.034	0.0005
789.268	0.001
789.502	0.0019
789.736	0.0027
789.969	0.0032
790.203	0.003
790.437	0.0024
790.67	0.0015
790.904	0.0027
791.137	0.0005
791.37	0.001
791.604	-0.0006
791.837	0.0003
792.07	-0.0006
792.303	0.0008
792.537	0.0004
792.77	0.0006
793.003	-0.0001
793.236	-0.0011
793.469	-0.0012
793.701	-0.0003
793.934	0.0001
794.167	0
794.4	0.0003
794.632	-0
794.865	-0.001
795.097	0.0004
795.33	0.0019
795.562	0.0002
795.795	0.0004
796.027	0.0003
796.259	0.0006
796.491	0.0005
796.724	-0
796.956	0.0008
797.188	0.0017
797.42	0.0005
797.652	0.0017
797.883	0.0009
798.115	0.0001
798.347	-0.0013
798.579	-0.0015
798.81	-0.0016
799.042	-0.0012
799.274	-0.0019
799.505	-0.0018
799.737	-0.0023
799.968	-0.0016
800.199	-0.0006
800.431	-0.0003
800.662	-0.0001
800.893	-0.0001
801.124	0.0007
801.355	0.0008
801.586	0.0003
801.817	0.0005
802.048	0.0007
802.279	0.001
802.51	0.0021
802.741	0.0004
802.971	-0.0005
803.202	-0.001
803.433	-0.0012
803.663	-0.0009
803.894	-0.0001
804.124	-0
804.354	-0.0003
804.585	-0.0002
804.815	0.0001
805.045	0.0002
805.275	-0.0014
805.506	-0.0658
805.736	0.0602
805.966	0.0087
806.196	0.0674
