Data from 03 0.2 mM BQDS 0.4 mM K2Cr2O7 1 M H2SO4 5 min_Absorbance_06-52-42-563.txt Node
Date: Wed Dec 08 06:52:42 EST 2021
User: kwabilab-user
Spectrometer: HDX00518
Trigger mode: 0
Integration Time (sec): 5.000000E-2
Scans to average: 50
Nonlinearity correction enabled: false
Boxcar width: 0
Storing dark spectrum: false
XAxis mode: Wavelengths
Number of Pixels in Spectrum: 2068
>>>>>Begin Spectral Data<<<<<
195.27	-0.0385
195.642	0.0122
196.014	0.0754
196.386	-0.1278
196.758	-0.0237
197.129	-0.0063
197.501	0.0301
197.872	0.0805
198.244	0.0877
198.615	0.1105
198.986	0.0985
199.357	0.0856
199.728	0.1004
200.099	0.0835
200.47	0.0846
200.841	0.0852
201.212	0.0828
201.582	0.0746
201.953	0.1001
202.323	0.0832
202.694	0.0837
203.064	0.0859
203.434	0.0642
203.804	0.1014
204.174	0.0951
204.544	0.084
204.914	0.0781
205.284	0.0924
205.653	0.1079
206.023	0.0932
206.393	0.0934
206.762	0.0869
207.131	0.0903
207.501	0.0973
207.87	0.0859
208.239	0.0872
208.608	0.0861
208.977	0.0939
209.346	0.109
209.715	0.1039
210.083	0.1045
210.452	0.0951
210.82	0.128
211.189	0.1092
211.557	0.11
211.925	0.135
212.294	0.1341
212.662	0.1444
213.03	0.1441
213.398	0.1351
213.766	0.1516
214.133	0.1501
214.501	0.1711
214.869	0.1821
215.236	0.2039
215.604	0.2002
215.971	0.2227
216.338	0.2381
216.705	0.252
217.072	0.2738
217.439	0.3008
217.806	0.3256
218.173	0.3556
218.54	0.3767
218.907	0.4151
219.273	0.4439
219.64	0.4861
220.006	0.5218
220.373	0.5546
220.739	0.5952
221.105	0.6375
221.471	0.6628
221.837	0.6925
222.203	0.747
222.569	0.7655
222.935	0.7988
223.3	0.8272
223.666	0.8585
224.031	0.8859
224.397	0.9037
224.762	0.915
225.127	0.9518
225.493	0.951
225.858	0.9626
226.223	0.976
226.588	0.9803
226.952	0.9859
227.317	0.9953
227.682	0.987
228.046	0.9812
228.411	0.9812
228.775	0.9875
229.14	0.9846
229.504	0.9758
229.868	0.9758
230.232	0.9665
230.596	0.9605
230.96	0.95
231.324	0.9391
231.688	0.9346
232.052	0.9236
232.415	0.9131
232.779	0.9091
233.142	0.8997
233.505	0.8951
233.869	0.8857
234.232	0.8733
234.595	0.8622
234.958	0.8579
235.321	0.8476
235.684	0.8342
236.047	0.8278
236.409	0.8197
236.772	0.8088
237.134	0.8017
237.497	0.791
237.859	0.784
238.222	0.7793
238.584	0.7682
238.946	0.7575
239.308	0.753
239.67	0.7472
240.032	0.7399
240.393	0.7326
240.755	0.7229
241.117	0.7172
241.478	0.7129
241.84	0.7047
242.201	0.6974
242.562	0.6921
242.924	0.6879
243.285	0.6807
243.646	0.6761
244.007	0.6745
244.368	0.6668
244.728	0.6625
245.089	0.6578
245.45	0.6529
245.81	0.6512
246.171	0.6438
246.531	0.6406
246.891	0.639
247.252	0.6342
247.612	0.631
247.972	0.6267
248.332	0.6253
248.692	0.6209
249.051	0.6196
249.411	0.6159
249.771	0.6134
250.13	0.613
250.49	0.6096
250.849	0.6065
251.208	0.6058
251.568	0.6045
251.927	0.6014
252.286	0.6008
252.645	0.5996
253.004	0.5968
253.363	0.5937
253.721	0.594
254.08	0.5917
254.439	0.589
254.797	0.5888
255.155	0.5882
255.514	0.587
255.872	0.5854
256.23	0.5815
256.588	0.5812
256.946	0.5805
257.304	0.5787
257.662	0.5782
258.02	0.5762
258.377	0.575
258.735	0.573
259.093	0.5733
259.45	0.57
259.807	0.5699
260.165	0.5682
260.522	0.5665
260.879	0.5671
261.236	0.5655
261.593	0.5614
261.95	0.5604
262.306	0.5587
262.663	0.5561
263.02	0.5556
263.376	0.5535
263.733	0.5516
264.089	0.5521
264.445	0.5476
264.802	0.547
265.158	0.5425
265.514	0.5434
265.87	0.5395
266.226	0.5367
266.581	0.5356
266.937	0.5318
267.293	0.531
267.648	0.53
268.004	0.5267
268.359	0.5241
268.714	0.5212
269.07	0.5198
269.425	0.5163
269.78	0.515
270.135	0.5105
270.49	0.51
270.844	0.5079
271.199	0.5072
271.554	0.5009
271.908	0.4979
272.263	0.4942
272.617	0.4943
272.972	0.4901
273.326	0.4872
273.68	0.4846
274.034	0.4813
274.388	0.4776
274.742	0.4752
275.096	0.4716
275.45	0.4679
275.803	0.4648
276.157	0.4618
276.51	0.4583
276.864	0.4547
277.217	0.4507
277.571	0.4467
277.924	0.4421
278.277	0.4395
278.63	0.4354
278.983	0.4325
279.336	0.4288
279.688	0.424
280.041	0.4202
280.394	0.4159
280.746	0.4144
281.099	0.4092
281.451	0.4046
281.803	0.4001
282.156	0.3977
282.508	0.3933
282.86	0.391
283.212	0.3847
283.564	0.3825
283.916	0.378
284.267	0.3742
284.619	0.3713
284.971	0.3663
285.322	0.3636
285.673	0.3586
286.025	0.3558
286.376	0.3515
286.727	0.347
287.078	0.3435
287.429	0.341
287.78	0.3356
288.131	0.3318
288.482	0.3279
288.833	0.3247
289.183	0.3205
289.534	0.317
289.884	0.3132
290.235	0.31
290.585	0.3046
290.935	0.3023
291.285	0.2982
291.635	0.2943
291.985	0.2899
292.335	0.2861
292.685	0.2824
293.035	0.2796
293.384	0.2756
293.734	0.2716
294.083	0.2677
294.433	0.265
294.782	0.2612
295.131	0.2574
295.48	0.2547
295.829	0.2515
296.179	0.2466
296.527	0.2438
296.876	0.2406
297.225	0.2388
297.574	0.234
297.922	0.2313
298.271	0.2281
298.619	0.2249
298.968	0.2219
299.316	0.2191
299.664	0.2166
300.012	0.2132
300.36	0.2097
300.708	0.208
301.056	0.2053
301.404	0.2033
301.752	0.2007
302.099	0.1979
302.447	0.1962
302.794	0.1935
303.142	0.1912
303.489	0.1887
303.836	0.1866
304.183	0.1851
304.531	0.183
304.878	0.1814
305.224	0.1787
305.571	0.1775
305.918	0.1761
306.265	0.1742
306.611	0.1733
306.958	0.1717
307.304	0.1703
307.651	0.1699
307.997	0.1682
308.343	0.1669
308.689	0.166
309.035	0.1647
309.381	0.1645
309.727	0.1627
310.073	0.1624
310.419	0.1612
310.764	0.1607
311.11	0.1603
311.455	0.1594
311.801	0.1587
312.146	0.1584
312.491	0.1577
312.837	0.158
313.182	0.1576
313.527	0.157
313.872	0.1563
314.216	0.1572
314.561	0.1572
314.906	0.1574
315.251	0.157
315.595	0.1567
315.94	0.1565
316.284	0.157
316.628	0.1567
316.972	0.1568
317.317	0.1573
317.661	0.1576
318.005	0.1581
318.348	0.1585
318.692	0.1587
319.036	0.1587
319.38	0.1592
319.723	0.16
320.067	0.1605
320.41	0.1611
320.754	0.1623
321.097	0.1631
321.44	0.1634
321.783	0.1646
322.126	0.1655
322.469	0.1664
322.812	0.1676
323.155	0.1682
323.498	0.1693
323.84	0.1706
324.183	0.1712
324.525	0.1721
324.868	0.1727
325.21	0.1746
325.552	0.1751
325.894	0.1761
326.236	0.1776
326.578	0.1788
326.92	0.1801
327.262	0.1804
327.604	0.1821
327.946	0.1835
328.287	0.1843
328.629	0.1853
328.97	0.1863
329.312	0.1878
329.653	0.1892
329.994	0.1909
330.335	0.1922
330.676	0.1929
331.017	0.194
331.358	0.1959
331.699	0.1966
332.04	0.1982
332.38	0.199
332.721	0.2013
333.061	0.2013
333.402	0.2038
333.742	0.2051
334.083	0.2059
334.423	0.2067
334.763	0.2075
335.103	0.2094
335.443	0.2106
335.783	0.2111
336.123	0.2118
336.462	0.2136
336.802	0.214
337.141	0.2149
337.481	0.2161
337.82	0.2169
338.16	0.2182
338.499	0.2193
338.838	0.2197
339.177	0.2209
339.516	0.2224
339.855	0.2238
340.194	0.2242
340.533	0.2254
340.872	0.2261
341.21	0.2274
341.549	0.2269
341.887	0.228
342.226	0.2287
342.564	0.2287
342.902	0.2297
343.24	0.2299
343.578	0.23
343.916	0.2301
344.254	0.2308
344.592	0.2304
344.93	0.2313
345.268	0.2309
345.605	0.2309
345.943	0.2318
346.28	0.2317
346.618	0.231
346.955	0.2322
347.292	0.2314
347.629	0.2326
347.966	0.2328
348.303	0.2329
348.64	0.2328
348.977	0.2321
349.314	0.2324
349.65	0.233
349.987	0.2328
350.324	0.2319
350.66	0.2317
350.996	0.2314
351.333	0.2307
351.669	0.23
352.005	0.2288
352.341	0.2288
352.677	0.2281
353.013	0.2267
353.349	0.2261
353.685	0.2251
354.02	0.2242
354.356	0.2233
354.691	0.2219
355.027	0.2216
355.362	0.2202
355.697	0.2194
356.033	0.2184
356.368	0.2174
356.703	0.2165
357.038	0.2156
357.373	0.2151
357.707	0.2146
358.042	0.213
358.377	0.2128
358.711	0.2116
359.046	0.2099
359.38	0.209
359.715	0.208
360.049	0.2073
360.383	0.2066
360.717	0.2053
361.051	0.2034
361.385	0.2019
361.719	0.1997
362.053	0.1994
362.387	0.1968
362.72	0.195
363.054	0.1939
363.387	0.1921
363.721	0.1908
364.054	0.188
364.387	0.1875
364.721	0.1853
365.054	0.1836
365.387	0.1822
365.72	0.1805
366.053	0.179
366.385	0.1774
366.718	0.1767
367.051	0.1747
367.383	0.1731
367.716	0.1723
368.048	0.1713
368.381	0.1683
368.713	0.1683
369.045	0.1666
369.377	0.1658
369.709	0.164
370.041	0.1628
370.373	0.1625
370.705	0.1603
371.037	0.1583
371.368	0.1571
371.7	0.1554
372.031	0.1539
372.363	0.1517
372.694	0.1511
373.025	0.1484
373.356	0.1465
373.688	0.1445
374.019	0.1422
374.35	0.1409
374.68	0.1392
375.011	0.1372
375.342	0.1352
375.673	0.1332
376.003	0.1312
376.334	0.1296
376.664	0.128
376.995	0.1262
377.325	0.1252
377.655	0.1244
377.985	0.1228
378.315	0.1213
378.645	0.1197
378.975	0.1186
379.305	0.1169
379.635	0.1165
379.964	0.1147
380.294	0.1137
380.623	0.1125
380.953	0.1114
381.282	0.1103
381.611	0.1084
381.941	0.1071
382.27	0.106
382.599	0.1043
382.928	0.1032
383.257	0.1018
383.585	0.1015
383.914	0.0988
384.243	0.0982
384.571	0.0962
384.9	0.094
385.228	0.0926
385.557	0.0921
385.885	0.0901
386.213	0.0881
386.541	0.087
386.869	0.0853
387.197	0.0832
387.525	0.082
387.853	0.0811
388.181	0.0804
388.508	0.0789
388.836	0.0773
389.164	0.0768
389.491	0.0753
389.818	0.0744
390.146	0.0734
390.473	0.0716
390.8	0.0711
391.127	0.07
391.454	0.0687
391.781	0.068
392.108	0.0667
392.435	0.0656
392.761	0.0649
393.088	0.064
393.415	0.0635
393.741	0.0636
394.067	0.0622
394.394	0.0616
394.72	0.0606
395.046	0.0598
395.372	0.0586
395.698	0.0574
396.024	0.058
396.35	0.0563
396.676	0.056
397.001	0.0547
397.327	0.0536
397.653	0.0525
397.978	0.0517
398.303	0.0508
398.629	0.0507
398.954	0.0505
399.279	0.0496
399.604	0.0495
399.929	0.0487
400.254	0.0476
400.579	0.0478
400.904	0.0457
401.229	0.0463
401.553	0.0445
401.878	0.0445
402.202	0.0439
402.527	0.0442
402.851	0.0439
403.175	0.0429
403.5	0.0428
403.824	0.0431
404.148	0.0424
404.472	0.0421
404.796	0.0415
405.119	0.0408
405.443	0.0405
405.767	0.0402
406.09	0.0402
406.414	0.0398
406.737	0.0395
407.061	0.0402
407.384	0.0397
407.707	0.039
408.03	0.0396
408.353	0.0393
408.676	0.039
408.999	0.0388
409.322	0.0393
409.645	0.0395
409.968	0.039
410.29	0.0387
410.613	0.0379
410.935	0.0378
411.258	0.0382
411.58	0.0383
411.902	0.0381
412.224	0.0382
412.546	0.0379
412.868	0.0372
413.19	0.038
413.512	0.0375
413.834	0.0377
414.156	0.0386
414.477	0.0379
414.799	0.0377
415.121	0.0383
415.442	0.0386
415.763	0.0384
416.085	0.0383
416.406	0.0381
416.727	0.0381
417.048	0.0378
417.369	0.0376
417.69	0.0375
418.011	0.0377
418.331	0.0379
418.652	0.0378
418.973	0.0382
419.293	0.0383
419.614	0.0377
419.934	0.0379
420.254	0.0386
420.574	0.0379
420.895	0.0383
421.215	0.0378
421.535	0.0376
421.855	0.038
422.174	0.0378
422.494	0.0383
422.814	0.0387
423.134	0.039
423.453	0.0383
423.773	0.0385
424.092	0.0384
424.411	0.0383
424.731	0.0388
425.05	0.0385
425.369	0.0388
425.688	0.0397
426.007	0.0396
426.326	0.0396
426.644	0.0398
426.963	0.0394
427.282	0.0398
427.6	0.0395
427.919	0.0398
428.237	0.0394
428.556	0.0404
428.874	0.0395
429.192	0.0395
429.51	0.0396
429.828	0.04
430.146	0.0399
430.464	0.0399
430.782	0.0397
431.1	0.0404
431.418	0.0398
431.735	0.0397
432.053	0.0398
432.37	0.0401
432.688	0.0402
433.005	0.04
433.322	0.0403
433.639	0.0398
433.957	0.0405
434.274	0.0398
434.591	0.0404
434.907	0.0408
435.224	0.0408
435.541	0.0403
435.858	0.0416
436.174	0.0411
436.491	0.0404
436.807	0.0405
437.124	0.0398
437.44	0.0402
437.756	0.0403
438.072	0.04
438.388	0.0404
438.704	0.0407
439.02	0.0406
439.336	0.0403
439.652	0.0403
439.968	0.04
440.283	0.0401
440.599	0.0401
440.914	0.0402
441.23	0.0395
441.545	0.0396
441.86	0.0397
442.175	0.0401
442.491	0.0396
442.806	0.0401
443.121	0.0404
443.435	0.04
443.75	0.0398
444.065	0.0393
444.38	0.0404
444.694	0.0402
445.009	0.0398
445.323	0.0397
445.638	0.0405
445.952	0.0399
446.266	0.0401
446.58	0.0404
446.894	0.0394
447.208	0.0402
447.522	0.0404
447.836	0.0385
448.15	0.0389
448.464	0.0381
448.777	0.0392
449.091	0.0386
449.404	0.0397
449.718	0.0395
450.031	0.0389
450.345	0.0383
450.658	0.0386
450.971	0.0384
451.284	0.0381
451.597	0.0387
451.91	0.0394
452.223	0.0381
452.535	0.0386
452.848	0.0383
453.161	0.0379
453.473	0.0383
453.786	0.0382
454.098	0.0385
454.411	0.0372
454.723	0.0372
455.035	0.0375
455.347	0.0376
455.659	0.0378
455.971	0.0377
456.283	0.0379
456.595	0.0372
456.907	0.0371
457.218	0.0374
457.53	0.0365
457.841	0.0359
458.153	0.0361
458.464	0.036
458.776	0.0353
459.087	0.0359
459.398	0.0359
459.709	0.0354
460.02	0.0353
460.331	0.0347
460.642	0.0348
460.953	0.035
461.263	0.035
461.574	0.0354
461.885	0.0349
462.195	0.0349
462.506	0.0348
462.816	0.035
463.126	0.0339
463.437	0.0333
463.747	0.0322
464.057	0.0333
464.367	0.0332
464.677	0.0325
464.987	0.0323
465.296	0.0326
465.606	0.0319
465.916	0.0321
466.225	0.0316
466.535	0.0312
466.844	0.0315
467.154	0.0305
467.463	0.0312
467.772	0.0314
468.081	0.0307
468.39	0.0304
468.699	0.0306
469.008	0.0306
469.317	0.0308
469.626	0.0305
469.935	0.0303
470.243	0.0306
470.552	0.0298
470.86	0.0305
471.169	0.0286
471.477	0.0297
471.785	0.0294
472.093	0.0293
472.402	0.0286
472.71	0.0284
473.018	0.0279
473.326	0.0282
473.633	0.0274
473.941	0.0279
474.249	0.0277
474.556	0.0276
474.864	0.0269
475.171	0.026
475.479	0.0269
475.786	0.0273
476.094	0.0269
476.401	0.0266
476.708	0.0264
477.015	0.0255
477.322	0.0266
477.629	0.0258
477.936	0.0253
478.242	0.0258
478.549	0.0259
478.856	0.0242
479.162	0.025
479.469	0.0252
479.775	0.0251
480.081	0.0238
480.388	0.025
480.694	0.024
481	0.0241
481.306	0.0233
481.612	0.0232
481.918	0.0224
482.224	0.023
482.53	0.0227
482.835	0.0223
483.141	0.0219
483.446	0.0215
483.752	0.0218
484.057	0.0211
484.363	0.0209
484.668	0.0205
484.973	0.0197
485.278	0.0197
485.583	0.0205
485.888	0.0192
486.193	0.0199
486.498	0.0198
486.803	0.0201
487.107	0.0195
487.412	0.0194
487.717	0.0185
488.021	0.0205
488.325	0.0186
488.63	0.0182
488.934	0.0188
489.238	0.0192
489.542	0.0186
489.846	0.0173
490.15	0.0181
490.454	0.0179
490.758	0.0175
491.062	0.0175
491.366	0.0168
491.669	0.0174
491.973	0.0172
492.276	0.0169
492.58	0.016
492.883	0.0168
493.186	0.016
493.489	0.017
493.792	0.0166
494.096	0.0156
494.399	0.0159
494.701	0.0163
495.004	0.0153
495.307	0.0147
495.61	0.0153
495.912	0.0142
496.215	0.0136
496.517	0.0145
496.82	0.0135
497.122	0.0139
497.424	0.013
497.727	0.0137
498.029	0.0138
498.331	0.0139
498.633	0.0138
498.935	0.0134
499.237	0.0132
499.538	0.0129
499.84	0.0131
500.142	0.0133
500.443	0.0123
500.745	0.0129
501.046	0.0131
501.348	0.0116
501.649	0.0123
501.95	0.0117
502.251	0.0123
502.552	0.0103
502.853	0.0114
503.154	0.0116
503.455	0.0106
503.756	0.0113
504.057	0.0113
504.357	0.0108
504.658	0.0103
504.958	0.0101
505.259	0.0111
505.559	0.011
505.859	0.0094
506.16	0.0103
506.46	0.011
506.76	0.0102
507.06	0.0094
507.36	0.0098
507.66	0.0096
507.96	0.0093
508.259	0.0093
508.559	0.0088
508.859	0.0093
509.158	0.0089
509.457	0.009
509.757	0.0096
510.056	0.0089
510.355	0.0078
510.655	0.007
510.954	0.0078
511.253	0.0083
511.552	0.008
511.851	0.0074
512.149	0.0072
512.448	0.0074
512.747	0.0081
513.045	0.0072
513.344	0.0082
513.642	0.0085
513.941	0.0083
514.239	0.008
514.537	0.0082
514.836	0.007
515.134	0.0067
515.432	0.0075
515.73	0.0078
516.028	0.0066
516.326	0.007
516.623	0.0067
516.921	0.007
517.219	0.0076
517.516	0.007
517.814	0.0071
518.111	0.0069
518.409	0.008
518.706	0.0066
519.003	0.007
519.3	0.0056
519.597	0.0057
519.894	0.0059
520.191	0.007
520.488	0.0067
520.785	0.0055
521.082	0.0061
521.378	0.0069
521.675	0.0047
521.971	0.0056
522.268	0.005
522.564	0.0052
522.861	0.0057
523.157	0.0042
523.453	0.0053
523.749	0.0057
524.045	0.0061
524.341	0.0057
524.637	0.0056
524.933	0.0051
525.229	0.0053
525.524	0.0043
525.82	0.0054
526.115	0.0043
526.411	0.0049
526.706	0.0054
527.002	0.0046
527.297	0.004
527.592	0.0062
527.887	0.0055
528.182	0.0053
528.477	0.0064
528.772	0.0039
529.067	0.0055
529.362	0.005
529.657	0.0044
529.951	0.0045
530.246	0.0041
530.54	0.0032
530.835	0.0039
531.129	0.0024
531.423	0.0045
531.718	0.0039
532.012	0.0044
532.306	0.0039
532.6	0.0038
532.894	0.0032
533.188	0.0046
533.482	0.0036
533.775	0.0038
534.069	0.0034
534.363	0.0032
534.656	0.0025
534.95	0.0027
535.243	0.0028
535.536	0.0031
535.83	0.0039
536.123	0.0025
536.416	0.003
536.709	0.0033
537.002	0.0037
537.295	0.0039
537.588	0.0031
537.881	0.0034
538.173	0.0029
538.466	0.003
538.759	0.0023
539.051	0.0021
539.344	0.0027
539.636	0.0028
539.928	0.0029
540.22	0.0036
540.513	0.0033
540.805	0.0039
541.097	0.004
541.389	0.0033
541.681	0.0028
541.972	0.003
542.264	0.0019
542.556	0.0024
542.847	0.003
543.139	0.0046
543.431	0.0043
543.722	0.0039
544.013	0.0043
544.305	0.0053
544.596	0.0049
544.887	0.0036
545.178	0.0031
545.469	0.003
545.76	0.0021
546.051	0.0043
546.342	0.0039
546.632	0.0017
546.923	0.0038
547.214	0.0026
547.504	0.0035
547.795	0.0033
548.085	0.0038
548.375	0.0028
548.666	0.0036
548.956	0.0022
549.246	0.0031
549.536	0.0027
549.826	0.0035
550.116	0.0037
550.406	0.0032
550.695	0.0043
550.985	0.0036
551.275	0.0042
551.564	0.0036
551.854	0.0034
552.143	0.0035
552.433	0.0035
552.722	0.0039
553.011	0.0032
553.3	0.0032
553.589	0.0026
553.879	0.0037
554.167	0.0037
554.456	0.0031
554.745	0.0029
555.034	0.0026
555.323	0.0019
555.611	0.002
555.9	0.0032
556.188	0.0036
556.477	0.0025
556.765	0.0019
557.053	0.003
557.342	0.0016
557.63	0.0035
557.918	0.0027
558.206	0.0015
558.494	0.0041
558.782	0.0028
559.069	0.0031
559.357	0.0039
559.645	0.0033
559.932	0.0028
560.22	0.0037
560.507	0.0032
560.795	0.0034
561.082	0.0026
561.37	0.0029
561.657	0.0033
561.944	0.0035
562.231	0.0036
562.518	0.0028
562.805	0.0039
563.092	0.0037
563.379	0.0036
563.665	0.0027
563.952	0.0034
564.239	0.0041
564.525	0.0043
564.811	0.0042
565.098	0.0041
565.384	0.004
565.67	0.004
565.957	0.0031
566.243	0.0034
566.529	0.0039
566.815	0.0049
567.101	0.0026
567.387	0.003
567.672	0.0032
567.958	0.0039
568.244	0.0039
568.529	0.0036
568.815	0.0034
569.1	0.0036
569.386	0.0031
569.671	0.003
569.956	0.0028
570.242	0.0031
570.527	0.003
570.812	0.0041
571.097	0.0034
571.382	0.0034
571.666	0.0032
571.951	0.0027
572.236	0.0037
572.521	0.0034
572.805	0.0037
573.09	0.0029
573.374	0.0024
573.659	0.0031
573.943	0.0031
574.227	0.0025
574.511	0.0034
574.795	0.0029
575.079	0.0028
575.363	0.0032
575.647	0.0036
575.931	0.0035
576.215	0.0033
576.499	0.0025
576.782	0.0027
577.066	0.0025
577.349	0.0028
577.633	0.0037
577.916	0.0031
578.2	0.0039
578.483	0.0038
578.766	0.0035
579.049	0.0041
579.332	0.0043
579.615	0.0028
579.898	0.0037
580.181	0.0033
580.464	0.0031
580.746	0.002
581.029	0.003
581.312	0.0018
581.594	0.0026
581.877	0.0037
582.159	0.004
582.441	0.0032
582.724	0.0028
583.006	0.0031
583.288	0.0018
583.57	0.0019
583.852	0.0023
584.134	0.0021
584.416	0.0031
584.697	0.0026
584.979	0.0025
585.261	0.0024
585.542	0.003
585.824	0.0033
586.105	0.0037
586.387	0.0029
586.668	0.0031
586.949	0.0027
587.231	0.0021
587.512	0.0033
587.793	0.0028
588.074	0.0033
588.355	0.0029
588.636	0.0037
588.916	0.004
589.197	0.0036
589.478	0.0035
589.758	0.0031
590.039	0.0023
590.319	0.003
590.6	0.0037
590.88	0.0027
591.16	0.0039
591.441	0.0033
591.721	0.0036
592.001	0.0023
592.281	0.0034
592.561	0.0032
592.841	0.0033
593.12	0.0028
593.4	0.002
593.68	0.0033
593.959	0.0038
594.239	0.0044
594.518	0.0027
594.798	0.0035
595.077	0.0032
595.356	0.0033
595.636	0.0027
595.915	0.0035
596.194	0.0032
596.473	0.0034
596.752	0.0022
597.031	0.0026
597.31	0.0023
597.588	0.0019
597.867	0.002
598.146	0.002
598.424	0.0023
598.703	0.0019
598.981	0.0028
599.259	0.0024
599.538	0.0039
599.816	0.0031
600.094	0.0023
600.372	0.0032
600.65	0.0037
600.928	0.0032
601.206	0.0033
601.484	0.0031
601.762	0.0038
602.04	0.0034
602.317	0.0028
602.595	0.0032
602.872	0.0026
603.15	0.002
603.427	0.0015
603.704	0.0021
603.982	0.0023
604.259	0.002
604.536	0.0019
604.813	0.003
605.09	0.0032
605.367	0.0018
605.644	0.0023
605.921	0.0028
606.197	0.002
606.474	0.0028
606.751	0.003
607.027	0.0031
607.304	0.0026
607.58	0.0023
607.856	0.0023
608.133	0.0037
608.409	0.0029
608.685	0.0023
608.961	0.0038
609.237	0.0039
609.513	0.0029
609.789	0.0032
610.065	0.002
610.341	0.0023
610.616	0.0032
610.892	0.0034
611.167	0.0035
611.443	0.0033
611.718	0.0022
611.994	0.0026
612.269	0.003
612.544	0.0022
612.819	0.0023
613.095	0.0026
613.37	0.0036
613.645	0.0024
613.919	0.0023
614.194	0.003
614.469	0.0018
614.744	0.0015
615.019	0.0012
615.293	0.0013
615.568	0.0013
615.842	0.0012
616.116	0.0012
616.391	0.001
616.665	0.002
616.939	0.0015
617.213	0.0016
617.488	0.0012
617.762	0.0017
618.035	0.002
618.309	0.0019
618.583	0.0019
618.857	0.0033
619.131	0.0017
619.404	0.0015
619.678	0.0023
619.951	0.0007
620.225	0.0018
620.498	0.0017
620.771	0.0021
621.045	0.0026
621.318	0.0032
621.591	0.0021
621.864	0.0012
622.137	0.0009
622.41	0.0022
622.683	0.0009
622.956	0.0018
623.228	0.0022
623.501	0.0022
623.774	0.0034
624.046	0.0021
624.319	0.0018
624.591	0.0016
624.863	0.0014
625.136	0.0015
625.408	0.0014
625.68	0.0021
625.952	0.0021
626.224	0.0024
626.496	0.0019
626.768	0.0009
627.04	0.0013
627.311	0.0019
627.583	0.0019
627.855	0.0025
628.126	0.0024
628.398	0.0025
628.669	0.0025
628.941	0.0016
629.212	0.001
629.483	0.001
629.755	0.0014
630.026	0.0004
630.297	0
630.568	-0
630.839	0.0002
631.11	-0.0002
631.38	-0.0003
631.651	-0.0005
631.922	0
632.192	-0.0004
632.463	-0
632.733	-0.0004
633.004	-0.0001
633.274	-0.0001
633.545	0.0016
633.815	0.0034
634.085	0.0023
634.355	0.0023
634.625	0.0027
634.895	0.0012
635.165	-0
635.435	0.0008
635.705	0.0008
635.974	0.0005
636.244	0.0011
636.514	0.0018
636.783	0.0021
637.053	0.0024
637.322	0.0009
637.591	0.0015
637.861	0.002
638.13	0.0021
638.399	0.0015
638.668	0.0017
638.937	0.0005
639.206	0.0014
639.475	0.0019
639.744	0.0006
640.013	0.002
640.281	0.0035
640.55	0.0027
640.819	0.0024
641.087	0.0027
641.356	0.0015
641.624	0.0018
641.892	0.0017
642.161	0.0018
642.429	0.0027
642.697	0.0018
642.965	0.0029
643.233	0.0026
643.501	0.0013
643.769	0.001
644.037	0.0019
644.305	0.0011
644.572	0.0001
644.84	0.0006
645.108	0.0017
645.375	0.0006
645.643	0.0005
645.91	0.0003
646.177	0.0025
646.445	0.0036
646.712	0.0038
646.979	0.0037
647.246	0.0037
647.513	0.004
647.78	0.0038
648.047	0.004
648.314	0.0031
648.58	0.0028
648.847	0.0023
649.114	0.0009
649.38	0.0007
649.647	0.0016
649.913	0.0011
650.18	0.0013
650.446	0.0021
650.712	0.0021
650.978	0.0028
651.245	0.0028
651.511	0.0028
651.777	0.0017
652.043	0.0026
652.309	0.0024
652.574	0.0027
652.84	0.0023
653.106	0.0009
653.371	0.001
653.637	0.0016
653.903	0.0023
654.168	0.0029
654.433	0.0022
654.699	0.0027
654.964	0.0028
655.229	0.0027
655.494	0.0024
655.759	0.0008
656.024	0.0006
656.289	-0
656.554	0.0023
656.819	0.0013
657.084	0.0026
657.349	0.0029
657.613	0.0035
657.878	0.0027
658.142	0.0032
658.407	0.0034
658.671	0.0032
658.936	0.0019
659.2	0.0013
659.464	0.0009
659.728	0.0017
659.992	0.0023
660.256	0.0011
660.52	0.0013
660.784	0.0005
661.048	-0
661.312	-0.0002
661.575	-0.0004
661.839	-0.0011
662.103	-0.0007
662.366	-0.001
662.63	0.0001
662.893	0.0001
663.156	-0.0002
663.42	-0.0003
663.683	0.0003
663.946	0.0011
664.209	0.0033
664.472	0.002
664.735	0.0026
664.998	0.002
665.261	0.001
665.524	0.0011
665.786	0.0012
666.049	0.0008
666.312	0.001
666.574	0.0011
666.837	0.0011
667.099	-0.001
667.361	-0.0006
667.624	-0.0008
667.886	-0.0003
668.148	0.0008
668.41	0.0023
668.672	-0.0006
668.934	0.0009
669.196	0.0006
669.458	0.0011
669.72	0.0016
669.982	0.0014
670.243	0.0025
670.505	0.0019
670.766	0.0012
671.028	0.0018
671.289	0.0017
671.551	0.0013
671.812	0.0001
672.073	0.0014
672.334	0.0005
672.596	0.0008
672.857	-0.0004
673.118	0.0001
673.379	-0.0001
673.639	-0.001
673.9	-0.0003
674.161	-0.0017
674.422	-0.0026
674.682	-0.0025
674.943	-0.0023
675.203	-0.0004
675.464	-0.0005
675.724	0.0006
675.985	0.0009
676.245	0.0016
676.505	0.0012
676.765	0.0018
677.025	0.0026
677.285	0.0013
677.545	0.0028
677.805	0.0022
678.065	0.0029
678.325	0.0028
678.585	0.0023
678.844	0.0023
679.104	0.002
679.363	0.003
679.623	0.0028
679.882	0.0036
680.142	0.0044
680.401	0.0039
680.66	0.0042
680.919	0.0044
681.178	0.0048
681.437	0.0043
681.696	0.0033
681.955	0.0045
682.214	0.0047
682.473	0.0039
682.732	0.0033
682.99	0.0021
683.249	0.0027
683.508	0.0021
683.766	0.0025
684.024	0.0037
684.283	0.0038
684.541	0.0033
684.799	0.0034
685.058	0.0027
685.316	0.0019
685.574	0.003
685.832	0.003
686.09	0.0034
686.348	0.0031
686.606	0.0027
686.863	0.0043
687.121	0.0039
687.379	0.0034
687.636	0.0031
687.894	0.0038
688.151	0.0042
688.409	0.0041
688.666	0.0039
688.923	0.0046
689.181	0.0027
689.438	0.0026
689.695	0.0023
689.952	0.0023
690.209	0.0017
690.466	0.0016
690.723	0.0032
690.979	0.0028
691.236	0.0018
691.493	0.0014
691.75	0.0027
692.006	0.0035
692.263	0.0033
692.519	0.003
692.775	0.0019
693.032	0.0012
693.288	0.0026
693.544	0.0023
693.8	0.0023
694.056	0.0023
694.313	0.0021
694.568	0.0022
694.824	0.0026
695.08	0.0035
695.336	0.0037
695.592	0.0026
695.847	0.0039
696.103	0.0026
696.359	0.0036
696.614	0.0025
696.869	0.0014
697.125	0.0006
697.38	0.0006
697.635	0.0008
697.891	0.0006
698.146	0.0006
698.401	0.0025
698.656	0.0013
698.911	0.0026
699.166	0.0015
699.42	0.0021
699.675	0.0015
699.93	0.0004
700.185	0.0012
700.439	0.0029
700.694	0.0017
700.948	0.002
701.203	0.0021
701.457	0.0025
701.711	0.0007
701.965	0.0004
702.22	0.0001
702.474	0.0003
702.728	-0.0008
702.982	-0.0003
703.236	-0.0003
703.49	-0.0003
703.743	-0.0002
703.997	0.0003
704.251	0.0006
704.504	0.001
704.758	0.0003
705.012	0.0001
705.265	-0.0001
705.518	-0.0002
705.772	-0.0002
706.025	-0.0005
706.278	-0.0005
706.531	-0.0009
706.785	-0.0018
707.038	0.0003
707.291	-0.0006
707.543	-0.0002
707.796	0.0006
708.049	-0.0002
708.302	-0.0006
708.555	0.0001
708.807	0.0002
709.06	-0.0001
709.312	-0.002
709.565	-0.0013
709.817	-0.0024
710.069	-0.0009
710.322	-0.0011
710.574	-0.0006
710.826	-0.0009
711.078	0.0002
711.33	0.0003
711.582	-0.0003
711.834	0.0011
712.086	0.0019
712.338	0.0024
712.59	0.0021
712.841	0.0011
713.093	0.0015
713.344	0.0016
713.596	0.0015
713.847	0.0029
714.099	0.0026
714.35	0.003
714.601	0.003
714.853	0.004
715.104	0.0032
715.355	0.0022
715.606	0.0026
715.857	0.0017
716.108	0.003
716.359	0.0022
716.609	0.0029
716.86	0.0021
717.111	0.001
717.361	-0.0001
717.612	-0.0001
717.863	-0.0002
718.113	0.0003
718.363	-0.0003
718.614	0.001
718.864	0.0011
719.114	0.0004
719.364	0.001
719.614	-0.0001
719.865	-0.0008
720.114	-0.0001
720.364	0.0009
720.614	0.0011
720.864	0.0025
721.114	0.0023
721.364	0.0032
721.613	0.0036
721.863	0.0037
722.112	0.0027
722.362	0.0036
722.611	0.0034
722.86	0.002
723.11	0.001
723.359	0.0012
723.608	0.003
723.857	0.0036
724.106	0.0047
724.355	0.0052
724.604	0.006
724.853	0.0037
725.102	0.0036
725.351	0.0031
725.599	0.0026
725.848	0.003
726.097	0.002
726.345	0.0019
726.594	0.0018
726.842	0.0009
727.09	0.0015
727.339	0.0014
727.587	0.0008
727.835	-0
728.083	-0.001
728.331	-0.0009
728.579	-0.0015
728.827	0.0005
729.075	0.0008
729.323	0.0012
729.571	0.0017
729.818	0.0014
730.066	0.0018
730.314	0.0024
730.561	0.001
730.809	-0.0005
731.056	-0.0003
731.303	-0
731.551	-0.0002
731.798	-0.0001
732.045	0.0001
732.292	0.0002
732.539	0.0004
732.786	0.001
733.033	0.0019
733.28	0.0024
733.527	0.0033
733.774	0.0019
734.021	0.0036
734.267	0.004
734.514	0.0035
734.76	0.0039
735.007	0.0054
735.253	0.0056
735.5	0.0051
735.746	0.0056
735.992	0.0054
736.238	0.0046
736.485	0.0062
736.731	0.0053
736.977	0.0046
737.223	0.0043
737.469	0.0047
737.715	0.0051
737.96	0.006
738.206	0.0064
738.452	0.0079
738.697	0.0077
738.943	0.0067
739.189	0.0043
739.434	0.0032
739.679	0.0029
739.925	0.0019
740.17	0.0013
740.415	0.0023
740.66	0.003
740.906	0.003
741.151	0.0027
741.396	0.002
741.641	0.0051
741.886	0.0053
742.13	0.0052
742.375	0.0059
742.62	0.0061
742.865	0.0049
743.109	0.0048
743.354	0.0042
743.598	0.0041
743.843	0.0042
744.087	0.0047
744.331	0.0037
744.576	0.0035
744.82	0.0036
745.064	0.003
745.308	0.0028
745.552	0.0026
745.796	0.0031
746.04	0.0028
746.284	0.0015
746.528	-0.0008
746.771	0.0008
747.015	0.0001
747.259	0.0002
747.502	0.0007
747.746	0.0015
747.989	0.0019
748.233	0.0021
748.476	0.0028
748.719	0.0033
748.963	0.0035
749.206	0.0032
749.449	0.0039
749.692	0.0025
749.935	0.005
750.178	0.0031
750.421	0.004
750.664	0.0037
750.906	0.0035
751.149	0.0027
751.392	0.0021
751.635	0.0012
751.877	0.0001
752.12	-0.0002
752.362	0.0004
752.604	-0.0003
752.847	0.0009
753.089	0.0013
753.331	0.0015
753.573	0.0016
753.816	0.0027
754.058	0.0032
754.3	0.004
754.542	0.0045
754.783	0.0036
755.025	0.003
755.267	0.0003
755.509	0.0011
755.75	0.0004
755.992	0.0012
756.234	0.0009
756.475	-0.0003
756.716	-0.0006
756.958	0
757.199	0.0006
757.44	0.001
757.682	0.0008
757.923	0.0005
758.164	0.0001
758.405	-0.0003
758.646	0.0001
758.887	0.0006
759.128	-0.0004
759.369	-0.0003
759.609	-0.0007
759.85	-0.0007
760.091	0
760.331	-0.0007
760.572	-0.0007
760.812	-0.001
761.053	-0.0006
761.293	0.0001
761.533	0.0011
761.774	0.0015
762.014	0.0006
762.254	0.0002
762.494	0.0002
762.734	-0.0002
762.974	0
763.214	-0
763.454	-0.0007
763.694	-0.0008
763.933	-0.0015
764.173	0.0001
764.413	-0.0005
764.652	0.0003
764.892	0.0008
765.131	0.001
765.371	0.0015
765.61	0.0016
765.849	0.0008
766.089	0.0018
766.328	0.0033
766.567	0.0023
766.806	0.0028
767.045	0.0031
767.284	0.0027
767.523	0.0037
767.762	0.004
768.001	0.003
768.239	0.0031
768.478	0.0011
768.717	0.0021
768.955	0.0027
769.194	0.0017
769.432	0.0022
769.671	0.0025
769.909	0.0025
770.148	0.003
770.386	0.0029
770.624	0.0021
770.862	0.0023
771.1	0.002
771.338	0.0024
771.576	0.0024
771.814	0.002
772.052	0.0019
772.29	0.0025
772.528	0.0031
772.765	0.0027
773.003	0.0024
773.24	0.0025
773.478	0.0024
773.716	0.0032
773.953	0.0032
774.19	0.0044
774.428	0.0031
774.665	0.0036
774.902	0.0043
775.139	0.002
775.376	0.0025
775.613	0.002
775.85	0.0031
776.087	0.0018
776.324	0.002
776.561	0.0031
776.798	0.004
777.034	0.0048
777.271	0.0058
777.508	0.0066
777.744	0.0059
777.981	0.0045
778.217	0.0047
778.454	0.0042
778.69	0.0045
778.926	0.0045
779.162	0.0044
779.399	0.0035
779.635	0.0031
779.871	0.003
780.107	0.0033
780.343	0.0046
780.579	0.0052
780.814	0.0039
781.05	0.0051
781.286	0.004
781.522	0.0038
781.757	0.0056
781.993	0.0052
782.228	0.0058
782.464	0.0052
782.699	0.0043
782.934	0.0032
783.17	0.0038
783.405	0.0037
783.64	0.0029
783.875	0.0031
784.11	0.0031
784.345	0.0035
784.58	0.0031
784.815	0.0029
785.05	0.0032
785.285	0.0026
785.52	0.002
785.754	0.0015
785.989	0.0014
786.223	0.0011
786.458	0.0005
786.692	0.0011
786.927	0.0007
787.161	0.0007
787.396	0.0013
787.63	-0.0001
787.864	-0.0004
788.098	0.0003
788.332	0.0004
788.566	-0.0002
788.8	-0.0004
789.034	0.0002
789.268	0.0012
789.502	0.0016
789.736	0.0016
789.969	0.0024
790.203	0.0016
790.437	0.0015
790.67	0.0019
790.904	0.0025
791.137	0.0006
791.37	0
791.604	-0.0002
791.837	-0.0001
792.07	-0.0004
792.303	0.0009
792.537	-0.0003
792.77	-0.0001
793.003	-0.0002
793.236	-0.001
793.469	-0.0006
793.701	-0.0005
793.934	0.0005
794.167	-0.0004
794.4	0.0006
794.632	0.0004
794.865	-0.0006
795.097	0.0008
795.33	0.0013
795.562	0.0003
795.795	0.0006
796.027	0.0009
796.259	0.0009
796.491	0.0004
796.724	0
796.956	0.0004
797.188	0.0004
797.42	0
797.652	0.0004
797.883	0.0001
798.115	-0.0006
798.347	-0.0009
798.579	-0.0015
798.81	-0.0018
799.042	-0.0019
799.274	-0.0028
799.505	-0.0026
799.737	-0.0029
799.968	-0.0019
800.199	-0.0014
800.431	-0.0021
800.662	-0.0003
800.893	-0.0006
801.124	0.0003
801.355	0.0003
801.586	0.0008
801.817	0.0002
802.048	0.0001
802.279	0.0007
802.51	0.001
802.741	-0.0005
802.971	-0.0008
803.202	-0.0014
803.433	-0.0016
803.663	-0.0007
803.894	-0.0006
804.124	0.0003
804.354	-0.0007
804.585	-0.0009
804.815	-0.001
805.045	0.0007
805.275	-0.0003
805.506	-0.022
805.736	0.0764
805.966	-0.0686
806.196	0.0607
