Data from 03 0.2 mM BQDS 0.4 mM K2Cr2O7 1 M H2SO4 5 min_Absorbance_14-17-42-680.txt Node
Date: Wed Dec 08 14:17:42 EST 2021
User: kwabilab-user
Spectrometer: HDX00518
Trigger mode: 0
Integration Time (sec): 5.000000E-2
Scans to average: 50
Nonlinearity correction enabled: false
Boxcar width: 0
Storing dark spectrum: false
XAxis mode: Wavelengths
Number of Pixels in Spectrum: 2068
>>>>>Begin Spectral Data<<<<<
195.27	0.0657
195.642	0.0749
196.014	0.068
196.386	-0.0141
196.758	0.0086
197.129	0.0139
197.501	0.0452
197.872	0.0889
198.244	0.1071
198.615	0.1042
198.986	0.107
199.357	0.0978
199.728	0.1161
200.099	0.094
200.47	0.1164
200.841	0.1028
201.212	0.1001
201.582	0.0865
201.953	0.1015
202.323	0.0899
202.694	0.1021
203.064	0.1118
203.434	0.1067
203.804	0.1102
204.174	0.0932
204.544	0.0933
204.914	0.103
205.284	0.0997
205.653	0.1075
206.023	0.1048
206.393	0.1016
206.762	0.1087
207.131	0.0989
207.501	0.1177
207.87	0.1093
208.239	0.1115
208.608	0.0925
208.977	0.1174
209.346	0.13
209.715	0.1237
210.083	0.1224
210.452	0.1168
210.82	0.1275
211.189	0.1396
211.557	0.1246
211.925	0.1432
212.294	0.15
212.662	0.1466
213.03	0.1501
213.398	0.1528
213.766	0.1789
214.133	0.1885
214.501	0.1816
214.869	0.1824
215.236	0.2199
215.604	0.2167
215.971	0.2145
216.338	0.2508
216.705	0.2706
217.072	0.2961
217.439	0.2961
217.806	0.3582
218.173	0.3674
218.54	0.3975
218.907	0.4265
219.273	0.455
219.64	0.5015
220.006	0.5342
220.373	0.5728
220.739	0.6008
221.105	0.6412
221.471	0.672
221.837	0.7082
222.203	0.757
222.569	0.7823
222.935	0.8119
223.3	0.8543
223.666	0.8774
224.031	0.9071
224.397	0.9182
224.762	0.9364
225.127	0.9567
225.493	0.9634
225.858	0.9798
226.223	0.9884
226.588	0.9894
226.952	1.0053
227.317	1.013
227.682	1.0036
228.046	1.0005
228.411	1.0084
228.775	1.003
229.14	0.9982
229.504	0.9936
229.868	0.9909
230.232	0.9819
230.596	0.975
230.96	0.9749
231.324	0.9568
231.688	0.9586
232.052	0.9447
232.415	0.9315
232.779	0.9288
233.142	0.9239
233.505	0.9086
233.869	0.9015
234.232	0.8946
234.595	0.8832
234.958	0.8772
235.321	0.8666
235.684	0.8547
236.047	0.845
236.409	0.8369
236.772	0.8301
237.134	0.8197
237.497	0.8075
237.859	0.8026
238.222	0.7942
238.584	0.7852
238.946	0.7776
239.308	0.7673
239.67	0.7588
240.032	0.7539
240.393	0.7471
240.755	0.7381
241.117	0.731
241.478	0.7267
241.84	0.7168
242.201	0.7093
242.562	0.7042
242.924	0.6991
243.285	0.691
243.646	0.6882
244.007	0.6828
244.368	0.6763
244.728	0.6704
245.089	0.6679
245.45	0.6629
245.81	0.6581
246.171	0.6512
246.531	0.6472
246.891	0.6407
247.252	0.6412
247.612	0.6343
247.972	0.6306
248.332	0.6269
248.692	0.6226
249.051	0.6206
249.411	0.6211
249.771	0.6122
250.13	0.6134
250.49	0.61
250.849	0.607
251.208	0.6049
251.568	0.6032
251.927	0.5985
252.286	0.5991
252.645	0.5964
253.004	0.5911
253.363	0.5894
253.721	0.5891
254.08	0.5849
254.439	0.5857
254.797	0.5815
255.155	0.5781
255.514	0.58
255.872	0.5759
256.23	0.5738
256.588	0.5727
256.946	0.5712
257.304	0.5701
257.662	0.5678
258.02	0.5659
258.377	0.564
258.735	0.5614
259.093	0.5617
259.45	0.5602
259.807	0.5573
260.165	0.5564
260.522	0.5542
260.879	0.5509
261.236	0.5506
261.593	0.5478
261.95	0.5454
262.306	0.5439
262.663	0.5426
263.02	0.5415
263.376	0.5394
263.733	0.5357
264.089	0.5369
264.445	0.5334
264.802	0.5312
265.158	0.5279
265.514	0.5268
265.87	0.526
266.226	0.521
266.581	0.5197
266.937	0.5184
267.293	0.5155
267.648	0.5135
268.004	0.5124
268.359	0.5068
268.714	0.5054
269.07	0.5042
269.425	0.5008
269.78	0.4993
270.135	0.4971
270.49	0.4946
270.844	0.4931
271.199	0.4883
271.554	0.4872
271.908	0.4848
272.263	0.4806
272.617	0.4803
272.972	0.4762
273.326	0.4724
273.68	0.471
274.034	0.4679
274.388	0.4664
274.742	0.4622
275.096	0.4588
275.45	0.4565
275.803	0.4526
276.157	0.4492
276.51	0.4458
276.864	0.4437
277.217	0.4396
277.571	0.4374
277.924	0.4337
278.277	0.4284
278.63	0.4261
278.983	0.4215
279.336	0.4195
279.688	0.415
280.041	0.4123
280.394	0.4082
280.746	0.4051
281.099	0.402
281.451	0.3973
281.803	0.3944
282.156	0.3907
282.508	0.3874
282.86	0.3836
283.212	0.3796
283.564	0.3773
283.916	0.3722
284.267	0.3699
284.619	0.3655
284.971	0.3617
285.322	0.3579
285.673	0.3544
286.025	0.352
286.376	0.347
286.727	0.343
287.078	0.3391
287.429	0.3364
287.78	0.3313
288.131	0.3284
288.482	0.3245
288.833	0.3205
289.183	0.3172
289.534	0.3132
289.884	0.3091
290.235	0.3056
290.585	0.302
290.935	0.2981
291.285	0.2941
291.635	0.2912
291.985	0.2869
292.335	0.2834
292.685	0.2805
293.035	0.2767
293.384	0.2724
293.734	0.2693
294.083	0.2647
294.433	0.2617
294.782	0.2574
295.131	0.2541
295.48	0.2519
295.829	0.2482
296.179	0.2441
296.527	0.2415
296.876	0.2387
297.225	0.235
297.574	0.2313
297.922	0.2285
298.271	0.2255
298.619	0.2214
298.968	0.2201
299.316	0.2164
299.664	0.214
300.012	0.2116
300.36	0.2077
300.708	0.2052
301.056	0.203
301.404	0.2002
301.752	0.1977
302.099	0.1954
302.447	0.1933
302.794	0.1911
303.142	0.1884
303.489	0.1863
303.836	0.1835
304.183	0.1827
304.531	0.1811
304.878	0.179
305.224	0.1773
305.571	0.175
305.918	0.1737
306.265	0.1716
306.611	0.1706
306.958	0.1691
307.304	0.1674
307.651	0.1669
307.997	0.1657
308.343	0.1639
308.689	0.1631
309.035	0.1624
309.381	0.1611
309.727	0.1592
310.073	0.1596
310.419	0.1583
310.764	0.1579
311.11	0.1571
311.455	0.1564
311.801	0.1557
312.146	0.1549
312.491	0.1548
312.837	0.1545
313.182	0.1544
313.527	0.1541
313.872	0.1536
314.216	0.1533
314.561	0.1535
314.906	0.1535
315.251	0.1532
315.595	0.153
315.94	0.1527
316.284	0.153
316.628	0.1532
316.972	0.1527
317.317	0.1535
317.661	0.1537
318.005	0.1547
318.348	0.1548
318.692	0.1546
319.036	0.155
319.38	0.1551
319.723	0.156
320.067	0.1565
320.41	0.1567
320.754	0.1576
321.097	0.1588
321.44	0.1592
321.783	0.1592
322.126	0.1604
322.469	0.1616
322.812	0.1618
323.155	0.163
323.498	0.1638
323.84	0.165
324.183	0.1655
324.525	0.1668
324.868	0.1676
325.21	0.1687
325.552	0.1699
325.894	0.1704
326.236	0.1719
326.578	0.1727
326.92	0.1739
327.262	0.1742
327.604	0.1755
327.946	0.1774
328.287	0.1782
328.629	0.1784
328.97	0.1802
329.312	0.1814
329.653	0.1825
329.994	0.1836
330.335	0.185
330.676	0.1857
331.017	0.1867
331.358	0.1883
331.699	0.1894
332.04	0.1915
332.38	0.1919
332.721	0.1933
333.061	0.1937
333.402	0.1962
333.742	0.197
334.083	0.1982
334.423	0.1988
334.763	0.1999
335.103	0.2016
335.443	0.2025
335.783	0.2027
336.123	0.2033
336.462	0.2047
336.802	0.2057
337.141	0.2071
337.481	0.2075
337.82	0.2081
338.16	0.2095
338.499	0.2098
338.838	0.2114
339.177	0.2124
339.516	0.2133
339.855	0.2148
340.194	0.2153
340.533	0.2165
340.872	0.2169
341.21	0.218
341.549	0.218
341.887	0.2189
342.226	0.219
342.564	0.219
342.902	0.2195
343.24	0.2201
343.578	0.2196
343.916	0.2204
344.254	0.2212
344.592	0.2207
344.93	0.2215
345.268	0.2214
345.605	0.2217
345.943	0.2213
346.28	0.2216
346.618	0.2216
346.955	0.2219
347.292	0.2219
347.629	0.2218
347.966	0.2227
348.303	0.2224
348.64	0.2226
348.977	0.2216
349.314	0.2219
349.65	0.2226
349.987	0.2224
350.324	0.221
350.66	0.2209
350.996	0.2221
351.333	0.2197
351.669	0.2199
352.005	0.219
352.341	0.2181
352.677	0.2179
353.013	0.2166
353.349	0.2163
353.685	0.215
354.02	0.2142
354.356	0.2133
354.691	0.2121
355.027	0.2118
355.362	0.2101
355.697	0.2094
356.033	0.2082
356.368	0.2078
356.703	0.2064
357.038	0.2059
357.373	0.2057
357.707	0.2047
358.042	0.2039
358.377	0.2026
358.711	0.2013
359.046	0.2006
359.38	0.1994
359.715	0.1989
360.049	0.1976
360.383	0.1966
360.717	0.1957
361.051	0.1935
361.385	0.1927
361.719	0.1908
362.053	0.1899
362.387	0.188
362.72	0.1858
363.054	0.1842
363.387	0.1824
363.721	0.1813
364.054	0.1798
364.387	0.1779
364.721	0.1771
365.054	0.1749
365.387	0.1731
365.72	0.1717
366.053	0.1701
366.385	0.1684
366.718	0.1675
367.051	0.1656
367.383	0.1647
367.716	0.1638
368.048	0.1626
368.381	0.1608
368.713	0.1601
369.045	0.1582
369.377	0.1566
369.709	0.1557
370.041	0.1548
370.373	0.1541
370.705	0.1523
371.037	0.1502
371.368	0.1487
371.7	0.1478
372.031	0.1455
372.363	0.1438
372.694	0.1427
373.025	0.1409
373.356	0.1389
373.688	0.1372
374.019	0.1346
374.35	0.1335
374.68	0.1311
375.011	0.1294
375.342	0.1276
375.673	0.1263
376.003	0.1239
376.334	0.1224
376.664	0.1206
376.995	0.1192
377.325	0.1184
377.655	0.1171
377.985	0.1155
378.315	0.1147
378.645	0.1131
378.975	0.1113
379.305	0.1104
379.635	0.11
379.964	0.1081
380.294	0.1072
380.623	0.1057
380.953	0.1047
381.282	0.1038
381.611	0.1021
381.941	0.101
382.27	0.0997
382.599	0.0978
382.928	0.0968
383.257	0.0962
383.585	0.0951
383.914	0.0931
384.243	0.092
384.571	0.0901
384.9	0.0884
385.228	0.0872
385.557	0.0856
385.885	0.0847
386.213	0.0827
386.541	0.0812
386.869	0.0803
387.197	0.0778
387.525	0.0761
387.853	0.075
388.181	0.0745
388.508	0.0736
388.836	0.0724
389.164	0.0716
389.491	0.0707
389.818	0.0691
390.146	0.0681
390.473	0.0666
390.8	0.0662
391.127	0.0649
391.454	0.0646
391.781	0.0637
392.108	0.0625
392.435	0.0605
392.761	0.06
393.088	0.0593
393.415	0.0586
393.741	0.0586
394.067	0.0574
394.394	0.0572
394.72	0.0558
395.046	0.0555
395.372	0.0541
395.698	0.0528
396.024	0.053
396.35	0.0523
396.676	0.0517
397.001	0.0504
397.327	0.0498
397.653	0.0485
397.978	0.0477
398.303	0.0471
398.629	0.0464
398.954	0.0465
399.279	0.0459
399.604	0.046
399.929	0.0445
400.254	0.0435
400.579	0.0433
400.904	0.043
401.229	0.0425
401.553	0.0411
401.878	0.0406
402.202	0.0407
402.527	0.0403
402.851	0.0401
403.175	0.0397
403.5	0.0396
403.824	0.0393
404.148	0.0391
404.472	0.0389
404.796	0.0377
405.119	0.0377
405.443	0.0379
405.767	0.037
406.09	0.0365
406.414	0.0373
406.737	0.0365
407.061	0.0366
407.384	0.0364
407.707	0.0361
408.03	0.0364
408.353	0.0364
408.676	0.0365
408.999	0.0357
409.322	0.0355
409.645	0.0358
409.968	0.0357
410.29	0.0357
410.613	0.0349
410.935	0.0353
411.258	0.0355
411.58	0.0352
411.902	0.035
412.224	0.035
412.546	0.0348
412.868	0.0348
413.19	0.0354
413.512	0.0349
413.834	0.035
414.156	0.0352
414.477	0.0345
414.799	0.0346
415.121	0.0359
415.442	0.0351
415.763	0.0353
416.085	0.0348
416.406	0.036
416.727	0.0358
417.048	0.035
417.369	0.0349
417.69	0.0348
418.011	0.0353
418.331	0.0351
418.652	0.036
418.973	0.0358
419.293	0.0354
419.614	0.0356
419.934	0.0351
420.254	0.036
420.574	0.0354
420.895	0.0355
421.215	0.0351
421.535	0.0354
421.855	0.035
422.174	0.0353
422.494	0.0357
422.814	0.0361
423.134	0.0359
423.453	0.0359
423.773	0.0357
424.092	0.0354
424.411	0.0355
424.731	0.0364
425.05	0.0363
425.369	0.0363
425.688	0.0363
426.007	0.0365
426.326	0.0369
426.644	0.037
426.963	0.0372
427.282	0.0367
427.6	0.0367
427.919	0.0367
428.237	0.0373
428.556	0.0377
428.874	0.0372
429.192	0.0364
429.51	0.0368
429.828	0.0373
430.146	0.0378
430.464	0.0373
430.782	0.0368
431.1	0.0375
431.418	0.0372
431.735	0.0372
432.053	0.0383
432.37	0.0378
432.688	0.0371
433.005	0.0379
433.322	0.0376
433.639	0.0378
433.957	0.0374
434.274	0.0381
434.591	0.0379
434.907	0.0386
435.224	0.0379
435.541	0.0376
435.858	0.0386
436.174	0.0379
436.491	0.0377
436.807	0.0377
437.124	0.0372
437.44	0.0375
437.756	0.0371
438.072	0.0374
438.388	0.0384
438.704	0.0372
439.02	0.0381
439.336	0.0376
439.652	0.0379
439.968	0.0382
440.283	0.0374
440.599	0.0381
440.914	0.0371
441.23	0.0373
441.545	0.0381
441.86	0.0376
442.175	0.0377
442.491	0.037
442.806	0.0376
443.121	0.0375
443.435	0.0367
443.75	0.0374
444.065	0.0375
444.38	0.0378
444.694	0.0374
445.009	0.0377
445.323	0.0372
445.638	0.037
445.952	0.0373
446.266	0.0367
446.58	0.0373
446.894	0.0377
447.208	0.038
447.522	0.038
447.836	0.036
448.15	0.0362
448.464	0.0367
448.777	0.0366
449.091	0.0357
449.404	0.037
449.718	0.0376
450.031	0.0366
450.345	0.0359
450.658	0.0364
450.971	0.0362
451.284	0.0358
451.597	0.0362
451.91	0.036
452.223	0.0356
452.535	0.0362
452.848	0.0358
453.161	0.0359
453.473	0.0359
453.786	0.0362
454.098	0.0355
454.411	0.0352
454.723	0.0344
455.035	0.0351
455.347	0.0356
455.659	0.0352
455.971	0.0353
456.283	0.0352
456.595	0.0352
456.907	0.035
457.218	0.0352
457.53	0.0346
457.841	0.0342
458.153	0.0337
458.464	0.0337
458.776	0.0327
459.087	0.0328
459.398	0.0333
459.709	0.0331
460.02	0.0334
460.331	0.033
460.642	0.0326
460.953	0.0322
461.263	0.0327
461.574	0.0323
461.885	0.0324
462.195	0.0332
462.506	0.0323
462.816	0.0323
463.126	0.0318
463.437	0.0314
463.747	0.0305
464.057	0.0316
464.367	0.0309
464.677	0.0308
464.987	0.0311
465.296	0.0306
465.606	0.0305
465.916	0.0295
466.225	0.029
466.535	0.0302
466.844	0.0295
467.154	0.0288
467.463	0.0293
467.772	0.0296
468.081	0.0287
468.39	0.0283
468.699	0.0284
469.008	0.0291
469.317	0.0284
469.626	0.0282
469.935	0.028
470.243	0.0279
470.552	0.0286
470.86	0.0282
471.169	0.0274
471.477	0.0278
471.785	0.0278
472.093	0.0278
472.402	0.0269
472.71	0.0264
473.018	0.0269
473.326	0.0262
473.633	0.0259
473.941	0.0259
474.249	0.0254
474.556	0.0259
474.864	0.0251
475.171	0.0249
475.479	0.0252
475.786	0.0253
476.094	0.025
476.401	0.0251
476.708	0.0241
477.015	0.0251
477.322	0.0244
477.629	0.0243
477.936	0.0234
478.242	0.0235
478.549	0.0232
478.856	0.0226
479.162	0.0237
479.469	0.0229
479.775	0.0236
480.081	0.022
480.388	0.0225
480.694	0.0224
481	0.0222
481.306	0.0221
481.612	0.0224
481.918	0.0217
482.224	0.0215
482.53	0.0213
482.835	0.0202
483.141	0.0201
483.446	0.02
483.752	0.0202
484.057	0.0194
484.363	0.0192
484.668	0.019
484.973	0.0191
485.278	0.0183
485.583	0.019
485.888	0.0179
486.193	0.018
486.498	0.0184
486.803	0.0193
487.107	0.0179
487.412	0.0169
487.717	0.0174
488.021	0.0176
488.325	0.0173
488.63	0.0168
488.934	0.0171
489.238	0.0178
489.542	0.0168
489.846	0.016
490.15	0.0173
490.454	0.0159
490.758	0.0167
491.062	0.0162
491.366	0.0158
491.669	0.0159
491.973	0.0153
492.276	0.0158
492.58	0.0135
492.883	0.0149
493.186	0.0155
493.489	0.0147
493.792	0.0153
494.096	0.0151
494.399	0.0151
494.701	0.0146
495.004	0.0147
495.307	0.0135
495.61	0.0129
495.912	0.0139
496.215	0.0131
496.517	0.0124
496.82	0.0119
497.122	0.0129
497.424	0.0127
497.727	0.0124
498.029	0.0124
498.331	0.0134
498.633	0.0121
498.935	0.0121
499.237	0.012
499.538	0.0121
499.84	0.0113
500.142	0.0116
500.443	0.0114
500.745	0.012
501.046	0.0111
501.348	0.0109
501.649	0.011
501.95	0.0101
502.251	0.0109
502.552	0.0096
502.853	0.0105
503.154	0.01
503.455	0.0095
503.756	0.0102
504.057	0.0103
504.357	0.0091
504.658	0.009
504.958	0.009
505.259	0.0102
505.559	0.0096
505.859	0.0089
506.16	0.0097
506.46	0.0099
506.76	0.0093
507.06	0.0095
507.36	0.0088
507.66	0.0103
507.96	0.0091
508.259	0.0086
508.559	0.008
508.859	0.0085
509.158	0.0082
509.457	0.0082
509.757	0.0091
510.056	0.0081
510.355	0.0075
510.655	0.0068
510.954	0.0078
511.253	0.0073
511.552	0.0079
511.851	0.007
512.149	0.0072
512.448	0.0072
512.747	0.0075
513.045	0.0056
513.344	0.0073
513.642	0.0073
513.941	0.0071
514.239	0.007
514.537	0.0066
514.836	0.0073
515.134	0.0062
515.432	0.0066
515.73	0.0068
516.028	0.0059
516.326	0.0068
516.623	0.006
516.921	0.0063
517.219	0.0068
517.516	0.007
517.814	0.006
518.111	0.0071
518.409	0.0072
518.706	0.0065
519.003	0.006
519.3	0.0048
519.597	0.0049
519.894	0.0055
520.191	0.0064
520.488	0.006
520.785	0.0053
521.082	0.0057
521.378	0.0054
521.675	0.0036
521.971	0.0051
522.268	0.0048
522.564	0.0049
522.861	0.0055
523.157	0.0039
523.453	0.0051
523.749	0.0053
524.045	0.0051
524.341	0.0047
524.637	0.0051
524.933	0.0055
525.229	0.0055
525.524	0.0037
525.82	0.0059
526.115	0.0039
526.411	0.0037
526.706	0.0041
527.002	0.0048
527.297	0.0035
527.592	0.0053
527.887	0.0051
528.182	0.0047
528.477	0.0056
528.772	0.0043
529.067	0.0045
529.362	0.0045
529.657	0.0046
529.951	0.0045
530.246	0.0038
530.54	0.0025
530.835	0.0032
531.129	0.0024
531.423	0.0035
531.718	0.0026
532.012	0.0037
532.306	0.003
532.6	0.0033
532.894	0.003
533.188	0.0039
533.482	0.0037
533.775	0.0041
534.069	0.0033
534.363	0.0018
534.656	0.0025
534.95	0.0021
535.243	0.0036
535.536	0.0037
535.83	0.0042
536.123	0.0023
536.416	0.0038
536.709	0.003
537.002	0.0042
537.295	0.0027
537.588	0.0045
537.881	0.0025
538.173	0.0024
538.466	0.0028
538.759	0.0023
539.051	0.0025
539.344	0.0019
539.636	0.0019
539.928	0.0024
540.22	0.0026
540.513	0.0026
540.805	0.0034
541.097	0.0025
541.389	0.0023
541.681	0.0017
541.972	0.0026
542.264	0.0018
542.556	0.0022
542.847	0.003
543.139	0.0019
543.431	0.0028
543.722	0.0029
544.013	0.003
544.305	0.0037
544.596	0.0047
544.887	0.0022
545.178	0.002
545.469	0.0018
545.76	0.002
546.051	0.0037
546.342	0.0031
546.632	0.0013
546.923	0.003
547.214	0.0023
547.504	0.0024
547.795	0.003
548.085	0.003
548.375	0.002
548.666	0.0025
548.956	0.0021
549.246	0.0025
549.536	0.0014
549.826	0.0027
550.116	0.003
550.406	0.0027
550.695	0.0039
550.985	0.0032
551.275	0.0042
551.564	0.0035
551.854	0.0038
552.143	0.0037
552.433	0.0038
552.722	0.0036
553.011	0.0031
553.3	0.0028
553.589	0.003
553.879	0.0028
554.167	0.0039
554.456	0.0037
554.745	0.0029
555.034	0.0025
555.323	0.0014
555.611	0.002
555.9	0.0035
556.188	0.0032
556.477	0.0022
556.765	0.0023
557.053	0.0029
557.342	0.003
557.63	0.0038
557.918	0.0027
558.206	0.0035
558.494	0.0044
558.782	0.0032
559.069	0.0026
559.357	0.0029
559.645	0.0018
559.932	0.0034
560.22	0.0035
560.507	0.0032
560.795	0.0019
561.082	0.0028
561.37	0.0024
561.657	0.0034
561.944	0.004
562.231	0.0033
562.518	0.0025
562.805	0.0033
563.092	0.0045
563.379	0.0039
563.665	0.0029
563.952	0.0033
564.239	0.0028
564.525	0.004
564.811	0.0037
565.098	0.004
565.384	0.004
565.67	0.0039
565.957	0.0034
566.243	0.0035
566.529	0.0038
566.815	0.0051
567.101	0.0028
567.387	0.003
567.672	0.003
567.958	0.0031
568.244	0.0035
568.529	0.0032
568.815	0.0024
569.1	0.0035
569.386	0.0024
569.671	0.0022
569.956	0.003
570.242	0.0021
570.527	0.0038
570.812	0.0032
571.097	0.0039
571.382	0.0029
571.666	0.0027
571.951	0.0023
572.236	0.0031
572.521	0.0021
572.805	0.0033
573.09	0.0032
573.374	0.0023
573.659	0.0021
573.943	0.0036
574.227	0.0021
574.511	0.0024
574.795	0.0025
575.079	0.0024
575.363	0.0026
575.647	0.003
575.931	0.0037
576.215	0.0023
576.499	0.0021
576.782	0.0026
577.066	0.0026
577.349	0.0023
577.633	0.0031
577.916	0.0027
578.2	0.0033
578.483	0.003
578.766	0.003
579.049	0.0033
579.332	0.0029
579.615	0.0024
579.898	0.003
580.181	0.0025
580.464	0.0028
580.746	0.0017
581.029	0.0027
581.312	0.001
581.594	0.0012
581.877	0.0026
582.159	0.0033
582.441	0.0028
582.724	0.0025
583.006	0.0024
583.288	0.0021
583.57	0.0022
583.852	0.0017
584.134	0.002
584.416	0.0028
584.697	0.0022
584.979	0.0014
585.261	0.0021
585.542	0.0022
585.824	0.0032
586.105	0.0026
586.387	0.0023
586.668	0.0028
586.949	0.0026
587.231	0.0016
587.512	0.0021
587.793	0.0023
588.074	0.0025
588.355	0.0028
588.636	0.0031
588.916	0.0028
589.197	0.0037
589.478	0.0035
589.758	0.0027
590.039	0.0029
590.319	0.0025
590.6	0.0034
590.88	0.0023
591.16	0.0023
591.441	0.003
591.721	0.0028
592.001	0.0027
592.281	0.0029
592.561	0.0034
592.841	0.0024
593.12	0.0031
593.4	0.0024
593.68	0.0024
593.959	0.0025
594.239	0.0039
594.518	0.0023
594.798	0.0036
595.077	0.0027
595.356	0.0024
595.636	0.0025
595.915	0.0029
596.194	0.003
596.473	0.0034
596.752	0.0028
597.031	0.0023
597.31	0.0014
597.588	0.0021
597.867	0.0015
598.146	0.0019
598.424	0.0019
598.703	0.0018
598.981	0.0021
599.259	0.0023
599.538	0.0033
599.816	0.0033
600.094	0.002
600.372	0.0026
600.65	0.0028
600.928	0.0022
601.206	0.003
601.484	0.0027
601.762	0.0036
602.04	0.0033
602.317	0.0029
602.595	0.0022
602.872	0.003
603.15	0.0019
603.427	0.0015
603.704	0.0016
603.982	0.0023
604.259	0.0022
604.536	0.0019
604.813	0.0025
605.09	0.0028
605.367	0.0019
605.644	0.0019
605.921	0.0019
606.197	0.0018
606.474	0.0023
606.751	0.0025
607.027	0.0025
607.304	0.0015
607.58	0.0019
607.856	0.0022
608.133	0.003
608.409	0.0027
608.685	0.0019
608.961	0.0031
609.237	0.0031
609.513	0.0021
609.789	0.0023
610.065	0.0017
610.341	0.0024
610.616	0.0024
610.892	0.0026
611.167	0.0026
611.443	0.0019
611.718	0.0015
611.994	0.0022
612.269	0.0026
612.544	0.0018
612.819	0.0017
613.095	0.0026
613.37	0.002
613.645	0.0015
613.919	0.0017
614.194	0.0019
614.469	0.0015
614.744	0.0005
615.019	0.0011
615.293	0.0001
615.568	-0
615.842	0.0014
616.116	0.0016
616.391	0.0015
616.665	0.0021
616.939	0.0015
617.213	0.0016
617.488	0.0018
617.762	0.0022
618.035	0.0015
618.309	0.0019
618.583	0.0014
618.857	0.0022
619.131	0.0017
619.404	0.0013
619.678	0.0019
619.951	0.001
620.225	0.0015
620.498	0.0021
620.771	0.0022
621.045	0.0026
621.318	0.003
621.591	0.0018
621.864	0.0008
622.137	0.0006
622.41	0.0008
622.683	0.0011
622.956	0.0022
623.228	0.0023
623.501	0.0025
623.774	0.0027
624.046	0.0028
624.319	0.0021
624.591	0.0008
624.863	0.0022
625.136	0.0016
625.408	0.0022
625.68	0.0022
625.952	0.0028
626.224	0.0022
626.496	0.002
626.768	0.0016
627.04	0.002
627.311	0.0018
627.583	0.002
627.855	0.0024
628.126	0.0024
628.398	0.0036
628.669	0.0024
628.941	0.0016
629.212	0.0008
629.483	0.0015
629.755	0.0014
630.026	0.0008
630.297	0.0001
630.568	0.0014
630.839	0.0004
631.11	0.0006
631.38	-0
631.651	0.0005
631.922	-0.001
632.192	0
632.463	-0.0001
632.733	0.0004
633.004	0.0003
633.274	0
633.545	0.0014
633.815	0.0035
634.085	0.0032
634.355	0.0024
634.625	0.0036
634.895	0.0024
635.165	0.0007
635.435	0.0013
635.705	0.0019
635.974	0.0009
636.244	0.0021
636.514	0.0024
636.783	0.0016
637.053	0.0024
637.322	0.0018
637.591	0.0033
637.861	0.0023
638.13	0.003
638.399	0.0019
638.668	0.0024
638.937	0.0014
639.206	0.0022
639.475	0.0016
639.744	0.0025
640.013	0.003
640.281	0.0036
640.55	0.004
640.819	0.0034
641.087	0.0036
641.356	0.0032
641.624	0.0026
641.892	0.0028
642.161	0.0031
642.429	0.0034
642.697	0.002
642.965	0.004
643.233	0.0039
643.501	0.0026
643.769	0.0024
644.037	0.0018
644.305	0.0022
644.572	0.0007
644.84	-0.0001
645.108	0.001
645.375	0.0005
645.643	0.0022
645.91	0.0009
646.177	0.0028
646.445	0.0038
646.712	0.0047
646.979	0.0051
647.246	0.0039
647.513	0.0047
647.78	0.0042
648.047	0.0044
648.314	0.0033
648.58	0.0024
648.847	0.0025
649.114	0.0017
649.38	0.0014
649.647	0.001
649.913	0.0015
650.18	0.0018
650.446	0.0019
650.712	0.0023
650.978	0.0031
651.245	0.0033
651.511	0.0031
651.777	0.0019
652.043	0.0029
652.309	0.0029
652.574	0.0036
652.84	0.0027
653.106	0.0017
653.371	0.0012
653.637	0.0021
653.903	0.0031
654.168	0.0028
654.433	0.0032
654.699	0.0036
654.964	0.0043
655.229	0.0038
655.494	0.0025
655.759	-0.0001
656.024	0.0009
656.289	-0
656.554	0.001
656.819	0.0012
657.084	0.0035
657.349	0.0043
657.613	0.0037
657.878	0.0028
658.142	0.0034
658.407	0.0041
658.671	0.003
658.936	0.0016
659.2	0.0017
659.464	0.0017
659.728	0.0019
659.992	0.0022
660.256	0.0011
660.52	0.0012
660.784	0.0013
661.048	0.0007
661.312	-0.0002
661.575	0.0003
661.839	-0.002
662.103	-0.001
662.366	-0.001
662.63	-0.0002
662.893	-0.0002
663.156	-0.0007
663.42	-0.0004
663.683	0.0002
663.946	0.0022
664.209	0.0035
664.472	0.0023
664.735	0.0023
664.998	0.0018
665.261	0.0011
665.524	0.0014
665.786	0.0009
666.049	0.0014
666.312	0.0014
666.574	0.0021
666.837	0.0009
667.099	0.0003
667.361	0.0001
667.624	-0.0001
667.886	0.0004
668.148	0.0006
668.41	0.0028
668.672	0.0007
668.934	0.0014
669.196	0.0017
669.458	0.0017
669.72	0.0024
669.982	0.0027
670.243	0.0034
670.505	0.0027
670.766	0.0022
671.028	0.0025
671.289	0.0022
671.551	0.0018
671.812	0.0002
672.073	0.001
672.334	0.0003
672.596	0.0007
672.857	0.0007
673.118	0.0007
673.379	0.0007
673.639	-0.0007
673.9	0
674.161	-0.0011
674.422	-0.0017
674.682	-0.0021
674.943	-0.0016
675.203	-0.0001
675.464	0.0004
675.724	0.0006
675.985	0.0016
676.245	0.0018
676.505	0.0023
676.765	0.0026
677.025	0.0023
677.285	0.002
677.545	0.0032
677.805	0.0026
678.065	0.0035
678.325	0.0033
678.585	0.0029
678.844	0.0028
679.104	0.0024
679.363	0.0027
679.623	0.0037
679.882	0.0039
680.142	0.0048
680.401	0.004
680.66	0.0045
680.919	0.004
681.178	0.0044
681.437	0.0046
681.696	0.0038
681.955	0.0042
682.214	0.0045
682.473	0.0044
682.732	0.0019
682.99	0.0027
683.249	0.0035
683.508	0.0039
683.766	0.0037
684.024	0.0033
684.283	0.004
684.541	0.0036
684.799	0.0041
685.058	0.0029
685.316	0.0023
685.574	0.003
685.832	0.0028
686.09	0.0033
686.348	0.0041
686.606	0.0037
686.863	0.0037
687.121	0.0046
687.379	0.004
687.636	0.0042
687.894	0.0047
688.151	0.0049
688.409	0.0056
688.666	0.0044
688.923	0.0038
689.181	0.0041
689.438	0.0032
689.695	0.0032
689.952	0.0019
690.209	0.0022
690.466	0.0016
690.723	0.0031
690.979	0.003
691.236	0.0025
691.493	0.0022
691.75	0.0035
692.006	0.0038
692.263	0.0035
692.519	0.004
692.775	0.0018
693.032	0.0018
693.288	0.0025
693.544	0.0025
693.8	0.0024
694.056	0.0026
694.313	0.003
694.568	0.0025
694.824	0.003
695.08	0.004
695.336	0.004
695.592	0.0029
695.847	0.0042
696.103	0.0042
696.359	0.0038
696.614	0.003
696.869	0.0024
697.125	0.0002
697.38	0.0007
697.635	0.0006
697.891	0.0006
698.146	0.001
698.401	0.0025
698.656	0.0018
698.911	0.0027
699.166	0.0015
699.42	0.0018
699.675	0.0015
699.93	0.0003
700.185	0.0014
700.439	0.0028
700.694	0.0019
700.948	0.0026
701.203	0.0031
701.457	0.002
701.711	0.0023
701.965	0.0002
702.22	-0
702.474	0.001
702.728	-0.0004
702.982	-0.0004
703.236	0.0001
703.49	0.0007
703.743	-0
703.997	0.0007
704.251	0.0012
704.504	0.0017
704.758	0.0008
705.012	0.001
705.265	0.0009
705.518	0.0007
705.772	-0.0003
706.025	0.0007
706.278	-0
706.531	-0.0006
706.785	-0.0007
707.038	-0
707.291	-0.0001
707.543	0.0001
707.796	-0.0002
708.049	-0.0012
708.302	-0.0011
708.555	0.0001
708.807	0.0009
709.06	0
709.312	-0.0018
709.565	-0.0013
709.817	-0.0016
710.069	-0.001
710.322	-0.0009
710.574	-0.0003
710.826	-0.0003
711.078	0.0007
711.33	0.0002
711.582	0.0002
711.834	0.0015
712.086	0.0022
712.338	0.0024
712.59	0.0028
712.841	0.0019
713.093	0.0015
713.344	0.0018
713.596	0.002
713.847	0.0029
714.099	0.0028
714.35	0.003
714.601	0.0026
714.853	0.0041
715.104	0.0039
715.355	0.0024
715.606	0.0021
715.857	0.0033
716.108	0.0032
716.359	0.0037
716.609	0.0034
716.86	0.0032
717.111	0.0018
717.361	0.0003
717.612	0.001
717.863	0.0007
718.113	0.0008
718.363	0.0001
718.614	0.0011
718.864	0.0014
719.114	0.0017
719.364	0.0014
719.614	0.0003
719.865	0.0002
720.114	0.001
720.364	0.0012
720.614	0.0026
720.864	0.0033
721.114	0.0031
721.364	0.0038
721.613	0.0039
721.863	0.0045
722.112	0.0042
722.362	0.004
722.611	0.0035
722.86	0.0028
723.11	0.0015
723.359	0.0018
723.608	0.003
723.857	0.0043
724.106	0.0051
724.355	0.0057
724.604	0.0064
724.853	0.0052
725.102	0.0043
725.351	0.0031
725.599	0.0026
725.848	0.0025
726.097	0.002
726.345	0.0026
726.594	0.0019
726.842	0.0018
727.09	0.0014
727.339	0.0024
727.587	0.0022
727.835	0.0001
728.083	-0
728.331	-0.0001
728.579	-0.0004
728.827	0.0006
729.075	0.0016
729.323	0.0021
729.571	0.0022
729.818	0.0023
730.066	0.0025
730.314	0.0025
730.561	0.0012
730.809	0.0004
731.056	0.0001
731.303	0.0003
731.551	0.001
731.798	0.0007
732.045	0.0011
732.292	0.0013
732.539	0.0009
732.786	0.0013
733.033	0.0015
733.28	0.003
733.527	0.0048
733.774	0.0028
734.021	0.0035
734.267	0.0038
734.514	0.0042
734.76	0.0042
735.007	0.006
735.253	0.0056
735.5	0.0057
735.746	0.0053
735.992	0.0055
736.238	0.0051
736.485	0.0064
736.731	0.0058
736.977	0.0051
737.223	0.0046
737.469	0.0062
737.715	0.006
737.96	0.0067
738.206	0.0067
738.452	0.0081
738.697	0.0088
738.943	0.0075
739.189	0.0056
739.434	0.0031
739.679	0.0027
739.925	0.0031
740.17	0.0019
740.415	0.003
740.66	0.0028
740.906	0.0032
741.151	0.0031
741.396	0.0035
741.641	0.0067
741.886	0.0059
742.13	0.0067
742.375	0.0058
742.62	0.0064
742.865	0.0059
743.109	0.0058
743.354	0.0056
743.598	0.0054
743.843	0.0058
744.087	0.0057
744.331	0.0055
744.576	0.0054
744.82	0.0055
745.064	0.0048
745.308	0.0039
745.552	0.0036
745.796	0.0044
746.04	0.0033
746.284	0.0017
746.528	0.0008
746.771	0.0021
747.015	0.001
747.259	0.0019
747.502	0.0016
747.746	0.0027
747.989	0.0023
748.233	0.004
748.476	0.0038
748.719	0.0044
748.963	0.0048
749.206	0.0043
749.449	0.0049
749.692	0.0033
749.935	0.005
750.178	0.0041
750.421	0.0035
750.664	0.0048
750.906	0.005
751.149	0.0039
751.392	0.0033
751.635	0.0017
751.877	0.001
752.12	0
752.362	0.001
752.604	0.0012
752.847	0.0023
753.089	0.0023
753.331	0.002
753.573	0.002
753.816	0.0031
754.058	0.0039
754.3	0.0046
754.542	0.0053
754.783	0.0038
755.025	0.0034
755.267	0.0019
755.509	0.0015
755.75	0.0011
755.992	0.0026
756.234	0.0017
756.475	0.0003
756.716	0
756.958	0.0002
757.199	0.0004
757.44	0.0024
757.682	0.0012
757.923	0.0002
758.164	0.0007
758.405	-0.0001
758.646	0.0009
758.887	0.0008
759.128	0.0007
759.369	-0.0002
759.609	0.0002
759.85	0.0001
760.091	0.0007
760.331	0.0009
760.572	-0.0007
760.812	-0.0003
761.053	-0
761.293	0.0007
761.533	0.0007
761.774	0.002
762.014	0.001
762.254	0.0012
762.494	0.0005
762.734	0.0002
762.974	0.0006
763.214	0.0002
763.454	-0.0005
763.694	-0
763.933	-0.0005
764.173	0.0004
764.413	0.0001
764.652	0.0003
764.892	0.0009
765.131	0.0011
765.371	0.0012
765.61	0.0024
765.849	0.0018
766.089	0.0024
766.328	0.0037
766.567	0.0034
766.806	0.0031
767.045	0.0039
767.284	0.004
767.523	0.005
767.762	0.0041
768.001	0.0037
768.239	0.0035
768.478	0.0025
768.717	0.0025
768.955	0.0027
769.194	0.0021
769.432	0.0029
769.671	0.0038
769.909	0.0029
770.148	0.0034
770.386	0.0037
770.624	0.0031
770.862	0.0038
771.1	0.0026
771.338	0.0024
771.576	0.0033
771.814	0.0022
772.052	0.0023
772.29	0.0028
772.528	0.0035
772.765	0.003
773.003	0.0039
773.24	0.0039
773.478	0.0031
773.716	0.0043
773.953	0.0041
774.19	0.0046
774.428	0.0041
774.665	0.0047
774.902	0.0049
775.139	0.0031
775.376	0.0039
775.613	0.0032
775.85	0.0029
776.087	0.0022
776.324	0.0033
776.561	0.0038
776.798	0.0045
777.034	0.006
777.271	0.0074
777.508	0.0076
777.744	0.0074
777.981	0.0056
778.217	0.0066
778.454	0.005
778.69	0.0046
778.926	0.0047
779.162	0.0045
779.399	0.0048
779.635	0.0043
779.871	0.0038
780.107	0.0052
780.343	0.0049
780.579	0.006
780.814	0.0055
781.05	0.0055
781.286	0.0052
781.522	0.005
781.757	0.0063
781.993	0.0066
782.228	0.0062
782.464	0.006
782.699	0.005
782.934	0.0042
783.17	0.005
783.405	0.0046
783.64	0.0036
783.875	0.0032
784.11	0.0043
784.345	0.0042
784.58	0.0039
784.815	0.0047
785.05	0.0043
785.285	0.003
785.52	0.0026
785.754	0.0031
785.989	0.0029
786.223	0.002
786.458	0.0019
786.692	0.0017
786.927	0.0018
787.161	0.002
787.396	0.0018
787.63	0.0013
787.864	0.0009
788.098	0.0008
788.332	0.0012
788.566	0.0009
788.8	0.0005
789.034	0.001
789.268	0.0017
789.502	0.002
789.736	0.003
789.969	0.0031
790.203	0.0028
790.437	0.0031
790.67	0.0025
790.904	0.0028
791.137	0.0014
791.37	0.0016
791.604	0.0009
791.837	0.0008
792.07	0.001
792.303	0.0016
792.537	0.0007
792.77	0.0005
793.003	0.0016
793.236	-0
793.469	-0.0008
793.701	0.0005
793.934	0.0007
794.167	0.0004
794.4	0.0007
794.632	0.0007
794.865	0
795.097	0.001
795.33	0.0017
795.562	0.001
795.795	0.0018
796.027	0.0016
796.259	0.0015
796.491	0.0014
796.724	0.0009
796.956	0.0014
797.188	0.0019
797.42	0.0012
797.652	0.0016
797.883	0.001
798.115	-0.0001
798.347	0.0006
798.579	-0.0011
798.81	-0.0011
799.042	-0.0015
799.274	-0.002
799.505	-0.0011
799.737	-0.0019
799.968	-0.0005
800.199	0.0002
800.431	-0.0007
800.662	0.0003
800.893	0.0006
801.124	0.0016
801.355	0.001
801.586	0.0016
801.817	0.0009
802.048	0.0013
802.279	0.0017
802.51	0.0013
802.741	0.0003
802.971	0.0001
803.202	-0.0003
803.433	-0.0008
803.663	-0.0005
803.894	-0.0001
804.124	0.001
804.354	-0.0002
804.585	0.0005
804.815	0.0007
805.045	0.0004
805.275	0.0004
805.506	-0.0439
805.736	0.0552
805.966	-0.0512
806.196	0.0607
