Data from 03 0.4 mM K2Cr2O7 0.25 M BQDS 1 M H2SO4 5 min_Absorbance_0068.txt Node
Date: Tue Dec 14 23:10:13 EST 2021
User: kwabilab-user
Spectrometer: HDX00518
Trigger mode: 0
Integration Time (sec): 5.000000E-2
Scans to average: 50
Nonlinearity correction enabled: false
Boxcar width: 0
Storing dark spectrum: false
XAxis mode: Wavelengths
Number of Pixels in Spectrum: 2068
>>>>>Begin Spectral Data<<<<<
195.27	-0.0626
195.642	0.1139
196.014	-0.0488
196.386	-0.141
196.758	-0.0682
197.129	-0.0245
197.501	-0.0278
197.872	0.0136
198.244	-0.0041
198.615	0.0402
198.986	0.0212
199.357	0.0252
199.728	0.0313
200.099	0.0014
200.47	0.0321
200.841	0.0154
201.212	0.0086
201.582	0.0179
201.953	0.0324
202.323	0.0336
202.694	0.0146
203.064	0.0173
203.434	-0.0084
203.804	0.0253
204.174	0.0052
204.544	0.0354
204.914	0.0019
205.284	0.0244
205.653	0.0033
206.023	0.0291
206.393	0.0057
206.762	0.0358
207.131	0.0156
207.501	0.034
207.87	0.0243
208.239	0.011
208.608	0.0243
208.977	0.0056
209.346	0.0063
209.715	0.0176
210.083	0.0113
210.452	0.0141
210.82	0.036
211.189	-0.0022
211.557	0.0281
211.925	0.0117
212.294	0.0176
212.662	0.0279
213.03	0.0355
213.398	0.0253
213.766	0.0136
214.133	0.0289
214.501	0.0179
214.869	0.0207
215.236	0.0151
215.604	0.0234
215.971	0.0608
216.338	0.0343
216.705	0.0539
217.072	0.0385
217.439	0.0322
217.806	0.0506
218.173	0.0659
218.54	0.0625
218.907	0.0545
219.273	0.0575
219.64	0.0886
220.006	0.074
220.373	0.0906
220.739	0.109
221.105	0.1283
221.471	0.1315
221.837	0.1555
222.203	0.1821
222.569	0.1985
222.935	0.1946
223.3	0.2341
223.666	0.25
224.031	0.266
224.397	0.2845
224.762	0.3383
225.127	0.3336
225.493	0.3672
225.858	0.3934
226.223	0.4057
226.588	0.4343
226.952	0.459
227.317	0.475
227.682	0.491
228.046	0.4979
228.411	0.5363
228.775	0.5294
229.14	0.5381
229.504	0.5569
229.868	0.5704
230.232	0.5827
230.596	0.5933
230.96	0.6136
231.324	0.5978
231.688	0.6123
232.052	0.6307
232.415	0.635
232.779	0.632
233.142	0.6433
233.505	0.6341
233.869	0.6408
234.232	0.6333
234.595	0.6341
234.958	0.6487
235.321	0.649
235.684	0.6344
236.047	0.6386
236.409	0.6417
236.772	0.637
237.134	0.6365
237.497	0.6239
237.859	0.6397
238.222	0.6391
238.584	0.6179
238.946	0.6226
239.308	0.6195
239.67	0.6148
240.032	0.6171
240.393	0.61
240.755	0.6157
241.117	0.6165
241.478	0.6058
241.84	0.6081
242.201	0.6034
242.562	0.5942
242.924	0.583
243.285	0.5873
243.646	0.5889
244.007	0.5885
244.368	0.5887
244.728	0.5877
245.089	0.5844
245.45	0.5808
245.81	0.5796
246.171	0.5766
246.531	0.5699
246.891	0.5744
247.252	0.5678
247.612	0.5755
247.972	0.57
248.332	0.565
248.692	0.5708
249.051	0.5627
249.411	0.5712
249.771	0.5594
250.13	0.5639
250.49	0.5561
250.849	0.5624
251.208	0.5594
251.568	0.5638
251.927	0.5533
252.286	0.5591
252.645	0.5592
253.004	0.5596
253.363	0.56
253.721	0.5513
254.08	0.5551
254.439	0.5512
254.797	0.5509
255.155	0.5556
255.514	0.552
255.872	0.5562
256.23	0.5485
256.588	0.5586
256.946	0.5552
257.304	0.5523
257.662	0.5556
258.02	0.5586
258.377	0.5501
258.735	0.5469
259.093	0.5496
259.45	0.547
259.807	0.5459
260.165	0.5491
260.522	0.5427
260.879	0.5391
261.236	0.5424
261.593	0.5389
261.95	0.5388
262.306	0.5374
262.663	0.5378
263.02	0.5344
263.376	0.5273
263.733	0.533
264.089	0.533
264.445	0.5295
264.802	0.5238
265.158	0.5268
265.514	0.5227
265.87	0.522
266.226	0.5184
266.581	0.5182
266.937	0.5171
267.293	0.5156
267.648	0.5144
268.004	0.5086
268.359	0.5092
268.714	0.5057
269.07	0.5035
269.425	0.5008
269.78	0.4965
270.135	0.4943
270.49	0.4915
270.844	0.4941
271.199	0.4895
271.554	0.4819
271.908	0.4791
272.263	0.4782
272.617	0.4784
272.972	0.4733
273.326	0.4697
273.68	0.4683
274.034	0.4624
274.388	0.461
274.742	0.4575
275.096	0.4547
275.45	0.452
275.803	0.4508
276.157	0.4461
276.51	0.4392
276.864	0.442
277.217	0.4379
277.571	0.4365
277.924	0.4245
278.277	0.4266
278.63	0.42
278.983	0.4166
279.336	0.4118
279.688	0.4085
280.041	0.4035
280.394	0.3994
280.746	0.3976
281.099	0.3913
281.451	0.3887
281.803	0.3853
282.156	0.3795
282.508	0.3764
282.86	0.3741
283.212	0.37
283.564	0.3635
283.916	0.3581
284.267	0.3578
284.619	0.3542
284.971	0.3502
285.322	0.3464
285.673	0.3439
286.025	0.3397
286.376	0.3377
286.727	0.3324
287.078	0.3281
287.429	0.3265
287.78	0.3204
288.131	0.3173
288.482	0.3127
288.833	0.3089
289.183	0.3068
289.534	0.3017
289.884	0.2983
290.235	0.2962
290.585	0.2927
290.935	0.2888
291.285	0.2846
291.635	0.281
291.985	0.2789
292.335	0.275
292.685	0.2726
293.035	0.2671
293.384	0.2643
293.734	0.2607
294.083	0.2586
294.433	0.2547
294.782	0.2506
295.131	0.2482
295.48	0.2448
295.829	0.2408
296.179	0.2374
296.527	0.2342
296.876	0.2318
297.225	0.2276
297.574	0.225
297.922	0.222
298.271	0.219
298.619	0.2157
298.968	0.2134
299.316	0.2096
299.664	0.2088
300.012	0.205
300.36	0.2012
300.708	0.199
301.056	0.197
301.404	0.1936
301.752	0.1916
302.099	0.1895
302.447	0.1866
302.794	0.1841
303.142	0.1815
303.489	0.1789
303.836	0.1779
304.183	0.1748
304.531	0.1735
304.878	0.1716
305.224	0.1697
305.571	0.169
305.918	0.1663
306.265	0.164
306.611	0.1621
306.958	0.1619
307.304	0.1594
307.651	0.1586
307.997	0.1572
308.343	0.1556
308.689	0.1544
309.035	0.1538
309.381	0.1521
309.727	0.1508
310.073	0.1508
310.419	0.1496
310.764	0.1497
311.11	0.148
311.455	0.1472
311.801	0.1462
312.146	0.1456
312.491	0.1453
312.837	0.1451
313.182	0.1442
313.527	0.1435
313.872	0.1439
314.216	0.1432
314.561	0.1425
314.906	0.1424
315.251	0.1433
315.595	0.1435
315.94	0.1425
316.284	0.1426
316.628	0.1428
316.972	0.1437
317.317	0.1429
317.661	0.1437
318.005	0.1432
318.348	0.1439
318.692	0.1439
319.036	0.1446
319.38	0.1452
319.723	0.1454
320.067	0.1464
320.41	0.1465
320.754	0.1473
321.097	0.1464
321.44	0.1483
321.783	0.1488
322.126	0.1496
322.469	0.1496
322.812	0.1518
323.155	0.1521
323.498	0.1529
323.84	0.1536
324.183	0.1544
324.525	0.1557
324.868	0.1572
325.21	0.1574
325.552	0.1586
325.894	0.1596
326.236	0.1598
326.578	0.161
326.92	0.1626
327.262	0.1628
327.604	0.1636
327.946	0.1654
328.287	0.166
328.629	0.168
328.97	0.1689
329.312	0.1691
329.653	0.171
329.994	0.1714
330.335	0.1736
330.676	0.1744
331.017	0.1753
331.358	0.1768
331.699	0.1784
332.04	0.1788
332.38	0.1798
332.721	0.1816
333.061	0.1826
333.402	0.1842
333.742	0.1836
334.083	0.186
334.423	0.1862
334.763	0.1876
335.103	0.1884
335.443	0.19
335.783	0.1901
336.123	0.1917
336.462	0.193
336.802	0.1934
337.141	0.1942
337.481	0.1959
337.82	0.1968
338.16	0.1974
338.499	0.1977
338.838	0.1993
339.177	0.2004
339.516	0.2009
339.855	0.2014
340.194	0.2032
340.533	0.2032
340.872	0.2032
341.21	0.2047
341.549	0.2058
341.887	0.2064
342.226	0.2062
342.564	0.2072
342.902	0.208
343.24	0.2079
343.578	0.2086
343.916	0.2083
344.254	0.2093
344.592	0.2094
344.93	0.2097
345.268	0.2084
345.605	0.2096
345.943	0.2097
346.28	0.2097
346.618	0.2097
346.955	0.2107
347.292	0.2106
347.629	0.2102
347.966	0.2103
348.303	0.2109
348.64	0.2111
348.977	0.2107
349.314	0.2108
349.65	0.2101
349.987	0.2109
350.324	0.2099
350.66	0.2108
350.996	0.2098
351.333	0.2092
351.669	0.2091
352.005	0.2097
352.341	0.2079
352.677	0.2067
353.013	0.2057
353.349	0.2051
353.685	0.205
354.02	0.2042
354.356	0.2038
354.691	0.2018
355.027	0.2015
355.362	0.1999
355.697	0.1995
356.033	0.1994
356.368	0.1974
356.703	0.1973
357.038	0.1965
357.373	0.195
357.707	0.1946
358.042	0.1939
358.377	0.1933
358.711	0.1928
359.046	0.1909
359.38	0.1914
359.715	0.1903
360.049	0.1887
360.383	0.1868
360.717	0.1856
361.051	0.185
361.385	0.1842
361.719	0.1834
362.053	0.1828
362.387	0.1794
362.72	0.1787
363.054	0.1778
363.387	0.1762
363.721	0.1744
364.054	0.1742
364.387	0.1713
364.721	0.1701
365.054	0.1687
365.387	0.1671
365.72	0.1669
366.053	0.165
366.385	0.163
366.718	0.1628
367.051	0.1606
367.383	0.1596
367.716	0.1592
368.048	0.1575
368.381	0.157
368.713	0.1545
369.045	0.1544
369.377	0.1533
369.709	0.1523
370.041	0.1507
370.373	0.1498
370.705	0.1488
371.037	0.147
371.368	0.1461
371.7	0.1451
372.031	0.1423
372.363	0.1415
372.694	0.1408
373.025	0.1387
373.356	0.1365
373.688	0.1358
374.019	0.1344
374.35	0.1321
374.68	0.131
375.011	0.1289
375.342	0.1269
375.673	0.1256
376.003	0.1241
376.334	0.1231
376.664	0.1218
376.995	0.12
377.325	0.1185
377.655	0.1172
377.985	0.1156
378.315	0.1151
378.645	0.1137
378.975	0.1128
379.305	0.1106
379.635	0.111
379.964	0.1093
380.294	0.1087
380.623	0.1073
380.953	0.1059
381.282	0.1056
381.611	0.1043
381.941	0.1034
382.27	0.1018
382.599	0.1012
382.928	0.0994
383.257	0.0986
383.585	0.0968
383.914	0.0956
384.243	0.0938
384.571	0.0931
384.9	0.0918
385.228	0.0904
385.557	0.0889
385.885	0.0874
386.213	0.0869
386.541	0.085
386.869	0.0838
387.197	0.0824
387.525	0.0814
387.853	0.0799
388.181	0.0789
388.508	0.0776
388.836	0.0762
389.164	0.0764
389.491	0.074
389.818	0.0729
390.146	0.0729
390.473	0.0717
390.8	0.0712
391.127	0.0686
391.454	0.0685
391.781	0.0685
392.108	0.0673
392.435	0.0661
392.761	0.0654
393.088	0.0647
393.415	0.0645
393.741	0.0637
394.067	0.0637
394.394	0.063
394.72	0.0613
395.046	0.06
395.372	0.0599
395.698	0.0592
396.024	0.0582
396.35	0.0576
396.676	0.0565
397.001	0.0553
397.327	0.0548
397.653	0.0537
397.978	0.0539
398.303	0.0528
398.629	0.0527
398.954	0.0514
399.279	0.0517
399.604	0.0504
399.929	0.0501
400.254	0.0491
400.579	0.0481
400.904	0.048
401.229	0.0477
401.553	0.0473
401.878	0.0468
402.202	0.0463
402.527	0.0454
402.851	0.0454
403.175	0.0448
403.5	0.0439
403.824	0.0438
404.148	0.0439
404.472	0.0435
404.796	0.0432
405.119	0.0427
405.443	0.0425
405.767	0.0417
406.09	0.0422
406.414	0.0413
406.737	0.0419
407.061	0.0415
407.384	0.0413
407.707	0.0403
408.03	0.0405
408.353	0.0401
408.676	0.0404
408.999	0.0402
409.322	0.0397
409.645	0.04
409.968	0.0404
410.29	0.0397
410.613	0.0402
410.935	0.0388
411.258	0.039
411.58	0.0386
411.902	0.0388
412.224	0.0388
412.546	0.0388
412.868	0.04
413.19	0.0383
413.512	0.0387
413.834	0.0386
414.156	0.0391
414.477	0.0378
414.799	0.039
415.121	0.038
415.442	0.0381
415.763	0.0379
416.085	0.0384
416.406	0.0379
416.727	0.0384
417.048	0.0384
417.369	0.0378
417.69	0.0376
418.011	0.0379
418.331	0.0383
418.652	0.0377
418.973	0.0378
419.293	0.0381
419.614	0.0375
419.934	0.0385
420.254	0.0378
420.574	0.0373
420.895	0.0375
421.215	0.0379
421.535	0.0377
421.855	0.0369
422.174	0.0367
422.494	0.0372
422.814	0.0372
423.134	0.0369
423.453	0.0377
423.773	0.0385
424.092	0.038
424.411	0.0375
424.731	0.0375
425.05	0.0383
425.369	0.0377
425.688	0.0373
426.007	0.0377
426.326	0.038
426.644	0.0373
426.963	0.0376
427.282	0.0377
427.6	0.0382
427.919	0.0378
428.237	0.0378
428.556	0.0374
428.874	0.0374
429.192	0.0372
429.51	0.0371
429.828	0.0373
430.146	0.0376
430.464	0.0376
430.782	0.0374
431.1	0.0369
431.418	0.0369
431.735	0.0365
432.053	0.0371
432.37	0.0372
432.688	0.0369
433.005	0.0366
433.322	0.0379
433.639	0.0379
433.957	0.0373
434.274	0.0372
434.591	0.0373
434.907	0.0372
435.224	0.0371
435.541	0.037
435.858	0.0374
436.174	0.0374
436.491	0.0371
436.807	0.0368
437.124	0.0372
437.44	0.0377
437.756	0.0373
438.072	0.0367
438.388	0.0374
438.704	0.037
439.02	0.037
439.336	0.0364
439.652	0.0367
439.968	0.0359
440.283	0.0367
440.599	0.0372
440.914	0.0371
441.23	0.037
441.545	0.0367
441.86	0.0369
442.175	0.0368
442.491	0.0369
442.806	0.0363
443.121	0.036
443.435	0.036
443.75	0.0363
444.065	0.0359
444.38	0.0357
444.694	0.0353
445.009	0.0357
445.323	0.036
445.638	0.0358
445.952	0.0357
446.266	0.0354
446.58	0.0348
446.894	0.0362
447.208	0.0346
447.522	0.0344
447.836	0.0353
448.15	0.0351
448.464	0.0343
448.777	0.035
449.091	0.0343
449.404	0.0338
449.718	0.0345
450.031	0.0336
450.345	0.034
450.658	0.033
450.971	0.034
451.284	0.0341
451.597	0.0345
451.91	0.0338
452.223	0.0339
452.535	0.034
452.848	0.0332
453.161	0.0338
453.473	0.034
453.786	0.033
454.098	0.0337
454.411	0.0326
454.723	0.0328
455.035	0.0319
455.347	0.0322
455.659	0.0328
455.971	0.0327
456.283	0.0332
456.595	0.0327
456.907	0.0327
457.218	0.0322
457.53	0.0318
457.841	0.0318
458.153	0.0317
458.464	0.0315
458.776	0.0311
459.087	0.0312
459.398	0.0315
459.709	0.0303
460.02	0.0313
460.331	0.0313
460.642	0.0309
460.953	0.0304
461.263	0.0304
461.574	0.0298
461.885	0.0308
462.195	0.0302
462.506	0.0298
462.816	0.0302
463.126	0.0298
463.437	0.0293
463.747	0.0294
464.057	0.028
464.367	0.0283
464.677	0.0287
464.987	0.0282
465.296	0.028
465.606	0.028
465.916	0.0272
466.225	0.0281
466.535	0.028
466.844	0.0281
467.154	0.0281
467.463	0.0266
467.772	0.0268
468.081	0.0275
468.39	0.0276
468.699	0.0267
469.008	0.027
469.317	0.0265
469.626	0.0269
469.935	0.0255
470.243	0.0264
470.552	0.0257
470.86	0.026
471.169	0.025
471.477	0.025
471.785	0.0241
472.093	0.0244
472.402	0.0251
472.71	0.0244
473.018	0.0234
473.326	0.0244
473.633	0.0242
473.941	0.0235
474.249	0.0238
474.556	0.023
474.864	0.0238
475.171	0.0228
475.479	0.023
475.786	0.0236
476.094	0.022
476.401	0.0225
476.708	0.0227
477.015	0.0223
477.322	0.021
477.629	0.0219
477.936	0.0223
478.242	0.0212
478.549	0.0214
478.856	0.0214
479.162	0.021
479.469	0.021
479.775	0.0203
480.081	0.0196
480.388	0.0194
480.694	0.02
481	0.0195
481.306	0.0197
481.612	0.0196
481.918	0.0205
482.224	0.0195
482.53	0.0197
482.835	0.0199
483.141	0.0194
483.446	0.019
483.752	0.0183
484.057	0.0183
484.363	0.018
484.668	0.0182
484.973	0.0173
485.278	0.0159
485.583	0.016
485.888	0.0175
486.193	0.0158
486.498	0.0168
486.803	0.0177
487.107	0.0163
487.412	0.015
487.717	0.0163
488.021	0.0168
488.325	0.0156
488.63	0.0161
488.934	0.0157
489.238	0.0151
489.542	0.0155
489.846	0.0156
490.15	0.015
490.454	0.0163
490.758	0.015
491.062	0.0146
491.366	0.0148
491.669	0.0142
491.973	0.0139
492.276	0.0136
492.58	0.0138
492.883	0.0152
493.186	0.0135
493.489	0.0139
493.792	0.012
494.096	0.0129
494.399	0.0134
494.701	0.0121
495.004	0.0122
495.307	0.0126
495.61	0.0131
495.912	0.0129
496.215	0.0129
496.517	0.0127
496.82	0.0119
497.122	0.0121
497.424	0.0123
497.727	0.0116
498.029	0.0112
498.331	0.0118
498.633	0.0116
498.935	0.011
499.237	0.0113
499.538	0.0104
499.84	0.0112
500.142	0.0103
500.443	0.01
500.745	0.0108
501.046	0.0106
501.348	0.0092
501.649	0.0094
501.95	0.0104
502.251	0.0103
502.552	0.0099
502.853	0.0096
503.154	0.0102
503.455	0.0097
503.756	0.0095
504.057	0.0095
504.357	0.0094
504.658	0.0094
504.958	0.0082
505.259	0.0094
505.559	0.0088
505.859	0.0084
506.16	0.0079
506.46	0.0082
506.76	0.008
507.06	0.0074
507.36	0.0077
507.66	0.0082
507.96	0.0093
508.259	0.0074
508.559	0.0077
508.859	0.0079
509.158	0.0082
509.457	0.0061
509.757	0.0073
510.056	0.0075
510.355	0.0073
510.655	0.0061
510.954	0.0059
511.253	0.0065
511.552	0.0063
511.851	0.0067
512.149	0.0066
512.448	0.0056
512.747	0.0062
513.045	0.006
513.344	0.0067
513.642	0.0066
513.941	0.0065
514.239	0.0068
514.537	0.0067
514.836	0.006
515.134	0.0058
515.432	0.006
515.73	0.006
516.028	0.0054
516.326	0.0052
516.623	0.0044
516.921	0.0051
517.219	0.0062
517.516	0.004
517.814	0.0048
518.111	0.0058
518.409	0.0055
518.706	0.0056
519.003	0.005
519.3	0.005
519.597	0.0053
519.894	0.0046
520.191	0.006
520.488	0.006
520.785	0.0051
521.082	0.0056
521.378	0.0056
521.675	0.0033
521.971	0.0039
522.268	0.006
522.564	0.0043
522.861	0.0056
523.157	0.0049
523.453	0.0048
523.749	0.0044
524.045	0.0042
524.341	0.0043
524.637	0.0042
524.933	0.0051
525.229	0.0051
525.524	0.0048
525.82	0.0039
526.115	0.0043
526.411	0.0042
526.706	0.0039
527.002	0.0035
527.297	0.0035
527.592	0.0039
527.887	0.0029
528.182	0.0037
528.477	0.0048
528.772	0.0032
529.067	0.0036
529.362	0.0037
529.657	0.0037
529.951	0.0038
530.246	0.0026
530.54	0.0036
530.835	0.0027
531.129	0.0033
531.423	0.0036
531.718	0.0027
532.012	0.0029
532.306	0.003
532.6	0.0028
532.894	0.0036
533.188	0.0025
533.482	0.0028
533.775	0.0029
534.069	0.0029
534.363	0.0023
534.656	0.0026
534.95	0.0023
535.243	0.0033
535.536	0.0023
535.83	0.0021
536.123	0.0024
536.416	0.0029
536.709	0.0028
537.002	0.004
537.295	0.0037
537.588	0.004
537.881	0.0029
538.173	0.0034
538.466	0.0032
538.759	0.0033
539.051	0.0033
539.344	0.0036
539.636	0.0027
539.928	0.0043
540.22	0.0025
540.513	0.0035
540.805	0.0038
541.097	0.0036
541.389	0.0021
541.681	0.0036
541.972	0.0016
542.264	0.0019
542.556	0.0033
542.847	0.0021
543.139	0.0028
543.431	0.0022
543.722	0.0019
544.013	0.0034
544.305	0.0024
544.596	0.0028
544.887	0.0023
545.178	0.0037
545.469	0.0039
545.76	0.0033
546.051	0.0028
546.342	0.0029
546.632	0.0027
546.923	0.0026
547.214	0.003
547.504	0.0033
547.795	0.0027
548.085	0.0034
548.375	0.0029
548.666	0.0035
548.956	0.0031
549.246	0.0034
549.536	0.0034
549.826	0.0035
550.116	0.0034
550.406	0.0033
550.695	0.0035
550.985	0.0041
551.275	0.0037
551.564	0.0045
551.854	0.0044
552.143	0.0041
552.433	0.0036
552.722	0.0036
553.011	0.0041
553.3	0.0036
553.589	0.0044
553.879	0.0047
554.167	0.0042
554.456	0.0037
554.745	0.0043
555.034	0.0038
555.323	0.0034
555.611	0.004
555.9	0.0039
556.188	0.0027
556.477	0.0021
556.765	0.0054
557.053	0.0031
557.342	0.0033
557.63	0.0037
557.918	0.004
558.206	0.0041
558.494	0.0038
558.782	0.0037
559.069	0.005
559.357	0.0044
559.645	0.0045
559.932	0.0042
560.22	0.0039
560.507	0.0024
560.795	0.0024
561.082	0.002
561.37	0.0034
561.657	0.0028
561.944	0.0027
562.231	0.0027
562.518	0.0034
562.805	0.0032
563.092	0.0033
563.379	0.0031
563.665	0.0044
563.952	0.0042
564.239	0.0044
564.525	0.0032
564.811	0.0036
565.098	0.0035
565.384	0.0029
565.67	0.0042
565.957	0.0031
566.243	0.004
566.529	0.0038
566.815	0.0033
567.101	0.003
567.387	0.0033
567.672	0.0028
567.958	0.0026
568.244	0.0023
568.529	0.0033
568.815	0.0031
569.1	0.0024
569.386	0.0035
569.671	0.003
569.956	0.0033
570.242	0.0031
570.527	0.0023
570.812	0.003
571.097	0.0016
571.382	0.0016
571.666	0.002
571.951	0.0035
572.236	0.0024
572.521	0.0027
572.805	0.0036
573.09	0.0035
573.374	0.0023
573.659	0.0021
573.943	0.0027
574.227	0.0028
574.511	0.0027
574.795	0.0036
575.079	0.0032
575.363	0.0031
575.647	0.0027
575.931	0.0036
576.215	0.0027
576.499	0.002
576.782	0.0018
577.066	0.0028
577.349	0.0028
577.633	0.0034
577.916	0.0028
578.2	0.0031
578.483	0.0032
578.766	0.004
579.049	0.0026
579.332	0.0034
579.615	0.0023
579.898	0.0025
580.181	0.0032
580.464	0.0027
580.746	0.0031
581.029	0.0028
581.312	0.002
581.594	0.0017
581.877	0.0024
582.159	0.0039
582.441	0.0016
582.724	0.0029
583.006	0.0032
583.288	0.0026
583.57	0.0024
583.852	0.0027
584.134	0.0029
584.416	0.0025
584.697	0.0027
584.979	0.0027
585.261	0.0021
585.542	0.0024
585.824	0.0033
586.105	0.0035
586.387	0.0025
586.668	0.0038
586.949	0.0032
587.231	0.0027
587.512	0.0031
587.793	0.0024
588.074	0.0025
588.355	0.003
588.636	0.0026
588.916	0.0029
589.197	0.0019
589.478	0.0025
589.758	0.0019
590.039	0.0021
590.319	0.0018
590.6	0.0021
590.88	0.0016
591.16	0.0024
591.441	0.0026
591.721	0.0018
592.001	0.0021
592.281	0.002
592.561	0.0025
592.841	0.0028
593.12	0.0024
593.4	0.0024
593.68	0.0026
593.959	0.0028
594.239	0.0032
594.518	0.0037
594.798	0.0036
595.077	0.003
595.356	0.0022
595.636	0.0028
595.915	0.002
596.194	0.0023
596.473	0.0031
596.752	0.0034
597.031	0.0028
597.31	0.0023
597.588	0.0018
597.867	0.002
598.146	0.0017
598.424	0.0012
598.703	0.0017
598.981	0.0016
599.259	0.0017
599.538	0.0028
599.816	0.003
600.094	0.0028
600.372	0.0027
600.65	0.0036
600.928	0.0031
601.206	0.0028
601.484	0.0032
601.762	0.0038
602.04	0.0042
602.317	0.0029
602.595	0.0036
602.872	0.0033
603.15	0.0029
603.427	0.0019
603.704	0.0014
603.982	0.002
604.259	0.0025
604.536	0.0024
604.813	0.0027
605.09	0.0024
605.367	0.0017
605.644	0.0018
605.921	0.0019
606.197	0.0017
606.474	0.0034
606.751	0.001
607.027	0.0027
607.304	0.0022
607.58	0.0024
607.856	0.0036
608.133	0.0035
608.409	0.0031
608.685	0.0033
608.961	0.0033
609.237	0.0033
609.513	0.0035
609.789	0.0027
610.065	0.0021
610.341	0.001
610.616	0.002
610.892	0.002
611.167	0.0017
611.443	0.0029
611.718	0.0022
611.994	0.0025
612.269	0.0016
612.544	0.002
612.819	0.0015
613.095	0.0023
613.37	0.0012
613.645	0.0015
613.919	0.0015
614.194	0.003
614.469	0.0031
614.744	0.0017
615.019	0.0017
615.293	0.0021
615.568	0.0019
615.842	0.0013
616.116	0.0017
616.391	0.0015
616.665	0.0007
616.939	0.001
617.213	0.0017
617.488	0.0018
617.762	0.002
618.035	0.0026
618.309	0.0019
618.583	0.0025
618.857	0.0026
619.131	0.002
619.404	0.0023
619.678	0.0033
619.951	0.0022
620.225	0.0015
620.498	0.0015
620.771	0.0009
621.045	0.0015
621.318	0.0017
621.591	0.0016
621.864	0.0015
622.137	0.0007
622.41	0.0014
622.683	0.0013
622.956	0.0009
623.228	0.0028
623.501	0.0024
623.774	0.0022
624.046	0.0022
624.319	0.0016
624.591	0.0012
624.863	0.0017
625.136	0.0027
625.408	0.0038
625.68	0.0026
625.952	0.0033
626.224	0.0031
626.496	0.0019
626.768	0.0017
627.04	0.0023
627.311	0.0015
627.583	0.0023
627.855	0.0019
628.126	0.0012
628.398	0.0007
628.669	0.0012
628.941	-0.0006
629.212	0.0002
629.483	0.0006
629.755	0.0004
630.026	0.0011
630.297	0.0001
630.568	0.0009
630.839	0.0012
631.11	0.0017
631.38	0.0019
631.651	0.0021
631.922	0.0017
632.192	0.0017
632.463	0.0018
632.733	0.0006
633.004	0.0006
633.274	0.0006
633.545	0.0004
633.815	0.0026
634.085	0.0013
634.355	0.0015
634.625	0.0016
634.895	0.0014
635.165	0.0008
635.435	0.0017
635.705	0.0013
635.974	0.0013
636.244	0.0013
636.514	0
636.783	0.0012
637.053	0.001
637.322	0.0014
637.591	0.0007
637.861	-0.0006
638.13	0.0002
638.399	0.0015
638.668	0.0002
638.937	0.0014
639.206	0.0013
639.475	0.0021
639.744	0.0009
640.013	0.0009
640.281	0.0018
640.55	0.0016
640.819	0.0009
641.087	0.001
641.356	0.0015
641.624	0.0009
641.892	0.0011
642.161	0.0018
642.429	0.0004
642.697	0.0017
642.965	0.0006
643.233	0.0001
643.501	0.0008
643.769	0.0007
644.037	-0
644.305	0.0001
644.572	0.0004
644.84	-0.0002
645.108	0.0012
645.375	0.0013
645.643	0.0022
645.91	0.0012
646.177	0.001
646.445	0.001
646.712	0.0008
646.979	0.0003
647.246	0.0014
647.513	0.0017
647.78	0.0016
648.047	0.0002
648.314	0.0005
648.58	-0.0002
648.847	-0.0018
649.114	-0.0018
649.38	-0.0016
649.647	-0.002
649.913	-0.0003
650.18	0.0006
650.446	0.0016
650.712	0.0018
650.978	0.0018
651.245	0.0025
651.511	0.0034
651.777	0.0025
652.043	0.0013
652.309	0.0014
652.574	0.0016
652.84	0.0019
653.106	0.0021
653.371	0.0035
653.637	0.0024
653.903	0.0024
654.168	0.0026
654.433	0.0009
654.699	0.0006
654.964	-0.0009
655.229	-0.0002
655.494	0.001
655.759	-0.001
656.024	0.0002
656.289	-0
656.554	0.0014
656.819	0.0021
657.084	0.0028
657.349	0.0023
657.613	0.001
657.878	-0.0001
658.142	-0.0002
658.407	0.0005
658.671	0.0008
658.936	0.001
659.2	0.0018
659.464	0.0017
659.728	0.0011
659.992	-0.0004
660.256	-0.0015
660.52	-0.0002
660.784	-0
661.048	0.0001
661.312	0.0005
661.575	-0.0002
661.839	0.0022
662.103	0.0004
662.366	-0.0001
662.63	-0.0001
662.893	-0.0002
663.156	0
663.42	0.0009
663.683	0.0006
663.946	0.0028
664.209	0.0025
664.472	0.0027
664.735	0.0018
664.998	0.0029
665.261	0.003
665.524	0.0028
665.786	0.0022
666.049	0.0021
666.312	0.0021
666.574	0.0027
666.837	0.0032
667.099	0.0021
667.361	0.0028
667.624	0.0032
667.886	0.0019
668.148	0.0035
668.41	0.0028
668.672	0.0026
668.934	0.0026
669.196	0.0015
669.458	0.0005
669.72	0.0001
669.982	0.0003
670.243	0.0004
670.505	-0.0002
670.766	-0.0001
671.028	0.0008
671.289	0.0011
671.551	0.0016
671.812	0.0005
672.073	0.0015
672.334	0.001
672.596	0.0006
672.857	0.001
673.118	0.0021
673.379	0.0026
673.639	0.0031
673.9	0.0019
674.161	0.0017
674.422	0.0014
674.682	0.0005
674.943	-0.0003
675.203	-0.0001
675.464	0.0011
675.724	0.0006
675.985	0.0006
676.245	0.0001
676.505	-0.0005
676.765	0.0001
677.025	0.0009
677.285	0.0003
677.545	-0.0003
677.805	0.0007
678.065	0.0002
678.325	0.0022
678.585	0.0029
678.844	0.0029
679.104	0.0034
679.363	0.0037
679.623	0.0034
679.882	0.0035
680.142	0.0039
680.401	0.0039
680.66	0.0042
680.919	0.0016
681.178	0.0036
681.437	0.0021
681.696	0.0026
681.955	0.0051
682.214	0.0048
682.473	0.0041
682.732	0.0024
682.99	0.0038
683.249	0.0039
683.508	0.0036
683.766	0.0034
684.024	0.0031
684.283	0.0014
684.541	0.0015
684.799	0.0009
685.058	-0.0003
685.316	-0.0004
685.574	-0.0008
685.832	-0
686.09	-0.0005
686.348	-0.001
686.606	-0.0009
686.863	-0.0013
687.121	-0.0015
687.379	-0.0026
687.636	-0.0032
687.894	-0.0026
688.151	-0.0031
688.409	-0.0016
688.666	-0.0013
688.923	-0.0022
689.181	-0.0008
689.438	-0.0016
689.695	-0.0008
689.952	-0.0007
690.209	-0.0008
690.466	-0.0009
690.723	-0.001
690.979	-0.0016
691.236	-0.002
691.493	-0.0029
691.75	-0.0016
692.006	-0.0014
692.263	-0.0012
692.519	-0.0015
692.775	-0.003
693.032	-0.0029
693.288	-0.0036
693.544	-0.0019
693.8	-0.0005
694.056	-0.0017
694.313	-0.0024
694.568	-0.0007
694.824	-0.0015
695.08	-0.0004
695.336	-0.0011
695.592	-0.001
695.847	0.0008
696.103	0.0017
696.359	0.0023
696.614	0.0015
696.869	0.0008
697.125	-0.0007
697.38	-0.0006
697.635	-0
697.891	0.0007
698.146	0.0009
698.401	-0.0003
698.656	-0.0016
698.911	0.001
699.166	0.0006
699.42	0.0016
699.675	0.0013
699.93	0.0018
700.185	0.002
700.439	0.0019
700.694	0.0017
700.948	0.0014
701.203	0.0013
701.457	0.0009
701.711	0.0011
701.965	-0.0004
702.22	0.0008
702.474	0.0002
702.728	0.0003
702.982	0.0003
703.236	-0.0002
703.49	0.0003
703.743	-0.0008
703.997	0.0002
704.251	-0.0004
704.504	0.0009
704.758	0.0012
705.012	0.0021
705.265	0.0025
705.518	0.0014
705.772	0.0013
706.025	0.002
706.278	0.0013
706.531	0.0002
706.785	-0.0011
707.038	-0.0011
707.291	-0.0004
707.543	-0.0004
707.796	-0.0003
708.049	-0.0001
708.302	-0.0002
708.555	-0.0002
708.807	0.0005
709.06	0.001
709.312	0.0019
709.565	0.0015
709.817	0.0034
710.069	0.0018
710.322	0.0027
710.574	0.0036
710.826	0.0016
711.078	0.0017
711.33	0.0017
711.582	0.0019
711.834	0.0015
712.086	0.0022
712.338	0.001
712.59	0.0013
712.841	-0.0007
713.093	0.0002
713.344	0.0013
713.596	0.0003
713.847	-0.0009
714.099	-0.0016
714.35	-0.0013
714.601	-0.0022
714.853	-0.0026
715.104	-0.0018
715.355	-0.0027
715.606	-0.0006
715.857	-0.0001
716.108	0.0003
716.359	0.0008
716.609	-0.0007
716.86	0.0005
717.111	-0.0009
717.361	0.0004
717.612	0
717.863	0.0003
718.113	0.0017
718.363	0.0015
718.614	0.0018
718.864	0.0013
719.114	0.0005
719.364	-0.0003
719.614	0
719.865	-0
720.114	0.0002
720.364	0.0005
720.614	-0.0008
720.864	-0.0007
721.114	-0.0015
721.364	-0.0013
721.613	-0.0015
721.863	-0.0014
722.112	-0.0009
722.362	-0.0001
722.611	0.0001
722.86	0.0004
723.11	0.0014
723.359	0.0008
723.608	0.0013
723.857	0.0029
724.106	0.0023
724.355	0.0019
724.604	0.0009
724.853	0.0009
725.102	-0.0003
725.351	-0.0021
725.599	-0.0034
725.848	-0.0017
726.097	-0.0017
726.345	-0.0023
726.594	-0.0017
726.842	-0.0012
727.09	-0.002
727.339	-0.0013
727.587	-0.0025
727.835	-0.0034
728.083	-0.0032
728.331	-0.0027
728.579	-0.0013
728.827	-0.0024
729.075	-0.003
729.323	-0.0027
729.571	-0.0033
729.818	-0.0032
730.066	-0.0022
730.314	-0.0016
730.561	-0.0021
730.809	-0.003
731.056	-0.0024
731.303	-0.0026
731.551	-0.0018
731.798	-0.0024
732.045	-0.0002
732.292	-0.0022
732.539	-0.0019
732.786	-0.0028
733.033	-0.0023
733.28	-0.0023
733.527	-0.0019
733.774	-0.0027
734.021	-0.0022
734.267	-0.0015
734.514	-0.0021
734.76	-0.0016
735.007	-0.0012
735.253	-0.0013
735.5	0.0008
735.746	0.0019
735.992	0.0013
736.238	0.0013
736.485	0.0017
736.731	0.0017
736.977	0
737.223	-0.0008
737.469	-0.0005
737.715	0.0002
737.96	0.0006
738.206	0.0004
738.452	0.0004
738.697	0.0002
738.943	-0.0017
739.189	-0.0007
739.434	-0.001
739.679	0.0004
739.925	0.0014
740.17	0.0013
740.415	0.0007
740.66	0.0017
740.906	0.0007
741.151	0.0009
741.396	0
741.641	-0.0007
741.886	0.0005
742.13	-0.0001
742.375	0.0013
742.62	-0.0007
742.865	-0.0001
743.109	0.0012
743.354	-0.0012
743.598	-0.0013
743.843	-0.0029
744.087	-0.0029
744.331	-0.0035
744.576	-0.0024
744.82	-0.0013
745.064	-0.0009
745.308	-0.0004
745.552	-0.0014
745.796	-0.0017
746.04	-0.0009
746.284	-0.002
746.528	-0.0007
746.771	-0.0009
747.015	-0.0013
747.259	-0.0022
747.502	-0.0023
747.746	-0.0014
747.989	-0.0009
748.233	-0.0007
748.476	0.0004
748.719	-0.0001
748.963	-0.0003
749.206	0.0003
749.449	-0.0004
749.692	-0.0007
749.935	0.0004
750.178	0.0001
750.421	-0.0008
750.664	-0.0004
750.906	-0.0006
751.149	-0.0011
751.392	-0.0003
751.635	-0.0006
751.877	-0.0005
752.12	-0.0013
752.362	-0.0002
752.604	-0.0002
752.847	-0.0003
753.089	-0.0004
753.331	-0.0011
753.573	-0.0008
753.816	0.0004
754.058	0.0003
754.3	-0.0001
754.542	0.0011
754.783	0.0007
755.025	0.0013
755.267	0.0008
755.509	0.0008
755.75	-0.0006
755.992	0.0001
756.234	0.0005
756.475	0.0003
756.716	-0.0003
756.958	-0.0011
757.199	-0.0006
757.44	-0.0007
757.682	-0.0008
757.923	0.0005
758.164	0.0003
758.405	-0.0002
758.646	0.0006
758.887	-0.0004
759.128	-0.0008
759.369	-0.0012
759.609	-0.0006
759.85	-0.0008
760.091	-0.0006
760.331	0.0002
760.572	0.0003
760.812	-0
761.053	0.0003
761.293	0.001
761.533	0.0013
761.774	0.0007
762.014	0.0015
762.254	0.0011
762.494	0.0012
762.734	0.0007
762.974	0.0014
763.214	0.0009
763.454	0.0011
763.694	0.0016
763.933	0.0023
764.173	0.0032
764.413	0.0033
764.652	0.0007
764.892	0.0008
765.131	0.0001
765.371	-0.0001
765.61	-0.0008
765.849	-0.0027
766.089	-0.0027
766.328	-0.0021
766.567	-0.0036
766.806	-0.004
767.045	-0.0054
767.284	-0.0034
767.523	-0.0041
767.762	-0.0037
768.001	-0.003
768.239	-0.0023
768.478	-0.0034
768.717	-0.003
768.955	-0.0033
769.194	-0.0027
769.432	-0.0022
769.671	-0.0012
769.909	-0.0015
770.148	-0.0016
770.386	-0.0023
770.624	-0.0021
770.862	-0.0023
771.1	-0.0019
771.338	-0.0026
771.576	-0.0014
771.814	-0.0008
772.052	-0.0008
772.29	-0.0003
772.528	-0.0007
772.765	-0.0011
773.003	-0.0007
773.24	-0.0006
773.478	-0.0006
773.716	0.0008
773.953	0.0013
774.19	0.0012
774.428	0.0024
774.665	0.0029
774.902	0.0029
775.139	0.0027
775.376	0.0013
775.613	0.0008
775.85	0.0014
776.087	0.0007
776.324	0.0005
776.561	-0.001
776.798	-0.0001
777.034	0.0003
777.271	-0.0002
777.508	-0.0001
777.744	0.0012
777.981	0
778.217	-0.0007
778.454	-0.0013
778.69	-0.0015
778.926	-0.0006
779.162	-0.0008
779.399	0.0003
779.635	-0.0002
779.871	-0.0004
780.107	-0.0008
780.343	-0.0021
780.579	-0.0016
780.814	-0.0014
781.05	-0.0006
781.286	-0.0019
781.522	-0.0022
781.757	-0.0025
781.993	-0.0012
782.228	-0.0021
782.464	-0.002
782.699	-0.0007
782.934	-0.001
783.17	-0.0009
783.405	-0.0003
783.64	-0.0006
783.875	-0.0017
784.11	-0.0016
784.345	-0.0007
784.58	-0.0003
784.815	-0.0014
785.05	-0.0018
785.285	-0.0018
785.52	-0.0007
785.754	-0.0011
785.989	0.0002
786.223	0.0006
786.458	0.0012
786.692	0.0029
786.927	0.004
787.161	0.0031
787.396	0.0027
787.63	0.002
787.864	0.0003
788.098	-0.0008
788.332	-0.0005
788.566	-0.0009
788.8	-0.0014
789.034	-0.0009
789.268	-0.0016
789.502	-0.0011
789.736	-0.001
789.969	-0.0008
790.203	-0.0002
790.437	0.0004
790.67	0.0003
790.904	0.002
791.137	0.0025
791.37	0.0019
791.604	0.0022
791.837	0.0028
792.07	0.0034
792.303	0.0038
792.537	0.0042
792.77	0.0042
793.003	0.0035
793.236	0.0022
793.469	0.0029
793.701	0.0016
793.934	0.0022
794.167	0.0005
794.4	0.0005
794.632	-0.0006
794.865	-0.0005
795.097	-0.001
795.33	-0.0012
795.562	-0.0006
795.795	-0.0009
796.027	0.0003
796.259	0.0015
796.491	0.001
796.724	0.0019
796.956	0.0022
797.188	0.0018
797.42	0.0019
797.652	0.0018
797.883	0.0022
798.115	0.0033
798.347	0.0024
798.579	0.0016
798.81	0.0014
799.042	0.0018
799.274	0.0029
799.505	0.0029
799.737	0.0027
799.968	0.003
800.199	0.002
800.431	0.0025
800.662	0.0017
800.893	0.0028
801.124	0.0024
801.355	0.0025
801.586	0.0032
801.817	0.0046
802.048	0.0045
802.279	0.0037
802.51	0.0042
802.741	0.0059
802.971	0.0037
803.202	0.0031
803.433	0.0024
803.663	0.0029
803.894	0.0027
804.124	0.0033
804.354	0.004
804.585	0.0057
804.815	0.0056
805.045	0.0072
805.275	0.0048
805.506	0.0104
805.736	-0.0349
805.966	-0.1424
806.196	0.0066
