Data from 03 0.4 mM K2Cr2O7 0.25 M BQDS 1 M H2SO4 5 min_Absorbance_0275.txt Node
Date: Wed Dec 15 16:25:14 EST 2021
User: kwabilab-user
Spectrometer: HDX00518
Trigger mode: 0
Integration Time (sec): 5.000000E-2
Scans to average: 50
Nonlinearity correction enabled: false
Boxcar width: 0
Storing dark spectrum: false
XAxis mode: Wavelengths
Number of Pixels in Spectrum: 2068
>>>>>Begin Spectral Data<<<<<
195.27	-0.2976
195.642	0.3736
196.014	-0.1257
196.386	0.0133
196.758	-0.0757
197.129	-0.0112
197.501	-0.0137
197.872	0.0185
198.244	0.0097
198.615	0.0402
198.986	0.0192
199.357	0.0291
199.728	0.0242
200.099	0.0065
200.47	0.0405
200.841	0.0116
201.212	0.0082
201.582	0.0368
201.953	0.0268
202.323	0.0214
202.694	0.0189
203.064	0.0006
203.434	0.0013
203.804	0.0067
204.174	0.0349
204.544	0.0491
204.914	0.0086
205.284	0.0145
205.653	-0.0004
206.023	0.0102
206.393	0.0158
206.762	0.0094
207.131	0.0283
207.501	0.0332
207.87	0.0522
208.239	0.0179
208.608	0.0424
208.977	0.0038
209.346	0.0166
209.715	0.0347
210.083	0.0106
210.452	0.0178
210.82	0.0369
211.189	0.0184
211.557	0.0254
211.925	0.0171
212.294	0.0317
212.662	0.0103
213.03	0.0308
213.398	0.0187
213.766	0.0104
214.133	0.0399
214.501	0.0262
214.869	0.0122
215.236	0.015
215.604	0.037
215.971	0.0467
216.338	0.0289
216.705	0.0503
217.072	0.023
217.439	0.045
217.806	0.0407
218.173	0.0413
218.54	0.0511
218.907	0.0845
219.273	0.0639
219.64	0.0926
220.006	0.0766
220.373	0.0853
220.739	0.1182
221.105	0.1428
221.471	0.1393
221.837	0.1623
222.203	0.1876
222.569	0.1798
222.935	0.1937
223.3	0.216
223.666	0.2415
224.031	0.2661
224.397	0.2883
224.762	0.3285
225.127	0.3348
225.493	0.3567
225.858	0.3849
226.223	0.3976
226.588	0.4233
226.952	0.4225
227.317	0.4761
227.682	0.473
228.046	0.4735
228.411	0.5013
228.775	0.5136
229.14	0.5186
229.504	0.5384
229.868	0.5448
230.232	0.5497
230.596	0.5649
230.96	0.5763
231.324	0.566
231.688	0.5842
232.052	0.5932
232.415	0.591
232.779	0.5955
233.142	0.5999
233.505	0.6096
233.869	0.6086
234.232	0.5978
234.595	0.596
234.958	0.6071
235.321	0.6086
235.684	0.5918
236.047	0.5922
236.409	0.5824
236.772	0.5891
237.134	0.5821
237.497	0.5892
237.859	0.5878
238.222	0.5757
238.584	0.5736
238.946	0.5703
239.308	0.5662
239.67	0.5616
240.032	0.5595
240.393	0.5553
240.755	0.5457
241.117	0.5561
241.478	0.5444
241.84	0.5444
242.201	0.5398
242.562	0.5332
242.924	0.5354
243.285	0.5221
243.646	0.5225
244.007	0.5184
244.368	0.5153
244.728	0.5135
245.089	0.511
245.45	0.5123
245.81	0.5065
246.171	0.5016
246.531	0.4914
246.891	0.4942
247.252	0.4894
247.612	0.4949
247.972	0.4878
248.332	0.4824
248.692	0.487
249.051	0.4812
249.411	0.4847
249.771	0.4834
250.13	0.4787
250.49	0.4749
250.849	0.4735
251.208	0.4744
251.568	0.4763
251.927	0.4724
252.286	0.4692
252.645	0.469
253.004	0.4666
253.363	0.4667
253.721	0.47
254.08	0.4678
254.439	0.4624
254.797	0.4598
255.155	0.4628
255.514	0.4581
255.872	0.457
256.23	0.4567
256.588	0.4589
256.946	0.4562
257.304	0.4522
257.662	0.4571
258.02	0.4511
258.377	0.4505
258.735	0.4498
259.093	0.4473
259.45	0.4461
259.807	0.4471
260.165	0.4494
260.522	0.4479
260.879	0.4393
261.236	0.4422
261.593	0.4398
261.95	0.4361
262.306	0.4384
262.663	0.4389
263.02	0.4362
263.376	0.4344
263.733	0.4334
264.089	0.4288
264.445	0.4284
264.802	0.4331
265.158	0.4265
265.514	0.4257
265.87	0.4216
266.226	0.4237
266.581	0.4201
266.937	0.4173
267.293	0.4153
267.648	0.4113
268.004	0.4116
268.359	0.408
268.714	0.4035
269.07	0.4048
269.425	0.4054
269.78	0.4001
270.135	0.3991
270.49	0.3952
270.844	0.3973
271.199	0.3946
271.554	0.3903
271.908	0.3889
272.263	0.3887
272.617	0.3854
272.972	0.3829
273.326	0.379
273.68	0.3776
274.034	0.3773
274.388	0.3773
274.742	0.3724
275.096	0.3661
275.45	0.3671
275.803	0.3648
276.157	0.3598
276.51	0.357
276.864	0.3544
277.217	0.3574
277.571	0.3526
277.924	0.3454
278.277	0.3448
278.63	0.3421
278.983	0.3366
279.336	0.3376
279.688	0.3334
280.041	0.3313
280.394	0.3267
280.746	0.3228
281.099	0.321
281.451	0.3165
281.803	0.3157
282.156	0.3123
282.508	0.3102
282.86	0.3053
283.212	0.3027
283.564	0.2983
283.916	0.2946
284.267	0.2946
284.619	0.293
284.971	0.2883
285.322	0.2866
285.673	0.2801
286.025	0.2777
286.376	0.2768
286.727	0.2726
287.078	0.268
287.429	0.2684
287.78	0.2627
288.131	0.2617
288.482	0.2568
288.833	0.253
289.183	0.2497
289.534	0.2475
289.884	0.2457
290.235	0.24
290.585	0.2392
290.935	0.2352
291.285	0.2329
291.635	0.2302
291.985	0.2279
292.335	0.2232
292.685	0.2207
293.035	0.2175
293.384	0.2141
293.734	0.2105
294.083	0.2083
294.433	0.2068
294.782	0.2035
295.131	0.1987
295.48	0.1973
295.829	0.1937
296.179	0.1928
296.527	0.1882
296.876	0.1857
297.225	0.1829
297.574	0.1798
297.922	0.1778
298.271	0.1745
298.619	0.1719
298.968	0.1705
299.316	0.1669
299.664	0.166
300.012	0.1627
300.36	0.1595
300.708	0.157
301.056	0.1558
301.404	0.1528
301.752	0.1518
302.099	0.149
302.447	0.1467
302.794	0.1461
303.142	0.1434
303.489	0.1414
303.836	0.139
304.183	0.1381
304.531	0.1366
304.878	0.1344
305.224	0.1326
305.571	0.1319
305.918	0.1291
306.265	0.1273
306.611	0.1262
306.958	0.1265
307.304	0.1242
307.651	0.123
307.997	0.1223
308.343	0.1202
308.689	0.1204
309.035	0.1195
309.381	0.1169
309.727	0.1173
310.073	0.1159
310.419	0.1156
310.764	0.1157
311.11	0.1132
311.455	0.1135
311.801	0.1127
312.146	0.1123
312.491	0.112
312.837	0.1117
313.182	0.1115
313.527	0.11
313.872	0.1104
314.216	0.111
314.561	0.1105
314.906	0.1091
315.251	0.1098
315.595	0.1104
315.94	0.1096
316.284	0.1103
316.628	0.1098
316.972	0.1105
317.317	0.1096
317.661	0.1099
318.005	0.1103
318.348	0.1103
318.692	0.1113
319.036	0.1113
319.38	0.1123
319.723	0.1117
320.067	0.1127
320.41	0.1138
320.754	0.1137
321.097	0.1126
321.44	0.1139
321.783	0.1148
322.126	0.1163
322.469	0.1157
322.812	0.117
323.155	0.1179
323.498	0.1178
323.84	0.1185
324.183	0.1195
324.525	0.1201
324.868	0.1219
325.21	0.1216
325.552	0.1222
325.894	0.1235
326.236	0.1238
326.578	0.1248
326.92	0.1254
327.262	0.1258
327.604	0.1274
327.946	0.1274
328.287	0.129
328.629	0.13
328.97	0.1303
329.312	0.1313
329.653	0.1329
329.994	0.1334
330.335	0.1345
330.676	0.1361
331.017	0.1371
331.358	0.1381
331.699	0.1387
332.04	0.1396
332.38	0.1403
332.721	0.1413
333.061	0.1424
333.402	0.144
333.742	0.1445
334.083	0.1452
334.423	0.146
334.763	0.1469
335.103	0.1474
335.443	0.1483
335.783	0.1495
336.123	0.1498
336.462	0.1508
336.802	0.152
337.141	0.1531
337.481	0.1533
337.82	0.1547
338.16	0.1553
338.499	0.1558
338.838	0.1564
339.177	0.1572
339.516	0.158
339.855	0.1585
340.194	0.1599
340.533	0.1603
340.872	0.1599
341.21	0.1611
341.549	0.1617
341.887	0.1622
342.226	0.1627
342.564	0.1632
342.902	0.1637
343.24	0.1638
343.578	0.1642
343.916	0.1635
344.254	0.1648
344.592	0.1655
344.93	0.1659
345.268	0.1651
345.605	0.1656
345.943	0.1657
346.28	0.1658
346.618	0.1656
346.955	0.1665
347.292	0.1669
347.629	0.166
347.966	0.1665
348.303	0.1666
348.64	0.1664
348.977	0.1661
349.314	0.1668
349.65	0.1664
349.987	0.1676
350.324	0.1664
350.66	0.1674
350.996	0.1662
351.333	0.1655
351.669	0.1653
352.005	0.1656
352.341	0.1641
352.677	0.1638
353.013	0.1637
353.349	0.1633
353.685	0.1618
354.02	0.1614
354.356	0.1608
354.691	0.1601
355.027	0.1597
355.362	0.159
355.697	0.1587
356.033	0.1583
356.368	0.1564
356.703	0.1562
357.038	0.1566
357.373	0.1548
357.707	0.1554
358.042	0.1544
358.377	0.1531
358.711	0.1535
359.046	0.1518
359.38	0.1516
359.715	0.1511
360.049	0.1501
360.383	0.1494
360.717	0.148
361.051	0.1475
361.385	0.147
361.719	0.1456
362.053	0.1452
362.387	0.1434
362.72	0.1417
363.054	0.1413
363.387	0.1401
363.721	0.1388
364.054	0.1378
364.387	0.1363
364.721	0.1352
365.054	0.135
365.387	0.1334
365.72	0.1323
366.053	0.1312
366.385	0.1299
366.718	0.1288
367.051	0.128
367.383	0.1266
367.716	0.1268
368.048	0.1254
368.381	0.1246
368.713	0.1234
369.045	0.1232
369.377	0.1224
369.709	0.1214
370.041	0.1202
370.373	0.1197
370.705	0.1179
371.037	0.1169
371.368	0.1158
371.7	0.1143
372.031	0.1132
372.363	0.1125
372.694	0.1118
373.025	0.11
373.356	0.1089
373.688	0.1076
374.019	0.1064
374.35	0.1047
374.68	0.1035
375.011	0.1023
375.342	0.1011
375.673	0.0997
376.003	0.0984
376.334	0.0978
376.664	0.0964
376.995	0.095
377.325	0.094
377.655	0.0926
377.985	0.0913
378.315	0.0909
378.645	0.0904
378.975	0.0897
379.305	0.0877
379.635	0.0873
379.964	0.086
380.294	0.0859
380.623	0.0845
380.953	0.0834
381.282	0.0833
381.611	0.0825
381.941	0.082
382.27	0.0806
382.599	0.0802
382.928	0.0786
383.257	0.0773
383.585	0.0774
383.914	0.0753
384.243	0.0742
384.571	0.0737
384.9	0.0725
385.228	0.0708
385.557	0.0711
385.885	0.0688
386.213	0.0686
386.541	0.0672
386.869	0.0663
387.197	0.0648
387.525	0.0636
387.853	0.0627
388.181	0.0618
388.508	0.0615
388.836	0.0601
389.164	0.0593
389.491	0.0587
389.818	0.0571
390.146	0.0568
390.473	0.0559
390.8	0.0558
391.127	0.0546
391.454	0.054
391.781	0.054
392.108	0.0527
392.435	0.0512
392.761	0.051
393.088	0.0505
393.415	0.0504
393.741	0.0502
394.067	0.0499
394.394	0.0496
394.72	0.0476
395.046	0.047
395.372	0.0471
395.698	0.0459
396.024	0.0449
396.35	0.0449
396.676	0.0447
397.001	0.044
397.327	0.0428
397.653	0.0425
397.978	0.0413
398.303	0.0402
398.629	0.0401
398.954	0.0401
399.279	0.0405
399.604	0.039
399.929	0.0392
400.254	0.0385
400.579	0.0375
400.904	0.0373
401.229	0.0371
401.553	0.0369
401.878	0.0365
402.202	0.0368
402.527	0.0358
402.851	0.0358
403.175	0.0348
403.5	0.0348
403.824	0.0339
404.148	0.0341
404.472	0.0339
404.796	0.0338
405.119	0.0334
405.443	0.0334
405.767	0.0333
406.09	0.033
406.414	0.032
406.737	0.0333
407.061	0.0325
407.384	0.0323
407.707	0.0319
408.03	0.0318
408.353	0.0312
408.676	0.0317
408.999	0.0319
409.322	0.0314
409.645	0.0313
409.968	0.0316
410.29	0.0319
410.613	0.0324
410.935	0.0309
411.258	0.0316
411.58	0.0304
411.902	0.0308
412.224	0.0308
412.546	0.0314
412.868	0.0318
413.19	0.0306
413.512	0.0309
413.834	0.0307
414.156	0.0314
414.477	0.03
414.799	0.0308
415.121	0.0301
415.442	0.0309
415.763	0.0299
416.085	0.0306
416.406	0.0303
416.727	0.0305
417.048	0.0311
417.369	0.0306
417.69	0.0302
418.011	0.0306
418.331	0.0308
418.652	0.0303
418.973	0.0305
419.293	0.0311
419.614	0.03
419.934	0.0306
420.254	0.0302
420.574	0.0297
420.895	0.0293
421.215	0.0301
421.535	0.0298
421.855	0.0292
422.174	0.0293
422.494	0.0297
422.814	0.0295
423.134	0.0297
423.453	0.03
423.773	0.0307
424.092	0.0302
424.411	0.0302
424.731	0.0296
425.05	0.03
425.369	0.0302
425.688	0.0302
426.007	0.0305
426.326	0.0298
426.644	0.0299
426.963	0.0298
427.282	0.0304
427.6	0.0307
427.919	0.0304
428.237	0.0305
428.556	0.0303
428.874	0.0299
429.192	0.0298
429.51	0.0299
429.828	0.03
430.146	0.0301
430.464	0.0293
430.782	0.0298
431.1	0.0293
431.418	0.0298
431.735	0.0293
432.053	0.0303
432.37	0.03
432.688	0.0291
433.005	0.0295
433.322	0.0305
433.639	0.0302
433.957	0.0301
434.274	0.0305
434.591	0.0305
434.907	0.0298
435.224	0.0302
435.541	0.0303
435.858	0.0308
436.174	0.03
436.491	0.0292
436.807	0.029
437.124	0.0292
437.44	0.0296
437.756	0.0302
438.072	0.0295
438.388	0.0294
438.704	0.0292
439.02	0.0296
439.336	0.0291
439.652	0.0294
439.968	0.0291
440.283	0.0296
440.599	0.0295
440.914	0.0296
441.23	0.0292
441.545	0.0292
441.86	0.0293
442.175	0.0296
442.491	0.029
442.806	0.0286
443.121	0.0285
443.435	0.0283
443.75	0.0281
444.065	0.0281
444.38	0.0285
444.694	0.028
445.009	0.0284
445.323	0.0287
445.638	0.0282
445.952	0.0285
446.266	0.0271
446.58	0.0271
446.894	0.0276
447.208	0.0267
447.522	0.0273
447.836	0.0271
448.15	0.0265
448.464	0.0267
448.777	0.0278
449.091	0.0268
449.404	0.027
449.718	0.0266
450.031	0.0263
450.345	0.0274
450.658	0.0263
450.971	0.0269
451.284	0.0266
451.597	0.027
451.91	0.0265
452.223	0.0265
452.535	0.0262
452.848	0.0265
453.161	0.0261
453.473	0.0267
453.786	0.0261
454.098	0.0261
454.411	0.0258
454.723	0.0266
455.035	0.0256
455.347	0.0252
455.659	0.0262
455.971	0.0262
456.283	0.0258
456.595	0.0258
456.907	0.0254
457.218	0.0257
457.53	0.0245
457.841	0.0253
458.153	0.0245
458.464	0.0246
458.776	0.0249
459.087	0.0246
459.398	0.0239
459.709	0.0233
460.02	0.0246
460.331	0.0244
460.642	0.0239
460.953	0.0238
461.263	0.0237
461.574	0.0228
461.885	0.0238
462.195	0.0232
462.506	0.0235
462.816	0.0241
463.126	0.0228
463.437	0.0224
463.747	0.0218
464.057	0.0218
464.367	0.0209
464.677	0.0224
464.987	0.0217
465.296	0.0208
465.606	0.0209
465.916	0.0208
466.225	0.0208
466.535	0.0209
466.844	0.0215
467.154	0.0219
467.463	0.0216
467.772	0.0214
468.081	0.0213
468.39	0.0205
468.699	0.0209
469.008	0.0204
469.317	0.021
469.626	0.0208
469.935	0.0193
470.243	0.0207
470.552	0.0204
470.86	0.0207
471.169	0.0199
471.477	0.0198
471.785	0.0191
472.093	0.019
472.402	0.0189
472.71	0.0189
473.018	0.0178
473.326	0.0191
473.633	0.0187
473.941	0.0179
474.249	0.019
474.556	0.018
474.864	0.0175
475.171	0.0177
475.479	0.0172
475.786	0.019
476.094	0.0179
476.401	0.0179
476.708	0.0172
477.015	0.0171
477.322	0.0161
477.629	0.0163
477.936	0.0167
478.242	0.0159
478.549	0.017
478.856	0.0165
479.162	0.0171
479.469	0.0159
479.775	0.0161
480.081	0.0154
480.388	0.0147
480.694	0.0153
481	0.0156
481.306	0.016
481.612	0.0157
481.918	0.0159
482.224	0.0157
482.53	0.0152
482.835	0.015
483.141	0.0152
483.446	0.0147
483.752	0.014
484.057	0.0142
484.363	0.0136
484.668	0.0137
484.973	0.0138
485.278	0.0129
485.583	0.0126
485.888	0.0125
486.193	0.0115
486.498	0.0125
486.803	0.013
487.107	0.012
487.412	0.0108
487.717	0.0117
488.021	0.0121
488.325	0.0119
488.63	0.0117
488.934	0.0113
489.238	0.0112
489.542	0.0114
489.846	0.0116
490.15	0.0117
490.454	0.012
490.758	0.0111
491.062	0.0108
491.366	0.0105
491.669	0.0111
491.973	0.011
492.276	0.0103
492.58	0.01
492.883	0.0107
493.186	0.0098
493.489	0.0115
493.792	0.0091
494.096	0.0094
494.399	0.009
494.701	0.0087
495.004	0.0089
495.307	0.009
495.61	0.009
495.912	0.0098
496.215	0.0091
496.517	0.0095
496.82	0.0086
497.122	0.0088
497.424	0.0085
497.727	0.0083
498.029	0.0093
498.331	0.01
498.633	0.0083
498.935	0.0085
499.237	0.0091
499.538	0.0083
499.84	0.0079
500.142	0.0081
500.443	0.0081
500.745	0.0082
501.046	0.0072
501.348	0.0071
501.649	0.0068
501.95	0.0076
502.251	0.0081
502.552	0.007
502.853	0.0077
503.154	0.0082
503.455	0.0074
503.756	0.0073
504.057	0.0068
504.357	0.0065
504.658	0.007
504.958	0.0065
505.259	0.0062
505.559	0.0055
505.859	0.0054
506.16	0.0058
506.46	0.0061
506.76	0.0059
507.06	0.0049
507.36	0.0051
507.66	0.0061
507.96	0.0071
508.259	0.0055
508.559	0.0061
508.859	0.0058
509.158	0.0064
509.457	0.005
509.757	0.0053
510.056	0.0056
510.355	0.0061
510.655	0.0044
510.954	0.0051
511.253	0.0055
511.552	0.0056
511.851	0.0054
512.149	0.0041
512.448	0.0048
512.747	0.0052
513.045	0.0047
513.344	0.004
513.642	0.0054
513.941	0.0051
514.239	0.0048
514.537	0.0044
514.836	0.0044
515.134	0.0042
515.432	0.0038
515.73	0.0039
516.028	0.0041
516.326	0.0038
516.623	0.0037
516.921	0.0035
517.219	0.0048
517.516	0.0033
517.814	0.0051
518.111	0.0045
518.409	0.0047
518.706	0.005
519.003	0.0042
519.3	0.0033
519.597	0.0038
519.894	0.0035
520.191	0.0048
520.488	0.0049
520.785	0.004
521.082	0.0049
521.378	0.0044
521.675	0.0037
521.971	0.0035
522.268	0.0048
522.564	0.0036
522.861	0.0044
523.157	0.0034
523.453	0.0043
523.749	0.0044
524.045	0.0032
524.341	0.0041
524.637	0.0033
524.933	0.0041
525.229	0.0033
525.524	0.004
525.82	0.0041
526.115	0.004
526.411	0.0038
526.706	0.0036
527.002	0.0035
527.297	0.0026
527.592	0.0034
527.887	0.0033
528.182	0.003
528.477	0.0044
528.772	0.0026
529.067	0.0032
529.362	0.0036
529.657	0.0036
529.951	0.0033
530.246	0.0031
530.54	0.0038
530.835	0.0035
531.129	0.0043
531.423	0.0034
531.718	0.003
532.012	0.0034
532.306	0.004
532.6	0.0042
532.894	0.0032
533.188	0.0032
533.482	0.0032
533.775	0.0031
534.069	0.0035
534.363	0.0029
534.656	0.0029
534.95	0.004
535.243	0.0024
535.536	0.003
535.83	0.0031
536.123	0.002
536.416	0.0033
536.709	0.003
537.002	0.0037
537.295	0.0029
537.588	0.0032
537.881	0.0021
538.173	0.0036
538.466	0.0033
538.759	0.0029
539.051	0.0027
539.344	0.0039
539.636	0.0024
539.928	0.0044
540.22	0.0023
540.513	0.0037
540.805	0.0042
541.097	0.0034
541.389	0.0025
541.681	0.0039
541.972	0.0025
542.264	0.0035
542.556	0.0038
542.847	0.0026
543.139	0.0036
543.431	0.0026
543.722	0.0034
544.013	0.0028
544.305	0.0027
544.596	0.0032
544.887	0.0029
545.178	0.0044
545.469	0.0029
545.76	0.0042
546.051	0.0039
546.342	0.0027
546.632	0.003
546.923	0.0031
547.214	0.0025
547.504	0.0038
547.795	0.0028
548.085	0.0034
548.375	0.0044
548.666	0.0041
548.956	0.0053
549.246	0.006
549.536	0.0043
549.826	0.0057
550.116	0.0054
550.406	0.0045
550.695	0.005
550.985	0.0035
551.275	0.0048
551.564	0.005
551.854	0.005
552.143	0.0049
552.433	0.0049
552.722	0.0041
553.011	0.0049
553.3	0.004
553.589	0.0054
553.879	0.0049
554.167	0.0042
554.456	0.0036
554.745	0.0046
555.034	0.0053
555.323	0.004
555.611	0.0039
555.9	0.0036
556.188	0.003
556.477	0.0021
556.765	0.0046
557.053	0.0041
557.342	0.003
557.63	0.0036
557.918	0.0045
558.206	0.0046
558.494	0.0046
558.782	0.0045
559.069	0.006
559.357	0.0041
559.645	0.0036
559.932	0.004
560.22	0.0042
560.507	0.0017
560.795	0.0024
561.082	0.0028
561.37	0.0033
561.657	0.0022
561.944	0.0035
562.231	0.003
562.518	0.0037
562.805	0.0048
563.092	0.002
563.379	0.0034
563.665	0.0036
563.952	0.0046
564.239	0.0043
564.525	0.0044
564.811	0.0045
565.098	0.0035
565.384	0.004
565.67	0.005
565.957	0.0044
566.243	0.005
566.529	0.0048
566.815	0.0047
567.101	0.005
567.387	0.0051
567.672	0.0043
567.958	0.0033
568.244	0.0033
568.529	0.0035
568.815	0.0039
569.1	0.003
569.386	0.0034
569.671	0.0031
569.956	0.0031
570.242	0.0026
570.527	0.0024
570.812	0.0027
571.097	0.0016
571.382	0.0018
571.666	0.0019
571.951	0.0033
572.236	0.0021
572.521	0.0031
572.805	0.0033
573.09	0.0026
573.374	0.002
573.659	0.002
573.943	0.0025
574.227	0.0029
574.511	0.0029
574.795	0.0027
575.079	0.0029
575.363	0.0024
575.647	0.0022
575.931	0.0036
576.215	0.0032
576.499	0.0024
576.782	0.0024
577.066	0.0025
577.349	0.0032
577.633	0.0033
577.916	0.0028
578.2	0.0029
578.483	0.0031
578.766	0.0038
579.049	0.0033
579.332	0.0028
579.615	0.0025
579.898	0.0025
580.181	0.0025
580.464	0.0031
580.746	0.0026
581.029	0.0031
581.312	0.0015
581.594	0.0008
581.877	0.0029
582.159	0.0039
582.441	0.0022
582.724	0.0035
583.006	0.0038
583.288	0.004
583.57	0.0029
583.852	0.0035
584.134	0.004
584.416	0.0025
584.697	0.0031
584.979	0.002
585.261	0.0023
585.542	0.0024
585.824	0.003
586.105	0.0028
586.387	0.0028
586.668	0.0037
586.949	0.0045
587.231	0.0037
587.512	0.003
587.793	0.0032
588.074	0.0035
588.355	0.0038
588.636	0.0033
588.916	0.0036
589.197	0.0032
589.478	0.0039
589.758	0.0028
590.039	0.0019
590.319	0.0019
590.6	0.0021
590.88	0.0025
591.16	0.002
591.441	0.0035
591.721	0.0029
592.001	0.0025
592.281	0.0036
592.561	0.0025
592.841	0.0028
593.12	0.0022
593.4	0.0031
593.68	0.0028
593.959	0.0029
594.239	0.0043
594.518	0.0048
594.798	0.0041
595.077	0.0027
595.356	0.003
595.636	0.0038
595.915	0.003
596.194	0.0037
596.473	0.0038
596.752	0.0031
597.031	0.0031
597.31	0.0025
597.588	0.0025
597.867	0.0025
598.146	0.0027
598.424	0.0014
598.703	0.0021
598.981	0.0017
599.259	0.0016
599.538	0.003
599.816	0.0031
600.094	0.0025
600.372	0.0024
600.65	0.0034
600.928	0.0033
601.206	0.003
601.484	0.0032
601.762	0.004
602.04	0.0043
602.317	0.0044
602.595	0.005
602.872	0.0044
603.15	0.0043
603.427	0.0019
603.704	0.002
603.982	0.0019
604.259	0.0023
604.536	0.0025
604.813	0.0027
605.09	0.0024
605.367	0.0015
605.644	0.0014
605.921	0.0016
606.197	0.0012
606.474	0.0023
606.751	0.0012
607.027	0.0016
607.304	0.0016
607.58	0.0028
607.856	0.0031
608.133	0.0034
608.409	0.0041
608.685	0.0038
608.961	0.0033
609.237	0.0034
609.513	0.0043
609.789	0.0028
610.065	0.0027
610.341	0.0023
610.616	0.003
610.892	0.0029
611.167	0.0034
611.443	0.0034
611.718	0.0033
611.994	0.0024
612.269	0.002
612.544	0.0033
612.819	0.0018
613.095	0.0016
613.37	0.0018
613.645	0.0016
613.919	0.0027
614.194	0.0024
614.469	0.0026
614.744	0.0015
615.019	0.001
615.293	0.0016
615.568	0.002
615.842	0.002
616.116	0.0019
616.391	0.0013
616.665	0.0008
616.939	0.001
617.213	0.0023
617.488	0.0027
617.762	0.0031
618.035	0.0031
618.309	0.0026
618.583	0.0034
618.857	0.0032
619.131	0.0032
619.404	0.0034
619.678	0.0035
619.951	0.0024
620.225	0.002
620.498	0.0018
620.771	0.0016
621.045	0.0022
621.318	0.0029
621.591	0.0023
621.864	0.0014
622.137	0.0009
622.41	0.002
622.683	0.0028
622.956	0.0025
623.228	0.0029
623.501	0.0026
623.774	0.0043
624.046	0.0041
624.319	0.0038
624.591	0.0027
624.863	0.003
625.136	0.0044
625.408	0.0045
625.68	0.0037
625.952	0.0037
626.224	0.0049
626.496	0.0035
626.768	0.0045
627.04	0.0039
627.311	0.0031
627.583	0.0043
627.855	0.004
628.126	0.0045
628.398	0.0033
628.669	0.0032
628.941	0.0025
629.212	0.0021
629.483	0.0025
629.755	0.003
630.026	0.0023
630.297	0.0024
630.568	0.0045
630.839	0.0049
631.11	0.0051
631.38	0.0043
631.651	0.0042
631.922	0.0051
632.192	0.0039
632.463	0.0049
632.733	0.0041
633.004	0.0049
633.274	0.0043
633.545	0.0043
633.815	0.0058
634.085	0.0057
634.355	0.005
634.625	0.0051
634.895	0.0049
635.165	0.0035
635.435	0.0044
635.705	0.0034
635.974	0.0031
636.244	0.0027
636.514	0.0022
636.783	0.0024
637.053	0.0027
637.322	0.0027
637.591	0.0024
637.861	0.0011
638.13	0.0023
638.399	0.0043
638.668	0.0032
638.937	0.0045
639.206	0.0044
639.475	0.0061
639.744	0.0044
640.013	0.004
640.281	0.0038
640.55	0.0042
640.819	0.0031
641.087	0.0033
641.356	0.0036
641.624	0.0045
641.892	0.005
642.161	0.0053
642.429	0.0054
642.697	0.0048
642.965	0.0049
643.233	0.0021
643.501	0.0034
643.769	0.0033
644.037	0.0035
644.305	0.0032
644.572	0.0033
644.84	0.0026
645.108	0.0033
645.375	0.0036
645.643	0.0041
645.91	0.0035
646.177	0.0032
646.445	0.003
646.712	0.0036
646.979	0.0032
647.246	0.0042
647.513	0.003
647.78	0.0033
648.047	0.0028
648.314	0.0012
648.58	0.0007
648.847	-0.0004
649.114	-0.0006
649.38	-0.0002
649.647	0.0003
649.913	0.0016
650.18	0.0023
650.446	0.0036
650.712	0.0033
650.978	0.0031
651.245	0.0031
651.511	0.0054
651.777	0.0052
652.043	0.0037
652.309	0.0039
652.574	0.0035
652.84	0.0044
653.106	0.0036
653.371	0.0065
653.637	0.0055
653.903	0.0059
654.168	0.0051
654.433	0.0048
654.699	0.0049
654.964	0.0031
655.229	0.0034
655.494	0.0031
655.759	-0.0011
656.024	0.0002
656.289	-0
656.554	0.0024
656.819	0.0044
657.084	0.0055
657.349	0.0056
657.613	0.0053
657.878	0.0042
658.142	0.0027
658.407	0.003
658.671	0.0032
658.936	0.0031
659.2	0.0038
659.464	0.0035
659.728	0.0037
659.992	0.0033
660.256	0.0022
660.52	0.0028
660.784	0.0032
661.048	0.0037
661.312	0.0048
661.575	0.0039
661.839	0.006
662.103	0.0047
662.366	0.0038
662.63	0.0034
662.893	0.0027
663.156	0.0046
663.42	0.0053
663.683	0.0047
663.946	0.0051
664.209	0.0057
664.472	0.0052
664.735	0.0054
664.998	0.0066
665.261	0.006
665.524	0.0059
665.786	0.006
666.049	0.0062
666.312	0.0054
666.574	0.0042
666.837	0.006
667.099	0.0053
667.361	0.006
667.624	0.0051
667.886	0.0054
668.148	0.0052
668.41	0.0061
668.672	0.0063
668.934	0.0056
669.196	0.0051
669.458	0.004
669.72	0.0029
669.982	0.0031
670.243	0.0029
670.505	0.0031
670.766	0.0026
671.028	0.0038
671.289	0.004
671.551	0.0041
671.812	0.0021
672.073	0.0036
672.334	0.0035
672.596	0.0026
672.857	0.0036
673.118	0.0049
673.379	0.0056
673.639	0.0055
673.9	0.0056
674.161	0.0058
674.422	0.0066
674.682	0.0054
674.943	0.0046
675.203	0.0057
675.464	0.0046
675.724	0.0034
675.985	0.0035
676.245	0.0036
676.505	0.0032
676.765	0.0028
677.025	0.0041
677.285	0.0037
677.545	0.0036
677.805	0.0029
678.065	0.0033
678.325	0.0034
678.585	0.0051
678.844	0.0044
679.104	0.0054
679.363	0.0058
679.623	0.0059
679.882	0.005
680.142	0.0059
680.401	0.0053
680.66	0.0057
680.919	0.0052
681.178	0.0064
681.437	0.0051
681.696	0.0036
681.955	0.0064
682.214	0.0061
682.473	0.0064
682.732	0.0042
682.99	0.0072
683.249	0.0068
683.508	0.006
683.766	0.0051
684.024	0.0057
684.283	0.0041
684.541	0.003
684.799	0.0029
685.058	0.0007
685.316	0.0001
685.574	-0
685.832	0.0003
686.09	0.002
686.348	0.0013
686.606	0.0017
686.863	0.0018
687.121	0.0027
687.379	0.0027
687.636	0.0013
687.894	0.0022
688.151	0.0023
688.409	0.0028
688.666	0.0028
688.923	0.0029
689.181	0.0037
689.438	0.0024
689.695	0.0022
689.952	0.0023
690.209	0.0018
690.466	0.0022
690.723	0.0023
690.979	0.0031
691.236	0.0018
691.493	0.0001
691.75	0.0005
692.006	0.0008
692.263	0.0006
692.519	0.0002
692.775	-0.0005
693.032	-0.0005
693.288	-0.0013
693.544	-0.0012
693.8	0.0012
694.056	0.0014
694.313	0.0016
694.568	0.002
694.824	0.0014
695.08	0.0008
695.336	0.0015
695.592	0.0011
695.847	0.0023
696.103	0.0034
696.359	0.0041
696.614	0.0042
696.869	0.0024
697.125	0.0005
697.38	0.0011
697.635	0.0018
697.891	0.0036
698.146	0.0028
698.401	0.0028
698.656	0.0013
698.911	0.0025
699.166	0.0029
699.42	0.0033
699.675	0.0044
699.93	0.0047
700.185	0.0047
700.439	0.0041
700.694	0.0032
700.948	0.0028
701.203	0.0028
701.457	0.0023
701.711	0.003
701.965	0.0019
702.22	0.0014
702.474	0.0012
702.728	0.0018
702.982	0.0015
703.236	0.0023
703.49	0.0036
703.743	0.0031
703.997	0.0031
704.251	0.0019
704.504	0.002
704.758	0.0008
705.012	0.0016
705.265	0.0025
705.518	0.0029
705.772	0.0032
706.025	0.0032
706.278	0.0034
706.531	0.003
706.785	0.0017
707.038	0.0002
707.291	0.0009
707.543	0.0002
707.796	0.0005
708.049	0.0001
708.302	0.0007
708.555	0.0009
708.807	0.0017
709.06	0.0021
709.312	0.0036
709.565	0.0036
709.817	0.0054
710.069	0.0042
710.322	0.0044
710.574	0.0032
710.826	0.0025
711.078	0.0021
711.33	0.002
711.582	0.0012
711.834	0.002
712.086	0.0014
712.338	0.0013
712.59	-0.0003
712.841	-0.0009
713.093	-0.0007
713.344	0.0013
713.596	-0.0005
713.847	-0.0003
714.099	0.0003
714.35	0.0018
714.601	0.0004
714.853	0.0004
715.104	0.0005
715.355	-0.0002
715.606	0.0022
715.857	0.0029
716.108	0.0033
716.359	0.0042
716.609	0.0023
716.86	0.0036
717.111	0.0036
717.361	0.0027
717.612	0.0024
717.863	0.0025
718.113	0.0035
718.363	0.0024
718.614	0.0029
718.864	0.0033
719.114	0.0032
719.364	0.0024
719.614	0.0023
719.865	0.002
720.114	0.0033
720.364	0.004
720.614	0.0033
720.864	0.0028
721.114	0.0022
721.364	0.002
721.613	0.0013
721.863	0.0017
722.112	0.0016
722.362	0.0017
722.611	0.0027
722.86	0.0029
723.11	0.0035
723.359	0.003
723.608	0.0029
723.857	0.0033
724.106	0.0015
724.355	0.0021
724.604	0.0019
724.853	0.0009
725.102	0.0001
725.351	-0.0003
725.599	-0.0017
725.848	-0.0004
726.097	0.0002
726.345	0.0001
726.594	0.0006
726.842	0.0019
727.09	0.0009
727.339	0.0004
727.587	0.0005
727.835	0.0006
728.083	0.0005
728.331	0.0007
728.579	0.0019
728.827	0.0003
729.075	-0.0003
729.323	-0.0004
729.571	-0.0013
729.818	-0.0024
730.066	-0.001
730.314	-0.0011
730.561	-0.0008
730.809	-0.0024
731.056	-0.0025
731.303	-0.0017
731.551	-0.0012
731.798	-0.0017
732.045	0.0003
732.292	-0.0007
732.539	-0.0003
732.786	-0.0009
733.033	-0.0013
733.28	-0.001
733.527	-0.001
733.774	-0.0022
734.021	-0.0019
734.267	-0.0008
734.514	-0.0011
734.76	-0.0006
735.007	0
735.253	0.0004
735.5	0.002
735.746	0.0025
735.992	0.0018
736.238	0.002
736.485	0.0012
736.731	0.0027
736.977	0.0017
737.223	0.001
737.469	0.0018
737.715	0.0029
737.96	0.0038
738.206	0.0032
738.452	0.0037
738.697	0.003
738.943	0.0015
739.189	0.0017
739.434	0.0009
739.679	0.0012
739.925	0.0034
740.17	0.0042
740.415	0.0031
740.66	0.0034
740.906	0.0032
741.151	0.0028
741.396	0.0022
741.641	0.0021
741.886	0.0015
742.13	-0.0002
742.375	0.0021
742.62	0.0006
742.865	0.0003
743.109	0.0014
743.354	0.0004
743.598	-0.0002
743.843	-0.0011
744.087	-0.0009
744.331	-0.0005
744.576	0.0008
744.82	0.0012
745.064	0.0017
745.308	0.0028
745.552	0.0021
745.796	0.0009
746.04	0.0003
746.284	-0.0001
746.528	0.0009
746.771	0.0008
747.015	0.0024
747.259	0.0012
747.502	0.0017
747.746	0.0022
747.989	0.0031
748.233	0.0047
748.476	0.0032
748.719	0.0034
748.963	0.0021
749.206	0.0012
749.449	0.0012
749.692	0.0002
749.935	0.0011
750.178	0.0016
750.421	0.0003
750.664	0.0016
750.906	0.0013
751.149	0.0012
751.392	0.0015
751.635	0.002
751.877	0.0028
752.12	0.0025
752.362	0.0036
752.604	0.0029
752.847	0.0013
753.089	0.0012
753.331	0.0012
753.573	0.0014
753.816	0.0025
754.058	0.0024
754.3	0.0028
754.542	0.0036
754.783	0.0028
755.025	0.004
755.267	0.0029
755.509	0.003
755.75	0.0006
755.992	0.0011
756.234	0.0018
756.475	0.003
756.716	0.003
756.958	0.0022
757.199	0.0025
757.44	0.0037
757.682	0.0018
757.923	0.0023
758.164	0.0042
758.405	0.0043
758.646	0.0052
758.887	0.004
759.128	0.005
759.369	0.0035
759.609	0.0031
759.85	0.0028
760.091	0.0026
760.331	0.004
760.572	0.0027
760.812	0.0025
761.053	0.0028
761.293	0.0036
761.533	0.0047
761.774	0.0047
762.014	0.0047
762.254	0.0041
762.494	0.0041
762.734	0.0035
762.974	0.0033
763.214	0.0026
763.454	0.003
763.694	0.002
763.933	0.0039
764.173	0.0049
764.413	0.0047
764.652	0.0022
764.892	0.0016
765.131	0.0013
765.371	0.0014
765.61	0.0007
765.849	-0.0003
766.089	-0.0005
766.328	0.0006
766.567	-0.0006
766.806	-0.0007
767.045	-0.0002
767.284	0.0011
767.523	0.0007
767.762	0
768.001	0.0001
768.239	-0.0001
768.478	-0.0003
768.717	-0.0006
768.955	-0.0002
769.194	0.0006
769.432	0.0011
769.671	0.0009
769.909	0.0012
770.148	0.0012
770.386	0.0012
770.624	0.0006
770.862	-0.0005
771.1	-0.0005
771.338	-0.0004
771.576	-0.0006
771.814	-0.0001
772.052	0.0002
772.29	0.0023
772.528	0.0016
772.765	0.0011
773.003	0.002
773.24	0.0025
773.478	0.0024
773.716	0.0037
773.953	0.0028
774.19	0.0027
774.428	0.0038
774.665	0.0044
774.902	0.0042
775.139	0.0032
775.376	0.0033
775.613	0.0052
775.85	0.0061
776.087	0.0066
776.324	0.0061
776.561	0.0054
776.798	0.005
777.034	0.0044
777.271	0.0037
777.508	0.0037
777.744	0.0044
777.981	0.0055
778.217	0.0039
778.454	0.0042
778.69	0.0037
778.926	0.0033
779.162	0.004
779.399	0.0049
779.635	0.0042
779.871	0.003
780.107	0.004
780.343	0.0029
780.579	0.0032
780.814	0.0046
781.05	0.0041
781.286	0.0034
781.522	0.0023
781.757	0.0017
781.993	0.0025
782.228	0.0016
782.464	0.0022
782.699	0.0019
782.934	0.0011
783.17	0.0015
783.405	0.0023
783.64	0.0022
783.875	0.0013
784.11	0.0013
784.345	0.0016
784.58	0.0027
784.815	0.0022
785.05	0.0028
785.285	0.0013
785.52	0.0025
785.754	0.002
785.989	0.0033
786.223	0.0039
786.458	0.0043
786.692	0.0045
786.927	0.006
787.161	0.005
787.396	0.0055
787.63	0.005
787.864	0.0039
788.098	0.0024
788.332	0.003
788.566	0.0029
788.8	0.0025
789.034	0.0031
789.268	0.0021
789.502	0.0023
789.736	0.0031
789.969	0.0039
790.203	0.0029
790.437	0.0032
790.67	0.004
790.904	0.0062
791.137	0.0068
791.37	0.0069
791.604	0.0068
791.837	0.0076
792.07	0.0077
792.303	0.0084
792.537	0.009
792.77	0.0077
793.003	0.0073
793.236	0.0056
793.469	0.0052
793.701	0.0035
793.934	0.0029
794.167	0.0022
794.4	0.0011
794.632	0.0004
794.865	0.0008
795.097	0.0016
795.33	0.0014
795.562	0.0016
795.795	0.001
796.027	0.0019
796.259	0.0032
796.491	0.0023
796.724	0.0022
796.956	0.0028
797.188	0.0024
797.42	0.002
797.652	0.0024
797.883	0.0028
798.115	0.0032
798.347	0.0035
798.579	0.0035
798.81	0.0023
799.042	0.0031
799.274	0.0041
799.505	0.003
799.737	0.0027
799.968	0.0016
800.199	0.002
800.431	0.0025
800.662	0.0007
800.893	0.0022
801.124	0.002
801.355	0.003
801.586	0.0043
801.817	0.0066
802.048	0.0062
802.279	0.0059
802.51	0.0074
802.741	0.0074
802.971	0.0064
803.202	0.0059
803.433	0.0044
803.663	0.0039
803.894	0.0035
804.124	0.0032
804.354	0.0037
804.585	0.004
804.815	0.0057
805.045	0.0056
805.275	0.0035
805.506	-0.004
805.736	-0.0584
805.966	-0.2409
806.196	-0.1255
