Data from 03 0.4 mM K2Cr2O7 0.25 M BQDS 1 M H2SO4 5 min_Absorbance_0278.txt Node
Date: Wed Dec 15 16:40:13 EST 2021
User: kwabilab-user
Spectrometer: HDX00518
Trigger mode: 0
Integration Time (sec): 5.000000E-2
Scans to average: 50
Nonlinearity correction enabled: false
Boxcar width: 0
Storing dark spectrum: false
XAxis mode: Wavelengths
Number of Pixels in Spectrum: 2068
>>>>>Begin Spectral Data<<<<<
195.27	-0.2813
195.642	0.0318
196.014	-0.1811
196.386	-0.0315
196.758	-0.0591
197.129	0.0241
197.501	-0.0298
197.872	0.0086
198.244	0.0215
198.615	0.0302
198.986	0.0227
199.357	0.0379
199.728	0.0397
200.099	0.0304
200.47	0.0197
200.841	0.0122
201.212	0.0208
201.582	0.0478
201.953	0.0346
202.323	0.0395
202.694	0.0341
203.064	0.0072
203.434	0.0198
203.804	0.0104
204.174	0.0233
204.544	0.0245
204.914	-0.0048
205.284	0.0221
205.653	0.0238
206.023	0.0099
206.393	0.0297
206.762	0.0263
207.131	0.0161
207.501	0.0156
207.87	0.0253
208.239	0.0268
208.608	0.0384
208.977	-0.0023
209.346	0.0218
209.715	0.0131
210.083	0.005
210.452	0.0204
210.82	0.0311
211.189	0.0026
211.557	0.0282
211.925	0.0214
212.294	0.0149
212.662	0.0187
213.03	0.0116
213.398	0.0135
213.766	0.0224
214.133	0.0299
214.501	0.0063
214.869	0.0259
215.236	0.0146
215.604	0.0238
215.971	0.0483
216.338	0.0437
216.705	0.0388
217.072	0.0338
217.439	0.0309
217.806	0.041
218.173	0.0588
218.54	0.0462
218.907	0.0674
219.273	0.0644
219.64	0.0802
220.006	0.0803
220.373	0.0849
220.739	0.1037
221.105	0.1198
221.471	0.154
221.837	0.1778
222.203	0.1844
222.569	0.178
222.935	0.2009
223.3	0.2239
223.666	0.2448
224.031	0.2595
224.397	0.2955
224.762	0.2829
225.127	0.3426
225.493	0.359
225.858	0.3849
226.223	0.4027
226.588	0.4108
226.952	0.4263
227.317	0.4701
227.682	0.4603
228.046	0.4768
228.411	0.5068
228.775	0.5112
229.14	0.52
229.504	0.5255
229.868	0.5423
230.232	0.545
230.596	0.5553
230.96	0.5813
231.324	0.5656
231.688	0.5866
232.052	0.6071
232.415	0.5905
232.779	0.5957
233.142	0.5978
233.505	0.5949
233.869	0.5996
234.232	0.5947
234.595	0.5975
234.958	0.5947
235.321	0.5976
235.684	0.5915
236.047	0.5909
236.409	0.5773
236.772	0.5888
237.134	0.5845
237.497	0.5796
237.859	0.5793
238.222	0.5872
238.584	0.5769
238.946	0.5611
239.308	0.5692
239.67	0.5665
240.032	0.5644
240.393	0.5522
240.755	0.5554
241.117	0.5484
241.478	0.5408
241.84	0.5414
242.201	0.5351
242.562	0.5296
242.924	0.5248
243.285	0.5169
243.646	0.5161
244.007	0.5138
244.368	0.5184
244.728	0.5143
245.089	0.5156
245.45	0.5037
245.81	0.5038
246.171	0.4994
246.531	0.4995
246.891	0.4915
247.252	0.492
247.612	0.4902
247.972	0.4916
248.332	0.4824
248.692	0.4861
249.051	0.4822
249.411	0.4841
249.771	0.4798
250.13	0.4771
250.49	0.4724
250.849	0.4769
251.208	0.4775
251.568	0.4714
251.927	0.4703
252.286	0.4707
252.645	0.4646
253.004	0.4657
253.363	0.4612
253.721	0.4686
254.08	0.4664
254.439	0.4586
254.797	0.4603
255.155	0.4554
255.514	0.4562
255.872	0.4571
256.23	0.4526
256.588	0.4559
256.946	0.456
257.304	0.4514
257.662	0.4559
258.02	0.4503
258.377	0.4512
258.735	0.4473
259.093	0.4444
259.45	0.4459
259.807	0.4478
260.165	0.4458
260.522	0.446
260.879	0.4421
261.236	0.4393
261.593	0.4371
261.95	0.4331
262.306	0.4335
262.663	0.4341
263.02	0.4332
263.376	0.4281
263.733	0.4263
264.089	0.4289
264.445	0.4246
264.802	0.4228
265.158	0.4251
265.514	0.4208
265.87	0.4136
266.226	0.4176
266.581	0.4205
266.937	0.4162
267.293	0.4124
267.648	0.4116
268.004	0.4081
268.359	0.4107
268.714	0.4061
269.07	0.4005
269.425	0.4037
269.78	0.4006
270.135	0.3984
270.49	0.3953
270.844	0.3973
271.199	0.3946
271.554	0.3888
271.908	0.3856
272.263	0.3873
272.617	0.3848
272.972	0.3803
273.326	0.377
273.68	0.377
274.034	0.3776
274.388	0.3734
274.742	0.3713
275.096	0.3668
275.45	0.3633
275.803	0.3632
276.157	0.3628
276.51	0.3544
276.864	0.3574
277.217	0.3542
277.571	0.3545
277.924	0.3463
278.277	0.3432
278.63	0.3387
278.983	0.34
279.336	0.3372
279.688	0.3307
280.041	0.3279
280.394	0.323
280.746	0.3211
281.099	0.3205
281.451	0.3171
281.803	0.3131
282.156	0.3086
282.508	0.3068
282.86	0.3038
283.212	0.301
283.564	0.2985
283.916	0.294
284.267	0.291
284.619	0.2918
284.971	0.2873
285.322	0.2843
285.673	0.2799
286.025	0.2767
286.376	0.2746
286.727	0.2721
287.078	0.2673
287.429	0.2655
287.78	0.2628
288.131	0.2607
288.482	0.2544
288.833	0.2528
289.183	0.2492
289.534	0.2451
289.884	0.2445
290.235	0.2411
290.585	0.2383
290.935	0.2346
291.285	0.2334
291.635	0.2285
291.985	0.2261
292.335	0.2217
292.685	0.2204
293.035	0.2154
293.384	0.2128
293.734	0.2121
294.083	0.2079
294.433	0.2061
294.782	0.2036
295.131	0.1973
295.48	0.1965
295.829	0.1936
296.179	0.1923
296.527	0.1881
296.876	0.1861
297.225	0.182
297.574	0.18
297.922	0.1774
298.271	0.174
298.619	0.1716
298.968	0.171
299.316	0.1687
299.664	0.1657
300.012	0.1633
300.36	0.1592
300.708	0.1576
301.056	0.1558
301.404	0.1534
301.752	0.1521
302.099	0.1495
302.447	0.1464
302.794	0.1453
303.142	0.1433
303.489	0.1402
303.836	0.1395
304.183	0.1369
304.531	0.1361
304.878	0.1336
305.224	0.1315
305.571	0.131
305.918	0.1291
306.265	0.1271
306.611	0.1267
306.958	0.1258
307.304	0.1242
307.651	0.1225
307.997	0.1215
308.343	0.1199
308.689	0.1195
309.035	0.1183
309.381	0.1173
309.727	0.1174
310.073	0.1164
310.419	0.1153
310.764	0.1148
311.11	0.114
311.455	0.113
311.801	0.112
312.146	0.1117
312.491	0.1116
312.837	0.1113
313.182	0.1101
313.527	0.1096
313.872	0.1096
314.216	0.1104
314.561	0.1101
314.906	0.1092
315.251	0.1098
315.595	0.1089
315.94	0.109
316.284	0.1091
316.628	0.1093
316.972	0.1099
317.317	0.1097
317.661	0.11
318.005	0.11
318.348	0.1103
318.692	0.1108
319.036	0.1106
319.38	0.1116
319.723	0.1109
320.067	0.1123
320.41	0.1121
320.754	0.1131
321.097	0.1121
321.44	0.1132
321.783	0.115
322.126	0.1151
322.469	0.1156
322.812	0.1164
323.155	0.1169
323.498	0.1173
323.84	0.1181
324.183	0.1191
324.525	0.1198
324.868	0.1207
325.21	0.1208
325.552	0.1221
325.894	0.1232
326.236	0.1231
326.578	0.125
326.92	0.1258
327.262	0.126
327.604	0.1266
327.946	0.1279
328.287	0.128
328.629	0.1298
328.97	0.1299
329.312	0.1312
329.653	0.1324
329.994	0.1333
330.335	0.1339
330.676	0.1356
331.017	0.1357
331.358	0.1375
331.699	0.1386
332.04	0.1396
332.38	0.1402
332.721	0.1414
333.061	0.1417
333.402	0.1435
333.742	0.1437
334.083	0.1446
334.423	0.1461
334.763	0.1476
335.103	0.1476
335.443	0.1484
335.783	0.1499
336.123	0.1494
336.462	0.1504
336.802	0.1509
337.141	0.1517
337.481	0.1527
337.82	0.1539
338.16	0.1546
338.499	0.1555
338.838	0.156
339.177	0.1578
339.516	0.1577
339.855	0.1582
340.194	0.1587
340.533	0.1592
340.872	0.1596
341.21	0.1607
341.549	0.1612
341.887	0.1619
342.226	0.1617
342.564	0.1627
342.902	0.1632
343.24	0.1636
343.578	0.164
343.916	0.1634
344.254	0.165
344.592	0.1653
344.93	0.1655
345.268	0.164
345.605	0.1649
345.943	0.1654
346.28	0.1659
346.618	0.1651
346.955	0.1652
347.292	0.1666
347.629	0.1657
347.966	0.1657
348.303	0.1661
348.64	0.1662
348.977	0.1662
349.314	0.1667
349.65	0.1658
349.987	0.1665
350.324	0.1656
350.66	0.1663
350.996	0.1664
351.333	0.1654
351.669	0.1648
352.005	0.1652
352.341	0.1639
352.677	0.1641
353.013	0.1625
353.349	0.1625
353.685	0.1612
354.02	0.1617
354.356	0.1615
354.691	0.1592
355.027	0.1595
355.362	0.1587
355.697	0.1578
356.033	0.1575
356.368	0.1569
356.703	0.1562
357.038	0.1562
357.373	0.1548
357.707	0.1542
358.042	0.1533
358.377	0.1525
358.711	0.1529
359.046	0.1512
359.38	0.1519
359.715	0.1508
360.049	0.149
360.383	0.1479
360.717	0.1475
361.051	0.1471
361.385	0.1462
361.719	0.1454
362.053	0.1447
362.387	0.1433
362.72	0.1417
363.054	0.1411
363.387	0.1401
363.721	0.1386
364.054	0.1373
364.387	0.1357
364.721	0.1346
365.054	0.1334
365.387	0.1326
365.72	0.1324
366.053	0.1311
366.385	0.1293
366.718	0.1288
367.051	0.1275
367.383	0.1266
367.716	0.1263
368.048	0.125
368.381	0.1247
368.713	0.1241
369.045	0.1221
369.377	0.1214
369.709	0.1203
370.041	0.1191
370.373	0.1187
370.705	0.1173
371.037	0.1158
371.368	0.1156
371.7	0.1145
372.031	0.1133
372.363	0.1114
372.694	0.1109
373.025	0.1096
373.356	0.1085
373.688	0.1073
374.019	0.1056
374.35	0.1045
374.68	0.1038
375.011	0.1014
375.342	0.1007
375.673	0.0994
376.003	0.0976
376.334	0.0975
376.664	0.0956
376.995	0.0947
377.325	0.093
377.655	0.0921
377.985	0.0909
378.315	0.0905
378.645	0.0896
378.975	0.0888
379.305	0.0876
379.635	0.0875
379.964	0.0868
380.294	0.0862
380.623	0.0847
380.953	0.0832
381.282	0.0835
381.611	0.0822
381.941	0.0815
382.27	0.0806
382.599	0.0798
382.928	0.078
383.257	0.0776
383.585	0.0767
383.914	0.0747
384.243	0.0741
384.571	0.0736
384.9	0.0722
385.228	0.0708
385.557	0.0706
385.885	0.0684
386.213	0.0685
386.541	0.0671
386.869	0.0662
387.197	0.0642
387.525	0.0637
387.853	0.0626
388.181	0.062
388.508	0.0615
388.836	0.0602
389.164	0.059
389.491	0.0583
389.818	0.057
390.146	0.0565
390.473	0.0557
390.8	0.0555
391.127	0.0539
391.454	0.0536
391.781	0.0537
392.108	0.0528
392.435	0.0515
392.761	0.0514
393.088	0.0502
393.415	0.0498
393.741	0.05
394.067	0.0497
394.394	0.0492
394.72	0.0474
395.046	0.0468
395.372	0.0467
395.698	0.0462
396.024	0.0459
396.35	0.0448
396.676	0.0441
397.001	0.0434
397.327	0.0427
397.653	0.0416
397.978	0.0416
398.303	0.0404
398.629	0.0399
398.954	0.0397
399.279	0.0397
399.604	0.039
399.929	0.0389
400.254	0.0376
400.579	0.0376
400.904	0.0374
401.229	0.0364
401.553	0.0372
401.878	0.0369
402.202	0.0366
402.527	0.0353
402.851	0.0358
403.175	0.0349
403.5	0.0343
403.824	0.0334
404.148	0.0341
404.472	0.0336
404.796	0.0335
405.119	0.0336
405.443	0.0334
405.767	0.0327
406.09	0.0333
406.414	0.0322
406.737	0.033
407.061	0.0325
407.384	0.0326
407.707	0.0318
408.03	0.0322
408.353	0.0312
408.676	0.0319
408.999	0.0317
409.322	0.0315
409.645	0.0315
409.968	0.0322
410.29	0.0313
410.613	0.0313
410.935	0.0308
411.258	0.0315
411.58	0.0303
411.902	0.031
412.224	0.0311
412.546	0.031
412.868	0.0317
413.19	0.0307
413.512	0.0306
413.834	0.0305
414.156	0.0309
414.477	0.0308
414.799	0.0307
415.121	0.0299
415.442	0.0306
415.763	0.0298
416.085	0.0306
416.406	0.0302
416.727	0.0307
417.048	0.0311
417.369	0.0305
417.69	0.0302
418.011	0.0305
418.331	0.0301
418.652	0.0301
418.973	0.0301
419.293	0.0301
419.614	0.029
419.934	0.0304
420.254	0.0303
420.574	0.0296
420.895	0.0297
421.215	0.0294
421.535	0.0299
421.855	0.0292
422.174	0.0289
422.494	0.0297
422.814	0.0295
423.134	0.03
423.453	0.0301
423.773	0.0303
424.092	0.0299
424.411	0.0298
424.731	0.0295
425.05	0.0299
425.369	0.0302
425.688	0.0298
426.007	0.0302
426.326	0.0302
426.644	0.0299
426.963	0.0295
427.282	0.0295
427.6	0.0301
427.919	0.0297
428.237	0.0304
428.556	0.0305
428.874	0.0301
429.192	0.0293
429.51	0.0292
429.828	0.0296
430.146	0.0295
430.464	0.0294
430.782	0.0298
431.1	0.0291
431.418	0.0293
431.735	0.0299
432.053	0.0301
432.37	0.0301
432.688	0.029
433.005	0.0292
433.322	0.0303
433.639	0.0302
433.957	0.0297
434.274	0.0305
434.591	0.0309
434.907	0.0299
435.224	0.0298
435.541	0.0297
435.858	0.0311
436.174	0.0299
436.491	0.0291
436.807	0.03
437.124	0.0295
437.44	0.03
437.756	0.0294
438.072	0.0294
438.388	0.0289
438.704	0.0292
439.02	0.0294
439.336	0.029
439.652	0.0296
439.968	0.0294
440.283	0.0291
440.599	0.0297
440.914	0.0294
441.23	0.029
441.545	0.0288
441.86	0.0292
442.175	0.0293
442.491	0.0277
442.806	0.0285
443.121	0.0278
443.435	0.0279
443.75	0.0277
444.065	0.0286
444.38	0.0292
444.694	0.0275
445.009	0.0278
445.323	0.0285
445.638	0.0277
445.952	0.0278
446.266	0.0272
446.58	0.0267
446.894	0.0276
447.208	0.0271
447.522	0.0264
447.836	0.0275
448.15	0.0268
448.464	0.0269
448.777	0.0271
449.091	0.0269
449.404	0.0261
449.718	0.0271
450.031	0.0265
450.345	0.0272
450.658	0.0263
450.971	0.0266
451.284	0.0257
451.597	0.0268
451.91	0.0258
452.223	0.0263
452.535	0.0262
452.848	0.0256
453.161	0.0257
453.473	0.0257
453.786	0.0258
454.098	0.0261
454.411	0.0257
454.723	0.0265
455.035	0.0247
455.347	0.025
455.659	0.0255
455.971	0.0261
456.283	0.0264
456.595	0.0257
456.907	0.0258
457.218	0.0261
457.53	0.0249
457.841	0.0249
458.153	0.0245
458.464	0.0242
458.776	0.0239
459.087	0.0241
459.398	0.0241
459.709	0.0234
460.02	0.0242
460.331	0.0243
460.642	0.0233
460.953	0.0236
461.263	0.0237
461.574	0.0226
461.885	0.024
462.195	0.0228
462.506	0.024
462.816	0.0241
463.126	0.0231
463.437	0.0234
463.747	0.0222
464.057	0.0218
464.367	0.0214
464.677	0.0217
464.987	0.0218
465.296	0.0208
465.606	0.0211
465.916	0.0207
466.225	0.0204
466.535	0.0211
466.844	0.0214
467.154	0.0214
467.463	0.0209
467.772	0.0211
468.081	0.021
468.39	0.0211
468.699	0.0207
469.008	0.0208
469.317	0.0207
469.626	0.0209
469.935	0.0205
470.243	0.0208
470.552	0.0197
470.86	0.0207
471.169	0.0198
471.477	0.0193
471.785	0.02
472.093	0.0192
472.402	0.0183
472.71	0.0195
473.018	0.0184
473.326	0.0187
473.633	0.0185
473.941	0.0188
474.249	0.018
474.556	0.0175
474.864	0.0183
475.171	0.018
475.479	0.017
475.786	0.0179
476.094	0.0174
476.401	0.0177
476.708	0.0178
477.015	0.0174
477.322	0.0163
477.629	0.0162
477.936	0.0169
478.242	0.0161
478.549	0.0164
478.856	0.0165
479.162	0.0164
479.469	0.0163
479.775	0.0162
480.081	0.0152
480.388	0.015
480.694	0.0152
481	0.016
481.306	0.0156
481.612	0.016
481.918	0.0162
482.224	0.0148
482.53	0.0155
482.835	0.0152
483.141	0.0157
483.446	0.0147
483.752	0.0136
484.057	0.0131
484.363	0.0139
484.668	0.014
484.973	0.013
485.278	0.0129
485.583	0.0124
485.888	0.0121
486.193	0.0112
486.498	0.0133
486.803	0.0131
487.107	0.0119
487.412	0.011
487.717	0.0121
488.021	0.0124
488.325	0.012
488.63	0.0114
488.934	0.0112
489.238	0.0115
489.542	0.0112
489.846	0.0116
490.15	0.011
490.454	0.0127
490.758	0.0112
491.062	0.0108
491.366	0.0108
491.669	0.011
491.973	0.0114
492.276	0.0104
492.58	0.0097
492.883	0.0112
493.186	0.0098
493.489	0.011
493.792	0.0081
494.096	0.0093
494.399	0.0097
494.701	0.0095
495.004	0.0092
495.307	0.0099
495.61	0.0089
495.912	0.0098
496.215	0.0089
496.517	0.0093
496.82	0.0085
497.122	0.0087
497.424	0.0091
497.727	0.0087
498.029	0.0091
498.331	0.0088
498.633	0.0088
498.935	0.0083
499.237	0.0086
499.538	0.008
499.84	0.0085
500.142	0.0074
500.443	0.0074
500.745	0.0088
501.046	0.0079
501.348	0.0074
501.649	0.0062
501.95	0.0076
502.251	0.0074
502.552	0.0067
502.853	0.0069
503.154	0.0084
503.455	0.0067
503.756	0.0076
504.057	0.0068
504.357	0.0069
504.658	0.0065
504.958	0.0058
505.259	0.0065
505.559	0.0055
505.859	0.0056
506.16	0.0055
506.46	0.0061
506.76	0.0057
507.06	0.0053
507.36	0.0054
507.66	0.0062
507.96	0.0066
508.259	0.0058
508.559	0.0054
508.859	0.007
509.158	0.0059
509.457	0.005
509.757	0.0055
510.056	0.0055
510.355	0.0062
510.655	0.0049
510.954	0.005
511.253	0.0054
511.552	0.0053
511.851	0.0044
512.149	0.0043
512.448	0.0049
512.747	0.0048
513.045	0.0041
513.344	0.0049
513.642	0.0052
513.941	0.005
514.239	0.0052
514.537	0.005
514.836	0.005
515.134	0.0051
515.432	0.0038
515.73	0.0049
516.028	0.004
516.326	0.0039
516.623	0.0032
516.921	0.0035
517.219	0.0052
517.516	0.0035
517.814	0.0047
518.111	0.0048
518.409	0.0043
518.706	0.0046
519.003	0.0036
519.3	0.0032
519.597	0.0041
519.894	0.0042
520.191	0.0057
520.488	0.0049
520.785	0.0046
521.082	0.0053
521.378	0.0034
521.675	0.0039
521.971	0.0037
522.268	0.0051
522.564	0.0048
522.861	0.0049
523.157	0.0037
523.453	0.004
523.749	0.0039
524.045	0.0027
524.341	0.0033
524.637	0.0036
524.933	0.005
525.229	0.0037
525.524	0.0036
525.82	0.0045
526.115	0.003
526.411	0.0033
526.706	0.0031
527.002	0.0032
527.297	0.0025
527.592	0.0044
527.887	0.0029
528.182	0.0031
528.477	0.0039
528.772	0.0036
529.067	0.0034
529.362	0.0041
529.657	0.0037
529.951	0.0039
530.246	0.0028
530.54	0.0042
530.835	0.0041
531.129	0.0034
531.423	0.004
531.718	0.0025
532.012	0.0035
532.306	0.0033
532.6	0.0039
532.894	0.0037
533.188	0.0031
533.482	0.0034
533.775	0.0024
534.069	0.0041
534.363	0.0032
534.656	0.0026
534.95	0.003
535.243	0.003
535.536	0.0023
535.83	0.0022
536.123	0.0022
536.416	0.002
536.709	0.0033
537.002	0.0037
537.295	0.0029
537.588	0.0034
537.881	0.0023
538.173	0.0031
538.466	0.0034
538.759	0.0028
539.051	0.0034
539.344	0.0031
539.636	0.0031
539.928	0.0047
540.22	0.0024
540.513	0.0033
540.805	0.0044
541.097	0.0039
541.389	0.003
541.681	0.0044
541.972	0.0027
542.264	0.0038
542.556	0.0036
542.847	0.0028
543.139	0.0033
543.431	0.0025
543.722	0.0025
544.013	0.0033
544.305	0.003
544.596	0.0019
544.887	0.003
545.178	0.0045
545.469	0.0031
545.76	0.0033
546.051	0.0019
546.342	0.0037
546.632	0.0031
546.923	0.0028
547.214	0.0033
547.504	0.0039
547.795	0.0024
548.085	0.0038
548.375	0.0036
548.666	0.0049
548.956	0.0043
549.246	0.0053
549.536	0.0049
549.826	0.0056
550.116	0.0053
550.406	0.0046
550.695	0.0051
550.985	0.0047
551.275	0.0043
551.564	0.0059
551.854	0.0058
552.143	0.0046
552.433	0.0052
552.722	0.0046
553.011	0.005
553.3	0.0043
553.589	0.0055
553.879	0.0047
554.167	0.0034
554.456	0.0038
554.745	0.0048
555.034	0.0053
555.323	0.0027
555.611	0.0042
555.9	0.0037
556.188	0.0033
556.477	0.0028
556.765	0.0038
557.053	0.0028
557.342	0.0025
557.63	0.0036
557.918	0.004
558.206	0.0052
558.494	0.0044
558.782	0.0044
559.069	0.0049
559.357	0.0037
559.645	0.0049
559.932	0.0035
560.22	0.0033
560.507	0.0022
560.795	0.0028
561.082	0.0026
561.37	0.0037
561.657	0.004
561.944	0.0028
562.231	0.0033
562.518	0.0042
562.805	0.0046
563.092	0.0027
563.379	0.0037
563.665	0.0024
563.952	0.0049
564.239	0.0049
564.525	0.0045
564.811	0.0043
565.098	0.004
565.384	0.0043
565.67	0.0048
565.957	0.0052
566.243	0.0056
566.529	0.0047
566.815	0.0065
567.101	0.0047
567.387	0.0051
567.672	0.0036
567.958	0.003
568.244	0.003
568.529	0.004
568.815	0.0035
569.1	0.0037
569.386	0.0033
569.671	0.003
569.956	0.0037
570.242	0.003
570.527	0.0028
570.812	0.0033
571.097	0.0018
571.382	0.001
571.666	0.002
571.951	0.0031
572.236	0.0029
572.521	0.0034
572.805	0.0038
573.09	0.0026
573.374	0.0011
573.659	0.0022
573.943	0.0033
574.227	0.0024
574.511	0.0025
574.795	0.0033
575.079	0.0034
575.363	0.0023
575.647	0.0032
575.931	0.004
576.215	0.0032
576.499	0.0023
576.782	0.0027
577.066	0.0028
577.349	0.0038
577.633	0.0032
577.916	0.0018
578.2	0.0028
578.483	0.0036
578.766	0.0039
579.049	0.0037
579.332	0.0036
579.615	0.0027
579.898	0.0022
580.181	0.0035
580.464	0.0032
580.746	0.0025
581.029	0.003
581.312	0.0009
581.594	0.0004
581.877	0.0022
582.159	0.0043
582.441	0.0022
582.724	0.0042
583.006	0.004
583.288	0.0037
583.57	0.0035
583.852	0.0041
584.134	0.003
584.416	0.003
584.697	0.003
584.979	0.0014
585.261	0.0021
585.542	0.0026
585.824	0.0032
586.105	0.003
586.387	0.0035
586.668	0.0037
586.949	0.0041
587.231	0.0028
587.512	0.0029
587.793	0.0035
588.074	0.0034
588.355	0.0037
588.636	0.003
588.916	0.0038
589.197	0.0036
589.478	0.0038
589.758	0.0029
590.039	0.0021
590.319	0.0022
590.6	0.0028
590.88	0.0027
591.16	0.003
591.441	0.0032
591.721	0.0022
592.001	0.0017
592.281	0.0032
592.561	0.0032
592.841	0.0017
593.12	0.0021
593.4	0.0031
593.68	0.0026
593.959	0.0028
594.239	0.004
594.518	0.0047
594.798	0.0039
595.077	0.003
595.356	0.0036
595.636	0.0034
595.915	0.0037
596.194	0.0039
596.473	0.0036
596.752	0.0033
597.031	0.0038
597.31	0.0019
597.588	0.0027
597.867	0.003
598.146	0.0025
598.424	0.0022
598.703	0.0024
598.981	0.0014
599.259	0.0016
599.538	0.0036
599.816	0.0032
600.094	0.003
600.372	0.0031
600.65	0.0037
600.928	0.0033
601.206	0.0034
601.484	0.0031
601.762	0.0044
602.04	0.0044
602.317	0.0043
602.595	0.0049
602.872	0.0039
603.15	0.0044
603.427	0.002
603.704	0.0018
603.982	0.002
604.259	0.0021
604.536	0.0022
604.813	0.0021
605.09	0.0028
605.367	0.0012
605.644	0.0018
605.921	0.0021
606.197	0.0012
606.474	0.0024
606.751	0.0018
607.027	0.002
607.304	0.0026
607.58	0.0022
607.856	0.0032
608.133	0.0042
608.409	0.005
608.685	0.0038
608.961	0.0039
609.237	0.0043
609.513	0.0049
609.789	0.0026
610.065	0.0025
610.341	0.0022
610.616	0.0035
610.892	0.0034
611.167	0.0033
611.443	0.0028
611.718	0.0025
611.994	0.0033
612.269	0.0029
612.544	0.0025
612.819	0.0023
613.095	0.0021
613.37	0.0018
613.645	0.0017
613.919	0.0027
614.194	0.0022
614.469	0.0031
614.744	0.0018
615.019	0.0016
615.293	0.0012
615.568	0.0022
615.842	0.0018
616.116	0.0026
616.391	0.0032
616.665	0.0009
616.939	0.0021
617.213	0.0023
617.488	0.0029
617.762	0.0028
618.035	0.0035
618.309	0.0027
618.583	0.0027
618.857	0.0042
619.131	0.0031
619.404	0.0029
619.678	0.0035
619.951	0.0028
620.225	0.0015
620.498	0.0019
620.771	0.0018
621.045	0.002
621.318	0.0023
621.591	0.0015
621.864	0.0005
622.137	0.0007
622.41	0.003
622.683	0.002
622.956	0.0018
623.228	0.003
623.501	0.0032
623.774	0.0035
624.046	0.0037
624.319	0.0035
624.591	0.0031
624.863	0.0032
625.136	0.0041
625.408	0.0048
625.68	0.0033
625.952	0.0029
626.224	0.0045
626.496	0.0035
626.768	0.0033
627.04	0.0035
627.311	0.0034
627.583	0.0048
627.855	0.0054
628.126	0.0041
628.398	0.0044
628.669	0.0043
628.941	0.0021
629.212	0.0018
629.483	0.0019
629.755	0.002
630.026	0.0027
630.297	0.0029
630.568	0.0035
630.839	0.005
631.11	0.0051
631.38	0.0046
631.651	0.0041
631.922	0.0047
632.192	0.004
632.463	0.0048
632.733	0.0039
633.004	0.0039
633.274	0.0043
633.545	0.0037
633.815	0.0064
634.085	0.0062
634.355	0.0049
634.625	0.0057
634.895	0.0046
635.165	0.0037
635.435	0.0046
635.705	0.0038
635.974	0.0047
636.244	0.0024
636.514	0.0018
636.783	0.0024
637.053	0.003
637.322	0.0023
637.591	0.002
637.861	0.0013
638.13	0.0023
638.399	0.004
638.668	0.0033
638.937	0.0045
639.206	0.0047
639.475	0.0056
639.744	0.0048
640.013	0.0042
640.281	0.0042
640.55	0.004
640.819	0.004
641.087	0.0035
641.356	0.0034
641.624	0.0044
641.892	0.0052
642.161	0.0053
642.429	0.0048
642.697	0.0057
642.965	0.0048
643.233	0.0035
643.501	0.0027
643.769	0.0036
644.037	0.004
644.305	0.0036
644.572	0.0036
644.84	0.0033
645.108	0.0042
645.375	0.0033
645.643	0.0037
645.91	0.0039
646.177	0.0037
646.445	0.0029
646.712	0.0037
646.979	0.0037
647.246	0.0057
647.513	0.0032
647.78	0.0038
648.047	0.0025
648.314	0.0011
648.58	0.0009
648.847	-0.0001
649.114	-0.0001
649.38	0.0003
649.647	0.0008
649.913	0.0015
650.18	0.0026
650.446	0.0034
650.712	0.0032
650.978	0.0049
651.245	0.0041
651.511	0.0053
651.777	0.0038
652.043	0.0039
652.309	0.0039
652.574	0.0049
652.84	0.005
653.106	0.0052
653.371	0.0056
653.637	0.0057
653.903	0.0061
654.168	0.0058
654.433	0.0053
654.699	0.0045
654.964	0.0031
655.229	0.0029
655.494	0.0021
655.759	-0.0025
656.024	0
656.289	-0
656.554	0.0037
656.819	0.0055
657.084	0.0056
657.349	0.0066
657.613	0.0064
657.878	0.0038
658.142	0.0043
658.407	0.0034
658.671	0.0034
658.936	0.0039
659.2	0.0047
659.464	0.0035
659.728	0.0036
659.992	0.0028
660.256	0.0025
660.52	0.0035
660.784	0.0033
661.048	0.0039
661.312	0.0041
661.575	0.0042
661.839	0.0052
662.103	0.0048
662.366	0.0038
662.63	0.0037
662.893	0.0033
663.156	0.0041
663.42	0.0052
663.683	0.0049
663.946	0.0052
664.209	0.0059
664.472	0.0053
664.735	0.0058
664.998	0.0065
665.261	0.007
665.524	0.0061
665.786	0.005
666.049	0.0056
666.312	0.0054
666.574	0.0054
666.837	0.0062
667.099	0.0043
667.361	0.006
667.624	0.0052
667.886	0.0056
668.148	0.006
668.41	0.0061
668.672	0.0054
668.934	0.0065
669.196	0.0045
669.458	0.0036
669.72	0.0036
669.982	0.0034
670.243	0.0035
670.505	0.003
670.766	0.0026
671.028	0.0034
671.289	0.0041
671.551	0.0037
671.812	0.0019
672.073	0.0034
672.334	0.0032
672.596	0.0032
672.857	0.0046
673.118	0.0056
673.379	0.0062
673.639	0.0064
673.9	0.0054
674.161	0.0063
674.422	0.0067
674.682	0.0064
674.943	0.0058
675.203	0.0057
675.464	0.0057
675.724	0.0045
675.985	0.0042
676.245	0.0034
676.505	0.0019
676.765	0.0029
677.025	0.0046
677.285	0.0046
677.545	0.0034
677.805	0.0023
678.065	0.0031
678.325	0.0044
678.585	0.0051
678.844	0.0046
679.104	0.0056
679.363	0.0066
679.623	0.0058
679.882	0.0059
680.142	0.0064
680.401	0.0066
680.66	0.0064
680.919	0.0057
681.178	0.0066
681.437	0.0059
681.696	0.0038
681.955	0.0067
682.214	0.006
682.473	0.0072
682.732	0.0056
682.99	0.007
683.249	0.0074
683.508	0.0066
683.766	0.0058
684.024	0.0057
684.283	0.0041
684.541	0.0032
684.799	0.0031
685.058	0.001
685.316	0.0001
685.574	0.0002
685.832	0.0011
686.09	0.0022
686.348	0.0014
686.606	0.0013
686.863	0.0017
687.121	0.0024
687.379	0.0026
687.636	0.0011
687.894	0.0035
688.151	0.0029
688.409	0.0029
688.666	0.0031
688.923	0.0038
689.181	0.0035
689.438	0.0031
689.695	0.0027
689.952	0.0027
690.209	0.0029
690.466	0.0019
690.723	0.0029
690.979	0.0024
691.236	0.0011
691.493	0.0005
691.75	0.0014
692.006	0.0011
692.263	0.0001
692.519	0.0004
692.775	-0.0005
693.032	0
693.288	-0.0016
693.544	-0.0002
693.8	0.0014
694.056	0.001
694.313	0.0016
694.568	0.0025
694.824	0.0018
695.08	0.0012
695.336	0.002
695.592	0.001
695.847	0.003
696.103	0.0037
696.359	0.0047
696.614	0.0045
696.869	0.0025
697.125	0.0004
697.38	0.001
697.635	0.0021
697.891	0.0032
698.146	0.0032
698.401	0.0033
698.656	0.0015
698.911	0.0038
699.166	0.002
699.42	0.005
699.675	0.0048
699.93	0.0055
700.185	0.0053
700.439	0.0038
700.694	0.0035
700.948	0.003
701.203	0.003
701.457	0.0031
701.711	0.0034
701.965	0.0021
702.22	0.0018
702.474	0.0013
702.728	0.001
702.982	0.0023
703.236	0.0028
703.49	0.0035
703.743	0.0033
703.997	0.0037
704.251	0.0032
704.504	0.0018
704.758	0.0014
705.012	0.0026
705.265	0.0027
705.518	0.0025
705.772	0.0037
706.025	0.0046
706.278	0.0033
706.531	0.0031
706.785	0.001
707.038	0.0011
707.291	0.0014
707.543	0.0001
707.796	0.0014
708.049	0.0009
708.302	0.0011
708.555	0.0014
708.807	0.0026
709.06	0.0026
709.312	0.0037
709.565	0.0043
709.817	0.0057
710.069	0.0044
710.322	0.0046
710.574	0.0033
710.826	0.0025
711.078	0.0022
711.33	0.0021
711.582	0.0025
711.834	0.0007
712.086	0.0027
712.338	0.0019
712.59	0.0003
712.841	-0.0011
713.093	-0
713.344	0.0013
713.596	-0.0002
713.847	-0.0002
714.099	0.0009
714.35	0.0021
714.601	0.0012
714.853	0.0007
715.104	0.0017
715.355	0.0003
715.606	0.002
715.857	0.002
716.108	0.0035
716.359	0.004
716.609	0.0034
716.86	0.0047
717.111	0.0036
717.361	0.0029
717.612	0.0032
717.863	0.0034
718.113	0.0036
718.363	0.0026
718.614	0.0035
718.864	0.0039
719.114	0.0035
719.364	0.0021
719.614	0.0022
719.865	0.0034
720.114	0.0046
720.364	0.0045
720.614	0.0033
720.864	0.0036
721.114	0.0021
721.364	0.0028
721.613	0.0029
721.863	0.002
722.112	0.0023
722.362	0.0013
722.611	0.0036
722.86	0.0028
723.11	0.0047
723.359	0.0042
723.608	0.0035
723.857	0.0039
724.106	0.0028
724.355	0.003
724.604	0.0022
724.853	0.0011
725.102	0.0009
725.351	-0.0005
725.599	-0.0017
725.848	-0.0004
726.097	0.0004
726.345	-0.0001
726.594	0.0012
726.842	0.0016
727.09	0.0007
727.339	0.0011
727.587	0.0012
727.835	0.0008
728.083	0.0005
728.331	0.0008
728.579	0.0022
728.827	0.0006
729.075	-0.0006
729.323	-0.0009
729.571	-0.0013
729.818	-0.0007
730.066	-0.0008
730.314	-0.001
730.561	-0.0006
730.809	-0.0016
731.056	-0.0021
731.303	-0.0017
731.551	-0.0005
731.798	-0.0007
732.045	0.0008
732.292	0.0002
732.539	-0.0005
732.786	-0.0011
733.033	-0.0015
733.28	-0.0003
733.527	-0.0006
733.774	-0.0015
734.021	-0.0011
734.267	-0.0005
734.514	-0.0006
734.76	-0.0011
735.007	-0.0004
735.253	0.0009
735.5	0.0019
735.746	0.0024
735.992	0.0017
736.238	0.0019
736.485	0.0022
736.731	0.003
736.977	0.0016
737.223	0.0015
737.469	0.002
737.715	0.003
737.96	0.0041
738.206	0.0038
738.452	0.0038
738.697	0.004
738.943	0.0021
739.189	0.0016
739.434	0.0012
739.679	0.0018
739.925	0.0042
740.17	0.0044
740.415	0.0035
740.66	0.0042
740.906	0.0034
741.151	0.0032
741.396	0.0031
741.641	0.002
741.886	0.0019
742.13	0.0005
742.375	0.0017
742.62	-0.0001
742.865	0
743.109	0.0009
743.354	0.0003
743.598	0.0003
743.843	-0.0008
744.087	-0.0006
744.331	-0.0007
744.576	0.0002
744.82	0.0017
745.064	0.0017
745.308	0.0028
745.552	0.0016
745.796	0.0006
746.04	0.0005
746.284	0.0001
746.528	0.0011
746.771	0.0018
747.015	0.002
747.259	0.0013
747.502	0.0025
747.746	0.0024
747.989	0.0036
748.233	0.0043
748.476	0.0031
748.719	0.0025
748.963	0.0019
749.206	0.0008
749.449	0.0004
749.692	0.0006
749.935	0.0007
750.178	0.0014
750.421	0.0014
750.664	0.0017
750.906	0.0019
751.149	0.0018
751.392	0.0027
751.635	0.0018
751.877	0.0028
752.12	0.0026
752.362	0.0035
752.604	0.002
752.847	0.0014
753.089	0.0022
753.331	0.002
753.573	0.0011
753.816	0.0019
754.058	0.0018
754.3	0.0032
754.542	0.0034
754.783	0.0038
755.025	0.0035
755.267	0.0019
755.509	0.0029
755.75	-0.0001
755.992	0.0017
756.234	0.0021
756.475	0.0025
756.716	0.0025
756.958	0.0018
757.199	0.002
757.44	0.0034
757.682	0.0016
757.923	0.0029
758.164	0.0031
758.405	0.0035
758.646	0.005
758.887	0.0042
759.128	0.0042
759.369	0.0029
759.609	0.0031
759.85	0.003
760.091	0.0029
760.331	0.0037
760.572	0.0031
760.812	0.0021
761.053	0.0027
761.293	0.0043
761.533	0.0043
761.774	0.0045
762.014	0.0045
762.254	0.0038
762.494	0.0042
762.734	0.0032
762.974	0.0031
763.214	0.002
763.454	0.0033
763.694	0.002
763.933	0.0043
764.173	0.0057
764.413	0.0041
764.652	0.0028
764.892	0.0018
765.131	0.0015
765.371	0.0011
765.61	0.0014
765.849	-0.0005
766.089	-0.0006
766.328	0.0005
766.567	-0.0004
766.806	0.0001
767.045	-0.0002
767.284	0.0014
767.523	0.0005
767.762	-0.0002
768.001	-0.0001
768.239	0.0001
768.478	-0
768.717	-0
768.955	-0.0002
769.194	0.0005
769.432	0.002
769.671	0.0017
769.909	0.0011
770.148	0.0012
770.386	0.0012
770.624	0.0004
770.862	0.0001
771.1	0.0003
771.338	-0.0009
771.576	0.0002
771.814	0.0007
772.052	0.0007
772.29	0.0023
772.528	0.0017
772.765	0.0005
773.003	0.0021
773.24	0.0022
773.478	0.0018
773.716	0.0029
773.953	0.0027
774.19	0.003
774.428	0.0029
774.665	0.0041
774.902	0.0037
775.139	0.0037
775.376	0.0041
775.613	0.0049
775.85	0.0065
776.087	0.0063
776.324	0.0064
776.561	0.0054
776.798	0.0049
777.034	0.0048
777.271	0.004
777.508	0.0036
777.744	0.0043
777.981	0.0045
778.217	0.0041
778.454	0.0043
778.69	0.0039
778.926	0.0037
779.162	0.0035
779.399	0.0047
779.635	0.0041
779.871	0.004
780.107	0.0035
780.343	0.0028
780.579	0.0039
780.814	0.0044
781.05	0.0042
781.286	0.0028
781.522	0.002
781.757	0.0014
781.993	0.002
782.228	0.0022
782.464	0.0025
782.699	0.0022
782.934	0.002
783.17	0.0016
783.405	0.0029
783.64	0.0018
783.875	0.0011
784.11	0.0018
784.345	0.0025
784.58	0.0034
784.815	0.0032
785.05	0.0023
785.285	0.0012
785.52	0.0023
785.754	0.0023
785.989	0.0025
786.223	0.0038
786.458	0.0042
786.692	0.0048
786.927	0.005
787.161	0.0052
787.396	0.0053
787.63	0.004
787.864	0.0045
788.098	0.003
788.332	0.0029
788.566	0.0024
788.8	0.0026
789.034	0.0026
789.268	0.0028
789.502	0.0029
789.736	0.0033
789.969	0.0034
790.203	0.0034
790.437	0.003
790.67	0.0039
790.904	0.0058
791.137	0.0072
791.37	0.007
791.604	0.007
791.837	0.0077
792.07	0.0083
792.303	0.0087
792.537	0.0092
792.77	0.0082
793.003	0.0069
793.236	0.0052
793.469	0.0052
793.701	0.003
793.934	0.0032
794.167	0.0017
794.4	0.0007
794.632	0.001
794.865	0.001
795.097	0.0019
795.33	0.0017
795.562	0.0017
795.795	0.0021
796.027	0.0022
796.259	0.0034
796.491	0.0015
796.724	0.0026
796.956	0.0027
797.188	0.0021
797.42	0.0021
797.652	0.0027
797.883	0.0024
798.115	0.0035
798.347	0.0042
798.579	0.0035
798.81	0.0041
799.042	0.003
799.274	0.0041
799.505	0.0036
799.737	0.004
799.968	0.0027
800.199	0.0012
800.431	0.0027
800.662	0.001
800.893	0.0021
801.124	0.0025
801.355	0.0037
801.586	0.0053
801.817	0.0071
802.048	0.0067
802.279	0.0061
802.51	0.0073
802.741	0.0078
802.971	0.0076
803.202	0.006
803.433	0.005
803.663	0.0051
803.894	0.0047
804.124	0.0045
804.354	0.0045
804.585	0.0056
804.815	0.0056
805.045	0.0062
805.275	0.0049
805.506	0.0154
805.736	-0.1109
805.966	-0.2366
806.196	-0.0899
