Data from 03 0.4 mM K2Cr2O7 0.25 M BQDS 1 M H2SO4 5 min_Absorbance_0250.txt Node
Date: Wed Dec 15 14:20:13 EST 2021
User: kwabilab-user
Spectrometer: HDX00518
Trigger mode: 0
Integration Time (sec): 5.000000E-2
Scans to average: 50
Nonlinearity correction enabled: false
Boxcar width: 0
Storing dark spectrum: false
XAxis mode: Wavelengths
Number of Pixels in Spectrum: 2068
>>>>>Begin Spectral Data<<<<<
195.27	-0.2637
195.642	0.2486
196.014	-0.1606
196.386	-0.0345
196.758	-0.0463
197.129	-0.0004
197.501	-0.0361
197.872	0.0105
198.244	0.0188
198.615	0.0337
198.986	0.0102
199.357	0.0284
199.728	0.0319
200.099	0.0143
200.47	0.0251
200.841	0.0148
201.212	0.0029
201.582	0.0308
201.953	0.0198
202.323	0.0227
202.694	0.0221
203.064	0.0224
203.434	0.0243
203.804	0.0219
204.174	0.0244
204.544	0.0254
204.914	0.0004
205.284	0.0045
205.653	0.0121
206.023	0.0157
206.393	0.0197
206.762	0.0197
207.131	0.0376
207.501	0.0157
207.87	0.0193
208.239	0.0089
208.608	0.0441
208.977	0.0118
209.346	0.0167
209.715	0.0278
210.083	0.0174
210.452	0.0339
210.82	0.0454
211.189	0.0056
211.557	0.04
211.925	0.0097
212.294	0.0073
212.662	0.0329
213.03	0.0255
213.398	0.019
213.766	0.0115
214.133	0.0318
214.501	0.0147
214.869	0.003
215.236	0.0255
215.604	0.0236
215.971	0.0624
216.338	0.0441
216.705	0.0282
217.072	0.054
217.439	0.0341
217.806	0.0493
218.173	0.068
218.54	0.0428
218.907	0.0841
219.273	0.0721
219.64	0.0852
220.006	0.0756
220.373	0.0799
220.739	0.1133
221.105	0.1417
221.471	0.1392
221.837	0.1621
222.203	0.1883
222.569	0.1887
222.935	0.2032
223.3	0.223
223.666	0.2597
224.031	0.2596
224.397	0.2979
224.762	0.3147
225.127	0.3511
225.493	0.3583
225.858	0.3989
226.223	0.4124
226.588	0.4345
226.952	0.4332
227.317	0.4737
227.682	0.4617
228.046	0.4834
228.411	0.522
228.775	0.5304
229.14	0.5173
229.504	0.5483
229.868	0.5429
230.232	0.5576
230.596	0.5755
230.96	0.5832
231.324	0.5845
231.688	0.5833
232.052	0.5991
232.415	0.5897
232.779	0.5942
233.142	0.6066
233.505	0.6136
233.869	0.6108
234.232	0.6092
234.595	0.5938
234.958	0.5939
235.321	0.5979
235.684	0.5913
236.047	0.595
236.409	0.5892
236.772	0.5971
237.134	0.5918
237.497	0.5831
237.859	0.5943
238.222	0.5732
238.584	0.5725
238.946	0.5742
239.308	0.5686
239.67	0.5651
240.032	0.5654
240.393	0.5588
240.755	0.5595
241.117	0.5493
241.478	0.554
241.84	0.5477
242.201	0.5413
242.562	0.5402
242.924	0.5328
243.285	0.5287
243.646	0.5274
244.007	0.5274
244.368	0.5188
244.728	0.5154
245.089	0.5141
245.45	0.5076
245.81	0.51
246.171	0.5029
246.531	0.5015
246.891	0.5038
247.252	0.5028
247.612	0.4991
247.972	0.4943
248.332	0.4916
248.692	0.4936
249.051	0.4938
249.411	0.4858
249.771	0.4883
250.13	0.4847
250.49	0.4879
250.849	0.4837
251.208	0.4858
251.568	0.4776
251.927	0.4747
252.286	0.4861
252.645	0.4761
253.004	0.4774
253.363	0.4732
253.721	0.4776
254.08	0.477
254.439	0.4738
254.797	0.4703
255.155	0.4647
255.514	0.4704
255.872	0.4647
256.23	0.4633
256.588	0.468
256.946	0.4634
257.304	0.461
257.662	0.4665
258.02	0.466
258.377	0.46
258.735	0.4576
259.093	0.458
259.45	0.4563
259.807	0.4577
260.165	0.4539
260.522	0.4539
260.879	0.4512
261.236	0.448
261.593	0.4481
261.95	0.4466
262.306	0.4507
262.663	0.4449
263.02	0.4413
263.376	0.4379
263.733	0.4408
264.089	0.4343
264.445	0.4394
264.802	0.4362
265.158	0.434
265.514	0.4309
265.87	0.4347
266.226	0.4271
266.581	0.4285
266.937	0.4251
267.293	0.4239
267.648	0.4183
268.004	0.42
268.359	0.4201
268.714	0.4133
269.07	0.415
269.425	0.4127
269.78	0.4107
270.135	0.4071
270.49	0.4031
270.844	0.4035
271.199	0.3989
271.554	0.3974
271.908	0.3926
272.263	0.3954
272.617	0.3929
272.972	0.3915
273.326	0.3863
273.68	0.382
274.034	0.3831
274.388	0.379
274.742	0.3816
275.096	0.3738
275.45	0.3757
275.803	0.3677
276.157	0.3674
276.51	0.3638
276.864	0.3627
277.217	0.3605
277.571	0.3571
277.924	0.3528
278.277	0.3522
278.63	0.3448
278.983	0.3445
279.336	0.3417
279.688	0.3379
280.041	0.338
280.394	0.3281
280.746	0.3263
281.099	0.3269
281.451	0.3234
281.803	0.3191
282.156	0.3175
282.508	0.3123
282.86	0.3109
283.212	0.3055
283.564	0.3031
283.916	0.2992
284.267	0.2978
284.619	0.2939
284.971	0.2905
285.322	0.2903
285.673	0.2836
286.025	0.2828
286.376	0.2786
286.727	0.2748
287.078	0.2732
287.429	0.2695
287.78	0.2648
288.131	0.2631
288.482	0.2593
288.833	0.2582
289.183	0.2519
289.534	0.2489
289.884	0.2475
290.235	0.2439
290.585	0.2415
290.935	0.2367
291.285	0.2351
291.635	0.2326
291.985	0.2298
292.335	0.2272
292.685	0.2247
293.035	0.2199
293.384	0.2164
293.734	0.2134
294.083	0.2112
294.433	0.2082
294.782	0.2064
295.131	0.2032
295.48	0.1998
295.829	0.1974
296.179	0.1956
296.527	0.1908
296.876	0.1884
297.225	0.1855
297.574	0.1833
297.922	0.1816
298.271	0.1779
298.619	0.1736
298.968	0.1732
299.316	0.1703
299.664	0.1678
300.012	0.1655
300.36	0.1625
300.708	0.1608
301.056	0.1585
301.404	0.1564
301.752	0.1542
302.099	0.1515
302.447	0.1496
302.794	0.1466
303.142	0.1449
303.489	0.1428
303.836	0.1417
304.183	0.1391
304.531	0.1395
304.878	0.1369
305.224	0.1348
305.571	0.1331
305.918	0.1321
306.265	0.1296
306.611	0.1286
306.958	0.1283
307.304	0.1271
307.651	0.1257
307.997	0.1242
308.343	0.1238
308.689	0.1221
309.035	0.121
309.381	0.1199
309.727	0.1189
310.073	0.1183
310.419	0.1175
310.764	0.1171
311.11	0.1159
311.455	0.1156
311.801	0.1146
312.146	0.1141
312.491	0.1137
312.837	0.1144
313.182	0.1136
313.527	0.1125
313.872	0.1125
314.216	0.1118
314.561	0.1119
314.906	0.1115
315.251	0.1121
315.595	0.1121
315.94	0.1119
316.284	0.1113
316.628	0.1117
316.972	0.1126
317.317	0.1122
317.661	0.1127
318.005	0.112
318.348	0.1123
318.692	0.1124
319.036	0.1131
319.38	0.1138
319.723	0.1135
320.067	0.1146
320.41	0.1148
320.754	0.116
321.097	0.1153
321.44	0.1165
321.783	0.1174
322.126	0.1175
322.469	0.1184
322.812	0.1192
323.155	0.1194
323.498	0.12
323.84	0.1206
324.183	0.1213
324.525	0.1225
324.868	0.1244
325.21	0.1242
325.552	0.1258
325.894	0.1263
326.236	0.1263
326.578	0.1272
326.92	0.1282
327.262	0.1288
327.604	0.13
327.946	0.1306
328.287	0.1309
328.629	0.1327
328.97	0.1335
329.312	0.1349
329.653	0.1355
329.994	0.1361
330.335	0.1365
330.676	0.1382
331.017	0.1396
331.358	0.1402
331.699	0.1417
332.04	0.1427
332.38	0.1428
332.721	0.1448
333.061	0.1447
333.402	0.1467
333.742	0.1472
334.083	0.1478
334.423	0.1491
334.763	0.1504
335.103	0.1513
335.443	0.1514
335.783	0.1522
336.123	0.1533
336.462	0.1549
336.802	0.1549
337.141	0.156
337.481	0.1562
337.82	0.1576
338.16	0.158
338.499	0.1598
338.838	0.1601
339.177	0.1606
339.516	0.1611
339.855	0.162
340.194	0.1637
340.533	0.1632
340.872	0.1636
341.21	0.1652
341.549	0.1649
341.887	0.1659
342.226	0.1657
342.564	0.1667
342.902	0.1672
343.24	0.1667
343.578	0.1675
343.916	0.1676
344.254	0.1685
344.592	0.1687
344.93	0.1689
345.268	0.1684
345.605	0.1688
345.943	0.1687
346.28	0.1688
346.618	0.1693
346.955	0.1691
347.292	0.1701
347.629	0.1696
347.966	0.1703
348.303	0.17
348.64	0.1707
348.977	0.1701
349.314	0.1707
349.65	0.1699
349.987	0.171
350.324	0.1695
350.66	0.17
350.996	0.1694
351.333	0.1696
351.669	0.1682
352.005	0.1693
352.341	0.1675
352.677	0.1682
353.013	0.1666
353.349	0.1663
353.685	0.1658
354.02	0.1642
354.356	0.165
354.691	0.1636
355.027	0.1635
355.362	0.162
355.697	0.162
356.033	0.161
356.368	0.1602
356.703	0.1599
357.038	0.1592
357.373	0.1584
357.707	0.1582
358.042	0.1564
358.377	0.1563
358.711	0.1561
359.046	0.1547
359.38	0.1547
359.715	0.1538
360.049	0.1532
360.383	0.152
360.717	0.1507
361.051	0.1503
361.385	0.1493
361.719	0.1485
362.053	0.1484
362.387	0.1457
362.72	0.1451
363.054	0.1437
363.387	0.1433
363.721	0.142
364.054	0.1405
364.387	0.1393
364.721	0.138
365.054	0.1369
365.387	0.1361
365.72	0.1353
366.053	0.1338
366.385	0.1325
366.718	0.1316
367.051	0.1305
367.383	0.1287
367.716	0.1293
368.048	0.1281
368.381	0.1272
368.713	0.1256
369.045	0.1254
369.377	0.1246
369.709	0.1233
370.041	0.1221
370.373	0.1217
370.705	0.1206
371.037	0.1185
371.368	0.1181
371.7	0.1168
372.031	0.1157
372.363	0.1147
372.694	0.1143
373.025	0.1125
373.356	0.111
373.688	0.1103
374.019	0.109
374.35	0.1068
374.68	0.1059
375.011	0.104
375.342	0.103
375.673	0.1018
376.003	0.1001
376.334	0.1
376.664	0.0976
376.995	0.0974
377.325	0.0959
377.655	0.094
377.985	0.0936
378.315	0.0923
378.645	0.0916
378.975	0.0908
379.305	0.0888
379.635	0.0896
379.964	0.0882
380.294	0.0882
380.623	0.0862
380.953	0.0852
381.282	0.0849
381.611	0.0845
381.941	0.0833
382.27	0.0818
382.599	0.0814
382.928	0.0802
383.257	0.0789
383.585	0.0777
383.914	0.0768
384.243	0.076
384.571	0.0746
384.9	0.0739
385.228	0.0723
385.557	0.0723
385.885	0.0703
386.213	0.0693
386.541	0.0685
386.869	0.0673
387.197	0.0663
387.525	0.0649
387.853	0.0637
388.181	0.063
388.508	0.0623
388.836	0.0611
389.164	0.0605
389.491	0.0596
389.818	0.0582
390.146	0.058
390.473	0.0573
390.8	0.0568
391.127	0.0554
391.454	0.0549
391.781	0.0539
392.108	0.0538
392.435	0.0525
392.761	0.0516
393.088	0.0514
393.415	0.0513
393.741	0.0511
394.067	0.0507
394.394	0.05
394.72	0.0491
395.046	0.0479
395.372	0.0477
395.698	0.047
396.024	0.0465
396.35	0.0465
396.676	0.0451
397.001	0.0444
397.327	0.0442
397.653	0.0429
397.978	0.0425
398.303	0.0415
398.629	0.0409
398.954	0.0407
399.279	0.0405
399.604	0.0396
399.929	0.0395
400.254	0.0388
400.579	0.0383
400.904	0.0377
401.229	0.0377
401.553	0.0376
401.878	0.037
402.202	0.0371
402.527	0.0368
402.851	0.0367
403.175	0.0349
403.5	0.0359
403.824	0.0342
404.148	0.0349
404.472	0.0343
404.796	0.0339
405.119	0.0344
405.443	0.0337
405.767	0.0336
406.09	0.0336
406.414	0.0332
406.737	0.0338
407.061	0.0331
407.384	0.0332
407.707	0.0327
408.03	0.0323
408.353	0.0321
408.676	0.0322
408.999	0.0325
409.322	0.0316
409.645	0.0325
409.968	0.0319
410.29	0.0315
410.613	0.0324
410.935	0.0314
411.258	0.0318
411.58	0.031
411.902	0.031
412.224	0.0312
412.546	0.031
412.868	0.032
413.19	0.0312
413.512	0.0315
413.834	0.0312
414.156	0.0315
414.477	0.0305
414.799	0.0313
415.121	0.0305
415.442	0.0314
415.763	0.0308
416.085	0.0312
416.406	0.0309
416.727	0.0313
417.048	0.031
417.369	0.0314
417.69	0.0305
418.011	0.0309
418.331	0.0311
418.652	0.0308
418.973	0.0305
419.293	0.031
419.614	0.0304
419.934	0.0313
420.254	0.0305
420.574	0.0297
420.895	0.0296
421.215	0.0297
421.535	0.0301
421.855	0.0301
422.174	0.0296
422.494	0.0301
422.814	0.0301
423.134	0.0304
423.453	0.0302
423.773	0.031
424.092	0.0301
424.411	0.0302
424.731	0.0302
425.05	0.0309
425.369	0.031
425.688	0.0306
426.007	0.031
426.326	0.0305
426.644	0.0301
426.963	0.0302
427.282	0.0301
427.6	0.0301
427.919	0.0305
428.237	0.0309
428.556	0.0307
428.874	0.0303
429.192	0.0302
429.51	0.0301
429.828	0.0304
430.146	0.0306
430.464	0.0299
430.782	0.0307
431.1	0.0297
431.418	0.0299
431.735	0.0295
432.053	0.03
432.37	0.0303
432.688	0.0298
433.005	0.0301
433.322	0.0313
433.639	0.0309
433.957	0.0311
434.274	0.0303
434.591	0.0308
434.907	0.0301
435.224	0.03
435.541	0.0304
435.858	0.0307
436.174	0.0306
436.491	0.0303
436.807	0.0296
437.124	0.0301
437.44	0.0297
437.756	0.0302
438.072	0.0295
438.388	0.0299
438.704	0.0296
439.02	0.0298
439.336	0.0296
439.652	0.0301
439.968	0.0299
440.283	0.0302
440.599	0.03
440.914	0.0297
441.23	0.0296
441.545	0.0293
441.86	0.0296
442.175	0.03
442.491	0.0288
442.806	0.0289
443.121	0.0287
443.435	0.0285
443.75	0.0291
444.065	0.0289
444.38	0.0289
444.694	0.0289
445.009	0.0281
445.323	0.0289
445.638	0.0286
445.952	0.0284
446.266	0.0282
446.58	0.0277
446.894	0.0282
447.208	0.0275
447.522	0.0275
447.836	0.0277
448.15	0.0275
448.464	0.027
448.777	0.0276
449.091	0.0274
449.404	0.0267
449.718	0.0271
450.031	0.0268
450.345	0.0276
450.658	0.0268
450.971	0.0268
451.284	0.0266
451.597	0.0275
451.91	0.0267
452.223	0.0267
452.535	0.0267
452.848	0.0264
453.161	0.0264
453.473	0.0268
453.786	0.0266
454.098	0.0263
454.411	0.0267
454.723	0.0265
455.035	0.0254
455.347	0.0254
455.659	0.0259
455.971	0.0265
456.283	0.026
456.595	0.0262
456.907	0.0259
457.218	0.0263
457.53	0.0252
457.841	0.0259
458.153	0.0247
458.464	0.0249
458.776	0.0249
459.087	0.0247
459.398	0.0246
459.709	0.0237
460.02	0.0248
460.331	0.0238
460.642	0.0244
460.953	0.0241
461.263	0.0245
461.574	0.0234
461.885	0.0247
462.195	0.0234
462.506	0.0241
462.816	0.024
463.126	0.0241
463.437	0.0237
463.747	0.0225
464.057	0.0218
464.367	0.0216
464.677	0.0226
464.987	0.0224
465.296	0.0213
465.606	0.0214
465.916	0.021
466.225	0.0212
466.535	0.0213
466.844	0.0221
467.154	0.0216
467.463	0.0213
467.772	0.0208
468.081	0.0212
468.39	0.0219
468.699	0.0215
469.008	0.0215
469.317	0.0214
469.626	0.0216
469.935	0.0204
470.243	0.0207
470.552	0.0204
470.86	0.0213
471.169	0.0204
471.477	0.0202
471.785	0.02
472.093	0.0194
472.402	0.0195
472.71	0.0188
473.018	0.0185
473.326	0.0189
473.633	0.0192
473.941	0.0185
474.249	0.0188
474.556	0.0182
474.864	0.0181
475.171	0.0177
475.479	0.0169
475.786	0.0188
476.094	0.018
476.401	0.0177
476.708	0.0177
477.015	0.0172
477.322	0.0165
477.629	0.0167
477.936	0.0171
478.242	0.0171
478.549	0.0166
478.856	0.0168
479.162	0.0168
479.469	0.0161
479.775	0.0159
480.081	0.0164
480.388	0.0161
480.694	0.0159
481	0.0157
481.306	0.0156
481.612	0.0157
481.918	0.0162
482.224	0.0157
482.53	0.0153
482.835	0.0148
483.141	0.0161
483.446	0.0146
483.752	0.0142
484.057	0.0136
484.363	0.0138
484.668	0.0146
484.973	0.0132
485.278	0.0134
485.583	0.0126
485.888	0.0121
486.193	0.0109
486.498	0.0129
486.803	0.0132
487.107	0.0121
487.412	0.0111
487.717	0.0124
488.021	0.012
488.325	0.0128
488.63	0.0121
488.934	0.0116
489.238	0.012
489.542	0.0115
489.846	0.0116
490.15	0.012
490.454	0.0129
490.758	0.0114
491.062	0.0107
491.366	0.0117
491.669	0.0113
491.973	0.0107
492.276	0.0107
492.58	0.0104
492.883	0.0117
493.186	0.0099
493.489	0.0107
493.792	0.0093
494.096	0.0093
494.399	0.0096
494.701	0.0097
495.004	0.0082
495.307	0.0098
495.61	0.01
495.912	0.0094
496.215	0.0092
496.517	0.0103
496.82	0.0088
497.122	0.0089
497.424	0.0092
497.727	0.0092
498.029	0.0089
498.331	0.0089
498.633	0.0089
498.935	0.0081
499.237	0.0089
499.538	0.0084
499.84	0.008
500.142	0.0075
500.443	0.0086
500.745	0.008
501.046	0.0085
501.348	0.007
501.649	0.0075
501.95	0.0073
502.251	0.0074
502.552	0.0069
502.853	0.008
503.154	0.0077
503.455	0.0073
503.756	0.0072
504.057	0.0063
504.357	0.0069
504.658	0.0066
504.958	0.0065
505.259	0.0062
505.559	0.006
505.859	0.0058
506.16	0.0047
506.46	0.0061
506.76	0.006
507.06	0.0053
507.36	0.0052
507.66	0.0064
507.96	0.0069
508.259	0.0055
508.559	0.0053
508.859	0.006
509.158	0.0061
509.457	0.005
509.757	0.0055
510.056	0.0055
510.355	0.0056
510.655	0.0045
510.954	0.0052
511.253	0.0056
511.552	0.005
511.851	0.005
512.149	0.0051
512.448	0.0047
512.747	0.0045
513.045	0.0042
513.344	0.0043
513.642	0.0047
513.941	0.0049
514.239	0.0051
514.537	0.0044
514.836	0.0049
515.134	0.0046
515.432	0.004
515.73	0.0046
516.028	0.0039
516.326	0.0038
516.623	0.0034
516.921	0.0038
517.219	0.0048
517.516	0.0041
517.814	0.004
518.111	0.0031
518.409	0.0049
518.706	0.0044
519.003	0.0027
519.3	0.0033
519.597	0.0038
519.894	0.004
520.191	0.0047
520.488	0.0058
520.785	0.0049
521.082	0.0057
521.378	0.0044
521.675	0.0036
521.971	0.0037
522.268	0.0039
522.564	0.0045
522.861	0.0052
523.157	0.0036
523.453	0.0043
523.749	0.0033
524.045	0.0034
524.341	0.004
524.637	0.0039
524.933	0.004
525.229	0.0033
525.524	0.0034
525.82	0.0039
526.115	0.0033
526.411	0.0031
526.706	0.0031
527.002	0.0043
527.297	0.0023
527.592	0.0038
527.887	0.0029
528.182	0.0028
528.477	0.0037
528.772	0.003
529.067	0.0038
529.362	0.0039
529.657	0.0033
529.951	0.004
530.246	0.003
530.54	0.0032
530.835	0.004
531.129	0.0039
531.423	0.0034
531.718	0.003
532.012	0.0035
532.306	0.0037
532.6	0.0032
532.894	0.0032
533.188	0.0029
533.482	0.0036
533.775	0.0025
534.069	0.003
534.363	0.0026
534.656	0.0033
534.95	0.003
535.243	0.0031
535.536	0.0028
535.83	0.0023
536.123	0.0016
536.416	0.003
536.709	0.0041
537.002	0.0039
537.295	0.0035
537.588	0.0029
537.881	0.0032
538.173	0.0028
538.466	0.0022
538.759	0.003
539.051	0.0029
539.344	0.0032
539.636	0.0034
539.928	0.0043
540.22	0.0022
540.513	0.0036
540.805	0.0032
541.097	0.0042
541.389	0.003
541.681	0.0026
541.972	0.0027
542.264	0.0032
542.556	0.0025
542.847	0.003
543.139	0.0028
543.431	0.0031
543.722	0.0023
544.013	0.0023
544.305	0.0023
544.596	0.0031
544.887	0.0039
545.178	0.0042
545.469	0.0026
545.76	0.004
546.051	0.0038
546.342	0.0027
546.632	0.0033
546.923	0.0034
547.214	0.0027
547.504	0.0033
547.795	0.003
548.085	0.0034
548.375	0.0036
548.666	0.0036
548.956	0.0029
549.246	0.0045
549.536	0.0051
549.826	0.0047
550.116	0.0046
550.406	0.0039
550.695	0.0041
550.985	0.0043
551.275	0.0039
551.564	0.0053
551.854	0.0052
552.143	0.0044
552.433	0.0042
552.722	0.0039
553.011	0.0046
553.3	0.0041
553.589	0.0051
553.879	0.0041
554.167	0.0042
554.456	0.0034
554.745	0.0041
555.034	0.0049
555.323	0.0035
555.611	0.0041
555.9	0.0039
556.188	0.0027
556.477	0.0021
556.765	0.0049
557.053	0.0039
557.342	0.0029
557.63	0.0043
557.918	0.0038
558.206	0.0045
558.494	0.0044
558.782	0.0043
559.069	0.0048
559.357	0.0039
559.645	0.0039
559.932	0.004
560.22	0.0035
560.507	0.0018
560.795	0.0029
561.082	0.0024
561.37	0.0025
561.657	0.003
561.944	0.0025
562.231	0.0032
562.518	0.004
562.805	0.0052
563.092	0.0036
563.379	0.0032
563.665	0.0028
563.952	0.0047
564.239	0.004
564.525	0.0042
564.811	0.003
565.098	0.0043
565.384	0.0034
565.67	0.0043
565.957	0.0045
566.243	0.0049
566.529	0.0041
566.815	0.005
567.101	0.0037
567.387	0.0031
567.672	0.0038
567.958	0.003
568.244	0.0022
568.529	0.0036
568.815	0.0042
569.1	0.0031
569.386	0.0036
569.671	0.0034
569.956	0.0028
570.242	0.0026
570.527	0.002
570.812	0.0027
571.097	0.0027
571.382	0.0017
571.666	0.0016
571.951	0.0024
572.236	0.0026
572.521	0.0031
572.805	0.0038
573.09	0.003
573.374	0.0015
573.659	0.0021
573.943	0.0028
574.227	0.003
574.511	0.0024
574.795	0.0028
575.079	0.0036
575.363	0.0033
575.647	0.0033
575.931	0.0037
576.215	0.0027
576.499	0.0024
576.782	0.0023
577.066	0.0029
577.349	0.003
577.633	0.003
577.916	0.0021
578.2	0.0028
578.483	0.0038
578.766	0.0043
579.049	0.0038
579.332	0.0031
579.615	0.0021
579.898	0.0021
580.181	0.0035
580.464	0.003
580.746	0.0034
581.029	0.0025
581.312	0.001
581.594	0.0009
581.877	0.0025
582.159	0.0044
582.441	0.0026
582.724	0.0037
583.006	0.0038
583.288	0.004
583.57	0.003
583.852	0.0037
584.134	0.003
584.416	0.0024
584.697	0.002
584.979	0.0016
585.261	0.002
585.542	0.0026
585.824	0.0037
586.105	0.0032
586.387	0.0036
586.668	0.0031
586.949	0.0034
587.231	0.0033
587.512	0.0027
587.793	0.0026
588.074	0.004
588.355	0.0033
588.636	0.003
588.916	0.0033
589.197	0.0033
589.478	0.0032
589.758	0.0021
590.039	0.0025
590.319	0.0023
590.6	0.0025
590.88	0.0024
591.16	0.0028
591.441	0.0035
591.721	0.0024
592.001	0.002
592.281	0.0023
592.561	0.0031
592.841	0.0016
593.12	0.0022
593.4	0.003
593.68	0.0025
593.959	0.0028
594.239	0.0032
594.518	0.0048
594.798	0.0038
595.077	0.0029
595.356	0.0034
595.636	0.0032
595.915	0.0031
596.194	0.0032
596.473	0.0033
596.752	0.0029
597.031	0.0032
597.31	0.0023
597.588	0.003
597.867	0.0027
598.146	0.002
598.424	0.0021
598.703	0.0023
598.981	0.0013
599.259	0.0015
599.538	0.0033
599.816	0.003
600.094	0.0024
600.372	0.0023
600.65	0.004
600.928	0.0034
601.206	0.0022
601.484	0.0029
601.762	0.0038
602.04	0.0048
602.317	0.0036
602.595	0.0044
602.872	0.0036
603.15	0.0043
603.427	0.0015
603.704	0.0013
603.982	0.0024
604.259	0.0016
604.536	0.0021
604.813	0.0019
605.09	0.0022
605.367	0.002
605.644	0.0016
605.921	0.002
606.197	0.0011
606.474	0.0021
606.751	0.002
607.027	0.0022
607.304	0.0017
607.58	0.0019
607.856	0.003
608.133	0.0034
608.409	0.0042
608.685	0.0036
608.961	0.0034
609.237	0.0039
609.513	0.0046
609.789	0.0022
610.065	0.0025
610.341	0.0027
610.616	0.004
610.892	0.0033
611.167	0.0031
611.443	0.0026
611.718	0.0027
611.994	0.0029
612.269	0.0028
612.544	0.0027
612.819	0.0017
613.095	0.0023
613.37	0.0005
613.645	0.001
613.919	0.003
614.194	0.0028
614.469	0.002
614.744	0.0012
615.019	0.0013
615.293	0.0014
615.568	0.0017
615.842	0.0021
616.116	0.0021
616.391	0.0017
616.665	0.001
616.939	0.0011
617.213	0.0019
617.488	0.002
617.762	0.0021
618.035	0.0023
618.309	0.0024
618.583	0.0038
618.857	0.0033
619.131	0.0033
619.404	0.0031
619.678	0.0039
619.951	0.0031
620.225	0.0012
620.498	0.002
620.771	0.0012
621.045	0.0027
621.318	0.0031
621.591	0.0023
621.864	0.0014
622.137	0.0005
622.41	0.0015
622.683	0.002
622.956	0.0017
623.228	0.0029
623.501	0.0033
623.774	0.0034
624.046	0.0033
624.319	0.0029
624.591	0.0027
624.863	0.0026
625.136	0.0042
625.408	0.0043
625.68	0.0036
625.952	0.003
626.224	0.0041
626.496	0.0041
626.768	0.0035
627.04	0.0038
627.311	0.0034
627.583	0.0052
627.855	0.0047
628.126	0.0039
628.398	0.0034
628.669	0.0041
628.941	0.0017
629.212	0.0012
629.483	0.0024
629.755	0.0018
630.026	0.0023
630.297	0.0026
630.568	0.0042
630.839	0.0043
631.11	0.0047
631.38	0.0052
631.651	0.0043
631.922	0.004
632.192	0.0036
632.463	0.0045
632.733	0.0027
633.004	0.004
633.274	0.0036
633.545	0.0035
633.815	0.0042
634.085	0.0051
634.355	0.004
634.625	0.0047
634.895	0.0041
635.165	0.0036
635.435	0.0038
635.705	0.0038
635.974	0.0029
636.244	0.0028
636.514	0.0021
636.783	0.0019
637.053	0.0023
637.322	0.0022
637.591	0.0019
637.861	0.0009
638.13	0.0018
638.399	0.0034
638.668	0.0034
638.937	0.005
639.206	0.0039
639.475	0.0054
639.744	0.0036
640.013	0.0037
640.281	0.0038
640.55	0.0037
640.819	0.0035
641.087	0.0039
641.356	0.0035
641.624	0.0036
641.892	0.0043
642.161	0.0049
642.429	0.0042
642.697	0.0042
642.965	0.0033
643.233	0.002
643.501	0.0031
643.769	0.0038
644.037	0.0027
644.305	0.0033
644.572	0.0031
644.84	0.0033
645.108	0.004
645.375	0.0036
645.643	0.0035
645.91	0.0032
646.177	0.0034
646.445	0.0024
646.712	0.0034
646.979	0.0027
647.246	0.0048
647.513	0.0032
647.78	0.003
648.047	0.0014
648.314	0.0012
648.58	0.0002
648.847	-0.0009
649.114	-0.0006
649.38	-0.0002
649.647	-0.0001
649.913	0.0011
650.18	0.0015
650.446	0.0024
650.712	0.0033
650.978	0.0045
651.245	0.0042
651.511	0.0048
651.777	0.0038
652.043	0.0035
652.309	0.0034
652.574	0.0026
652.84	0.0039
653.106	0.0047
653.371	0.0051
653.637	0.0047
653.903	0.0046
654.168	0.0044
654.433	0.0043
654.699	0.0034
654.964	0.0028
655.229	0.0028
655.494	0.002
655.759	-0.0029
656.024	0.0003
656.289	-0
656.554	0.0033
656.819	0.0042
657.084	0.0053
657.349	0.0053
657.613	0.0042
657.878	0.0029
658.142	0.0023
658.407	0.0026
658.671	0.002
658.936	0.0024
659.2	0.0034
659.464	0.0031
659.728	0.0029
659.992	0.0024
660.256	0.0012
660.52	0.0017
660.784	0.0025
661.048	0.0027
661.312	0.0029
661.575	0.0027
661.839	0.0044
662.103	0.0038
662.366	0.0033
662.63	0.0029
662.893	0.0019
663.156	0.0031
663.42	0.0041
663.683	0.0034
663.946	0.0047
664.209	0.0056
664.472	0.0046
664.735	0.0047
664.998	0.0054
665.261	0.0064
665.524	0.0059
665.786	0.0047
666.049	0.0051
666.312	0.0043
666.574	0.0044
666.837	0.0055
667.099	0.0039
667.361	0.0049
667.624	0.0048
667.886	0.0041
668.148	0.005
668.41	0.0051
668.672	0.0055
668.934	0.0049
669.196	0.0037
669.458	0.0028
669.72	0.0031
669.982	0.0032
670.243	0.0031
670.505	0.0029
670.766	0.0028
671.028	0.0035
671.289	0.0036
671.551	0.0037
671.812	0.002
672.073	0.0035
672.334	0.0034
672.596	0.0039
672.857	0.0042
673.118	0.0042
673.379	0.0054
673.639	0.0052
673.9	0.0055
674.161	0.0054
674.422	0.0049
674.682	0.0041
674.943	0.0046
675.203	0.0049
675.464	0.0042
675.724	0.0033
675.985	0.0032
676.245	0.0028
676.505	0.0021
676.765	0.0019
677.025	0.0039
677.285	0.0024
677.545	0.0027
677.805	0.0016
678.065	0.0029
678.325	0.0032
678.585	0.0046
678.844	0.0039
679.104	0.0058
679.363	0.0052
679.623	0.0054
679.882	0.0053
680.142	0.0062
680.401	0.0057
680.66	0.0065
680.919	0.0049
681.178	0.0055
681.437	0.0039
681.696	0.0031
681.955	0.0063
682.214	0.0058
682.473	0.0063
682.732	0.0032
682.99	0.0063
683.249	0.0062
683.508	0.0054
683.766	0.0051
684.024	0.0048
684.283	0.0034
684.541	0.0029
684.799	0.0025
685.058	0.0006
685.316	0.0005
685.574	-0.0004
685.832	0.0008
686.09	0.0014
686.348	0.0006
686.606	0.0014
686.863	0.0004
687.121	0.0023
687.379	0.0017
687.636	0.0008
687.894	0.0017
688.151	0.0018
688.409	0.0017
688.666	0.0019
688.923	0.0024
689.181	0.0032
689.438	0.0021
689.695	0.0022
689.952	0.002
690.209	0.0017
690.466	0.0012
690.723	0.0015
690.979	0.0016
691.236	0.0009
691.493	-0.0009
691.75	0.0005
692.006	0.0004
692.263	0
692.519	-0.0013
692.775	-0.0018
693.032	-0.0016
693.288	-0.0023
693.544	-0.0009
693.8	0.0009
694.056	0.001
694.313	0.0008
694.568	0.0018
694.824	0.0007
695.08	0.0014
695.336	0.0014
695.592	0.0001
695.847	0.0031
696.103	0.0034
696.359	0.0043
696.614	0.0039
696.869	0.0021
697.125	0.0001
697.38	0.0004
697.635	0.002
697.891	0.0033
698.146	0.0027
698.401	0.0028
698.656	0.0022
698.911	0.0028
699.166	0.0031
699.42	0.0039
699.675	0.0051
699.93	0.0044
700.185	0.0048
700.439	0.0032
700.694	0.0028
700.948	0.0024
701.203	0.0031
701.457	0.0029
701.711	0.002
701.965	0.001
702.22	0.0015
702.474	0.0015
702.728	0.0004
702.982	0.0016
703.236	0.0027
703.49	0.0028
703.743	0.0023
703.997	0.0021
704.251	0.0012
704.504	0.0019
704.758	0.0016
705.012	0.0021
705.265	0.003
705.518	0.0027
705.772	0.004
706.025	0.0044
706.278	0.0037
706.531	0.0025
706.785	0.0007
707.038	0.0007
707.291	0.0013
707.543	0.0004
707.796	0.0012
708.049	0.0009
708.302	0.0004
708.555	0.0009
708.807	0.0026
709.06	0.0018
709.312	0.0033
709.565	0.0038
709.817	0.0053
710.069	0.0039
710.322	0.0042
710.574	0.0026
710.826	0.0024
711.078	0.0024
711.33	0.0025
711.582	0.0016
711.834	0.0012
712.086	0.0019
712.338	0.0018
712.59	0.0003
712.841	-0.0006
713.093	-0.0002
713.344	0.0004
713.596	-0.0001
713.847	-0.0003
714.099	-0.0001
714.35	0.0014
714.601	0.0008
714.853	-0.0003
715.104	0.0004
715.355	-0.0003
715.606	0.0013
715.857	0.0017
716.108	0.0028
716.359	0.0034
716.609	0.0021
716.86	0.0036
717.111	0.0021
717.361	0.0023
717.612	0.0024
717.863	0.0032
718.113	0.0029
718.363	0.0012
718.614	0.0028
718.864	0.0026
719.114	0.0022
719.364	0.0015
719.614	0.0011
719.865	0.0022
720.114	0.0035
720.364	0.0026
720.614	0.0023
720.864	0.0022
721.114	0.0015
721.364	0.0015
721.613	0.0013
721.863	0.0009
722.112	0.0011
722.362	0.0021
722.611	0.002
722.86	0.0038
723.11	0.0042
723.359	0.0034
723.608	0.0026
723.857	0.0038
724.106	0.0024
724.355	0.0026
724.604	0.0022
724.853	0.0012
725.102	0.0008
725.351	-0.0008
725.599	-0.0016
725.848	-0.0006
726.097	-0
726.345	0.0001
726.594	0.0012
726.842	0.0018
727.09	0.0003
727.339	-0.0008
727.587	-0.0004
727.835	-0.0001
728.083	-0.0002
728.331	0.0002
728.579	0.0017
728.827	-0.0001
729.075	-0.0011
729.323	-0.0009
729.571	-0.0014
729.818	-0.0025
730.066	-0.0016
730.314	-0.0007
730.561	-0.0012
730.809	-0.0021
731.056	-0.0027
731.303	-0.0018
731.551	-0.0012
731.798	-0.0016
732.045	0.0002
732.292	0.0003
732.539	0.0007
732.786	-0.001
733.033	-0.0014
733.28	-0.0006
733.527	-0.0012
733.774	-0.0015
734.021	-0.0021
734.267	-0.0012
734.514	-0.0018
734.76	-0.0012
735.007	-0.0002
735.253	0.0007
735.5	0.0019
735.746	0.0024
735.992	0.002
736.238	0.0029
736.485	0.002
736.731	0.0028
736.977	0.0015
737.223	0.0007
737.469	0.001
737.715	0.003
737.96	0.0033
738.206	0.003
738.452	0.0038
738.697	0.0025
738.943	0.0018
739.189	0.0016
739.434	-0.0001
739.679	0.0017
739.925	0.0037
740.17	0.005
740.415	0.0036
740.66	0.0036
740.906	0.0032
741.151	0.002
741.396	0.0019
741.641	0.0013
741.886	0.0015
742.13	0.0006
742.375	0.0017
742.62	-0.0001
742.865	-0.0001
743.109	0.0005
743.354	-0.0001
743.598	-0.0005
743.843	-0.0015
744.087	-0.0019
744.331	-0.0007
744.576	0.0003
744.82	0.0016
745.064	0.0012
745.308	0.0025
745.552	0.002
745.796	0
746.04	0.0005
746.284	-0.0004
746.528	0.0008
746.771	0.0013
747.015	0.0014
747.259	-0.0001
747.502	0.0001
747.746	0.0019
747.989	0.002
748.233	0.0033
748.476	0.0027
748.719	0.0025
748.963	0.0018
749.206	0.0012
749.449	0.0001
749.692	0.0008
749.935	0.0012
750.178	0.0012
750.421	0.0008
750.664	0.0007
750.906	0.0011
751.149	0.0007
751.392	0.0005
751.635	0.0015
751.877	0.0024
752.12	0.0019
752.362	0.0024
752.604	0.0025
752.847	0.002
753.089	0.0017
753.331	0.0017
753.573	0.0013
753.816	0.0024
754.058	0.0018
754.3	0.003
754.542	0.0038
754.783	0.0034
755.025	0.0035
755.267	0.0032
755.509	0.002
755.75	0.0002
755.992	0.0015
756.234	0.0014
756.475	0.0031
756.716	0.002
756.958	0.0012
757.199	0.0018
757.44	0.0028
757.682	0.0014
757.923	0.0019
758.164	0.0035
758.405	0.0033
758.646	0.0038
758.887	0.0036
759.128	0.0036
759.369	0.0021
759.609	0.0027
759.85	0.0019
760.091	0.0022
760.331	0.0022
760.572	0.0021
760.812	0.0011
761.053	0.002
761.293	0.0033
761.533	0.0039
761.774	0.0037
762.014	0.004
762.254	0.0026
762.494	0.0031
762.734	0.0025
762.974	0.0029
763.214	0.002
763.454	0.0028
763.694	0.0028
763.933	0.0043
764.173	0.0054
764.413	0.0043
764.652	0.002
764.892	0.0018
765.131	0.0013
765.371	0.0013
765.61	0.0008
765.849	-0.0001
766.089	-0.0012
766.328	0.0003
766.567	-0.0007
766.806	-0.0006
767.045	-0.0016
767.284	0.0007
767.523	0.0002
767.762	0.0003
768.001	-0.0006
768.239	-0.0006
768.478	-0.0009
768.717	-0.0006
768.955	0.0001
769.194	0
769.432	0.0017
769.671	0.0018
769.909	0.0009
770.148	0.0008
770.386	0.0001
770.624	0.0007
770.862	-0.0003
771.1	0.0002
771.338	-0.0007
771.576	-0.0001
771.814	0.0006
772.052	-0.0004
772.29	0.0017
772.528	0.0005
772.765	0.0005
773.003	0.0012
773.24	0.0017
773.478	0.0014
773.716	0.003
773.953	0.0023
774.19	0.0018
774.428	0.0031
774.665	0.0035
774.902	0.0031
775.139	0.0028
775.376	0.0026
775.613	0.0035
775.85	0.0052
776.087	0.0047
776.324	0.0043
776.561	0.0032
776.798	0.0035
777.034	0.0029
777.271	0.0031
777.508	0.0027
777.744	0.0033
777.981	0.0035
778.217	0.0032
778.454	0.0022
778.69	0.0033
778.926	0.0022
779.162	0.0031
779.399	0.0031
779.635	0.0028
779.871	0.0022
780.107	0.0014
780.343	0.0012
780.579	0.0018
780.814	0.0021
781.05	0.0022
781.286	0.0014
781.522	0.0008
781.757	0.0004
781.993	0.0014
782.228	0.0006
782.464	0.0009
782.699	0.0016
782.934	0.0013
783.17	0.0014
783.405	0.0018
783.64	0.0014
783.875	0.0013
784.11	0.0013
784.345	0.0022
784.58	0.003
784.815	0.0021
785.05	0.0019
785.285	0.0016
785.52	0.0013
785.754	0.0016
785.989	0.0026
786.223	0.0039
786.458	0.004
786.692	0.0042
786.927	0.0059
787.161	0.0052
787.396	0.0053
787.63	0.0041
787.864	0.0034
788.098	0.002
788.332	0.0023
788.566	0.0013
788.8	0.0023
789.034	0.0027
789.268	0.0021
789.502	0.0022
789.736	0.0029
789.969	0.0035
790.203	0.0027
790.437	0.0032
790.67	0.0047
790.904	0.0055
791.137	0.0062
791.37	0.0063
791.604	0.0063
791.837	0.007
792.07	0.0069
792.303	0.0074
792.537	0.0079
792.77	0.0075
793.003	0.0065
793.236	0.0052
793.469	0.0048
793.701	0.0033
793.934	0.0026
794.167	0.0016
794.4	0.001
794.632	0.0004
794.865	0.0005
795.097	0.0005
795.33	0.0011
795.562	0.0016
795.795	0.001
796.027	0.0017
796.259	0.0023
796.491	0.0017
796.724	0.0021
796.956	0.0016
797.188	0.0023
797.42	0.0021
797.652	0.0025
797.883	0.0017
798.115	0.0035
798.347	0.0029
798.579	0.0026
798.81	0.0034
799.042	0.0029
799.274	0.004
799.505	0.0033
799.737	0.003
799.968	0.0018
800.199	0.0022
800.431	0.003
800.662	0.0012
800.893	0.0026
801.124	0.0029
801.355	0.0035
801.586	0.0045
801.817	0.0068
802.048	0.0057
802.279	0.0067
802.51	0.0059
802.741	0.0076
802.971	0.0074
803.202	0.0059
803.433	0.0052
803.663	0.0051
803.894	0.0046
804.124	0.0042
804.354	0.0046
804.585	0.0058
804.815	0.0054
805.045	0.0061
805.275	0.0066
805.506	-0.0093
805.736	-0.0596
805.966	-0.2992
806.196	0.068
