Data from 03 0.4 mM K2Cr2O7 0.25 M BQDS 1 M H2SO4 5 min_Absorbance_0045.txt Node
Date: Tue Dec 14 21:15:13 EST 2021
User: kwabilab-user
Spectrometer: HDX00518
Trigger mode: 0
Integration Time (sec): 5.000000E-2
Scans to average: 50
Nonlinearity correction enabled: false
Boxcar width: 0
Storing dark spectrum: false
XAxis mode: Wavelengths
Number of Pixels in Spectrum: 2068
>>>>>Begin Spectral Data<<<<<
195.27	-0.1477
195.642	-0.2366
196.014	-0.3304
196.386	-0.1066
196.758	-0.0811
197.129	-0.0178
197.501	-0.0211
197.872	0.0091
198.244	-0.007
198.615	0.0404
198.986	0.0179
199.357	0.0316
199.728	0.0364
200.099	0.0169
200.47	0.0037
200.841	-0.0015
201.212	0.0168
201.582	0.0276
201.953	0.0276
202.323	0.043
202.694	0.018
203.064	0.0008
203.434	0.0043
203.804	0.0103
204.174	0.0056
204.544	0.0422
204.914	0.0013
205.284	0.0193
205.653	0.0173
206.023	0.0171
206.393	0.013
206.762	0.0201
207.131	0.0281
207.501	0.0271
207.87	0.0178
208.239	0.0023
208.608	0.0087
208.977	0.0082
209.346	0.0192
209.715	0.0273
210.083	0.0272
210.452	0.0045
210.82	0.0198
211.189	0.0035
211.557	0.0249
211.925	0.0027
212.294	0.0206
212.662	0.0232
213.03	0.0051
213.398	0.0164
213.766	0.0156
214.133	0.0267
214.501	0.0126
214.869	0.0249
215.236	0.0313
215.604	0.0357
215.971	0.0246
216.338	0.0167
216.705	0.0355
217.072	0.0556
217.439	0.0332
217.806	0.0732
218.173	0.0542
218.54	0.0305
218.907	0.0527
219.273	0.0563
219.64	0.0709
220.006	0.0694
220.373	0.0845
220.739	0.0975
221.105	0.1234
221.471	0.1353
221.837	0.147
222.203	0.1719
222.569	0.1748
222.935	0.1934
223.3	0.2259
223.666	0.2369
224.031	0.2694
224.397	0.2977
224.762	0.3136
225.127	0.3503
225.493	0.3474
225.858	0.4156
226.223	0.4201
226.588	0.4233
226.952	0.4486
227.317	0.4796
227.682	0.4982
228.046	0.4968
228.411	0.536
228.775	0.5489
229.14	0.548
229.504	0.5549
229.868	0.5721
230.232	0.5694
230.596	0.6035
230.96	0.619
231.324	0.6201
231.688	0.6138
232.052	0.6353
232.415	0.6288
232.779	0.6487
233.142	0.6559
233.505	0.6476
233.869	0.6616
234.232	0.6474
234.595	0.6433
234.958	0.6502
235.321	0.6524
235.684	0.6517
236.047	0.6547
236.409	0.6374
236.772	0.6414
237.134	0.6491
237.497	0.6334
237.859	0.6513
238.222	0.6451
238.584	0.6431
238.946	0.6278
239.308	0.6398
239.67	0.6223
240.032	0.6341
240.393	0.6316
240.755	0.6189
241.117	0.6238
241.478	0.6206
241.84	0.6218
242.201	0.6235
242.562	0.6164
242.924	0.6062
243.285	0.6099
243.646	0.6042
244.007	0.6036
244.368	0.6047
244.728	0.6032
245.089	0.6023
245.45	0.5976
245.81	0.6008
246.171	0.5875
246.531	0.592
246.891	0.595
247.252	0.5872
247.612	0.595
247.972	0.591
248.332	0.5867
248.692	0.5922
249.051	0.5829
249.411	0.5867
249.771	0.5863
250.13	0.5845
250.49	0.5853
250.849	0.5814
251.208	0.5829
251.568	0.5749
251.927	0.5839
252.286	0.5846
252.645	0.5763
253.004	0.5798
253.363	0.5788
253.721	0.5794
254.08	0.5827
254.439	0.5777
254.797	0.5757
255.155	0.5788
255.514	0.5753
255.872	0.5772
256.23	0.5694
256.588	0.5796
256.946	0.576
257.304	0.5739
257.662	0.5807
258.02	0.5787
258.377	0.5745
258.735	0.5769
259.093	0.5659
259.45	0.5683
259.807	0.5766
260.165	0.5721
260.522	0.5747
260.879	0.5657
261.236	0.568
261.593	0.5635
261.95	0.5632
262.306	0.5663
262.663	0.5622
263.02	0.5598
263.376	0.5604
263.733	0.5584
264.089	0.5561
264.445	0.5509
264.802	0.551
265.158	0.5554
265.514	0.5506
265.87	0.5522
266.226	0.5428
266.581	0.5479
266.937	0.5475
267.293	0.5409
267.648	0.5371
268.004	0.537
268.359	0.5331
268.714	0.53
269.07	0.5279
269.425	0.5267
269.78	0.5227
270.135	0.5227
270.49	0.519
270.844	0.5154
271.199	0.5143
271.554	0.5081
271.908	0.5035
272.263	0.5071
272.617	0.5035
272.972	0.4964
273.326	0.4977
273.68	0.4885
274.034	0.4909
274.388	0.4886
274.742	0.4842
275.096	0.4799
275.45	0.4779
275.803	0.4701
276.157	0.4687
276.51	0.4648
276.864	0.4615
277.217	0.4593
277.571	0.4571
277.924	0.4508
278.277	0.4474
278.63	0.4426
278.983	0.4422
279.336	0.4356
279.688	0.4347
280.041	0.423
280.394	0.4202
280.746	0.4187
281.099	0.4145
281.451	0.4097
281.803	0.4051
282.156	0.4018
282.508	0.3956
282.86	0.3946
283.212	0.3905
283.564	0.3851
283.916	0.3792
284.267	0.3786
284.619	0.3738
284.971	0.369
285.322	0.3693
285.673	0.3626
286.025	0.3583
286.376	0.3555
286.727	0.3492
287.078	0.346
287.429	0.3468
287.78	0.3377
288.131	0.3364
288.482	0.3317
288.833	0.328
289.183	0.325
289.534	0.3202
289.884	0.3177
290.235	0.3127
290.585	0.3125
290.935	0.3059
291.285	0.3029
291.635	0.2992
291.985	0.2954
292.335	0.2917
292.685	0.288
293.035	0.2831
293.384	0.2789
293.734	0.2758
294.083	0.2738
294.433	0.2709
294.782	0.2677
295.131	0.263
295.48	0.2595
295.829	0.2561
296.179	0.253
296.527	0.2498
296.876	0.2476
297.225	0.2412
297.574	0.2385
297.922	0.2367
298.271	0.2331
298.619	0.2289
298.968	0.2275
299.316	0.2226
299.664	0.2209
300.012	0.2184
300.36	0.215
300.708	0.2125
301.056	0.2093
301.404	0.2075
301.752	0.2042
302.099	0.2027
302.447	0.199
302.794	0.1965
303.142	0.1934
303.489	0.1917
303.836	0.1903
304.183	0.1874
304.531	0.1856
304.878	0.1835
305.224	0.1807
305.571	0.1795
305.918	0.1775
306.265	0.1746
306.611	0.1731
306.958	0.1736
307.304	0.1713
307.651	0.1694
307.997	0.1679
308.343	0.1665
308.689	0.1651
309.035	0.1643
309.381	0.1625
309.727	0.162
310.073	0.161
310.419	0.1602
310.764	0.1598
311.11	0.1592
311.455	0.1573
311.801	0.1569
312.146	0.1557
312.491	0.156
312.837	0.1556
313.182	0.1542
313.527	0.1537
313.872	0.1541
314.216	0.1542
314.561	0.1526
314.906	0.1534
315.251	0.1538
315.595	0.1533
315.94	0.1525
316.284	0.1528
316.628	0.1525
316.972	0.1532
317.317	0.153
317.661	0.1541
318.005	0.1535
318.348	0.1538
318.692	0.1545
319.036	0.1539
319.38	0.155
319.723	0.1557
320.067	0.1558
320.41	0.156
320.754	0.1575
321.097	0.1565
321.44	0.1583
321.783	0.1592
322.126	0.1602
322.469	0.1603
322.812	0.1614
323.155	0.161
323.498	0.1624
323.84	0.1637
324.183	0.1646
324.525	0.1658
324.868	0.1671
325.21	0.1676
325.552	0.1686
325.894	0.1695
326.236	0.1698
326.578	0.1712
326.92	0.1722
327.262	0.173
327.604	0.1744
327.946	0.1756
328.287	0.1762
328.629	0.1779
328.97	0.1786
329.312	0.1799
329.653	0.1812
329.994	0.1822
330.335	0.1832
330.676	0.1848
331.017	0.185
331.358	0.1877
331.699	0.1886
332.04	0.1895
332.38	0.1908
332.721	0.1921
333.061	0.1936
333.402	0.1948
333.742	0.1952
334.083	0.1966
334.423	0.1977
334.763	0.1988
335.103	0.1996
335.443	0.2017
335.783	0.2017
336.123	0.2032
336.462	0.2029
336.802	0.2039
337.141	0.2047
337.481	0.2059
337.82	0.2073
338.16	0.2085
338.499	0.2096
338.838	0.211
339.177	0.211
339.516	0.2118
339.855	0.2128
340.194	0.2143
340.533	0.2134
340.872	0.2148
341.21	0.216
341.549	0.2166
341.887	0.2175
342.226	0.2174
342.564	0.2185
342.902	0.2184
343.24	0.219
343.578	0.22
343.916	0.2195
344.254	0.2197
344.592	0.2206
344.93	0.2209
345.268	0.2203
345.605	0.221
345.943	0.2217
346.28	0.2209
346.618	0.2198
346.955	0.2208
347.292	0.2219
347.629	0.2217
347.966	0.2212
348.303	0.2215
348.64	0.2221
348.977	0.2218
349.314	0.2219
349.65	0.2217
349.987	0.2219
350.324	0.2208
350.66	0.2217
350.996	0.2203
351.333	0.2204
351.669	0.2196
352.005	0.2198
352.341	0.2176
352.677	0.2182
353.013	0.2171
353.349	0.2162
353.685	0.2147
354.02	0.2137
354.356	0.2134
354.691	0.2122
355.027	0.2117
355.362	0.2102
355.697	0.2099
356.033	0.2095
356.368	0.2079
356.703	0.2076
357.038	0.2064
357.373	0.2045
357.707	0.2058
358.042	0.2031
358.377	0.2035
358.711	0.2024
359.046	0.2012
359.38	0.2003
359.715	0.1993
360.049	0.1981
360.383	0.1964
360.717	0.1955
361.051	0.1945
361.385	0.1939
361.719	0.192
362.053	0.1911
362.387	0.1887
362.72	0.1882
363.054	0.1868
363.387	0.1853
363.721	0.1835
364.054	0.1822
364.387	0.1801
364.721	0.1796
365.054	0.1773
365.387	0.1765
365.72	0.1751
366.053	0.1734
366.385	0.171
366.718	0.1705
367.051	0.1687
367.383	0.168
367.716	0.1666
368.048	0.1658
368.381	0.1646
368.713	0.1632
369.045	0.1629
369.377	0.161
369.709	0.1601
370.041	0.1586
370.373	0.1579
370.705	0.1562
371.037	0.1547
371.368	0.1533
371.7	0.1519
372.031	0.1511
372.363	0.1493
372.694	0.1472
373.025	0.1459
373.356	0.1444
373.688	0.143
374.019	0.1409
374.35	0.139
374.68	0.1373
375.011	0.1353
375.342	0.1332
375.673	0.1322
376.003	0.13
376.334	0.1293
376.664	0.128
376.995	0.126
377.325	0.125
377.655	0.1229
377.985	0.1217
378.315	0.1211
378.645	0.1196
378.975	0.1185
379.305	0.1172
379.635	0.1169
379.964	0.1154
380.294	0.1143
380.623	0.1129
380.953	0.1114
381.282	0.1107
381.611	0.1101
381.941	0.1088
382.27	0.1077
382.599	0.1072
382.928	0.1049
383.257	0.1039
383.585	0.103
383.914	0.1009
384.243	0.0999
384.571	0.0984
384.9	0.0967
385.228	0.0948
385.557	0.0941
385.885	0.0927
386.213	0.0917
386.541	0.0899
386.869	0.089
387.197	0.0875
387.525	0.0862
387.853	0.0846
388.181	0.0832
388.508	0.0823
388.836	0.0813
389.164	0.0804
389.491	0.0785
389.818	0.0772
390.146	0.0768
390.473	0.0762
390.8	0.0752
391.127	0.0736
391.454	0.0733
391.781	0.0722
392.108	0.0714
392.435	0.07
392.761	0.0698
393.088	0.0687
393.415	0.0682
393.741	0.0674
394.067	0.0675
394.394	0.0664
394.72	0.0648
395.046	0.064
395.372	0.0631
395.698	0.0628
396.024	0.0618
396.35	0.0608
396.676	0.06
397.001	0.0588
397.327	0.0585
397.653	0.0579
397.978	0.0572
398.303	0.0559
398.629	0.0553
398.954	0.0546
399.279	0.0547
399.604	0.0533
399.929	0.0534
400.254	0.0522
400.579	0.0516
400.904	0.0508
401.229	0.0505
401.553	0.0498
401.878	0.0498
402.202	0.0494
402.527	0.0488
402.851	0.0487
403.175	0.047
403.5	0.0471
403.824	0.046
404.148	0.0462
404.472	0.0465
404.796	0.0455
405.119	0.046
405.443	0.0456
405.767	0.0452
406.09	0.0449
406.414	0.0438
406.737	0.0446
407.061	0.044
407.384	0.0444
407.707	0.0439
408.03	0.0434
408.353	0.0437
408.676	0.0427
408.999	0.0427
409.322	0.0422
409.645	0.0421
409.968	0.042
410.29	0.0422
410.613	0.0424
410.935	0.0418
411.258	0.042
411.58	0.0414
411.902	0.0415
412.224	0.0414
412.546	0.0412
412.868	0.0418
413.19	0.0412
413.512	0.0411
413.834	0.0411
414.156	0.0415
414.477	0.0403
414.799	0.0409
415.121	0.0398
415.442	0.0402
415.763	0.0404
416.085	0.0407
416.406	0.0401
416.727	0.0408
417.048	0.0407
417.369	0.0406
417.69	0.04
418.011	0.0401
418.331	0.041
418.652	0.0404
418.973	0.04
419.293	0.0399
419.614	0.0397
419.934	0.0407
420.254	0.0404
420.574	0.0396
420.895	0.0402
421.215	0.0394
421.535	0.0398
421.855	0.0391
422.174	0.0389
422.494	0.0398
422.814	0.0398
423.134	0.0399
423.453	0.0401
423.773	0.0407
424.092	0.0403
424.411	0.0403
424.731	0.04
425.05	0.04
425.369	0.0396
425.688	0.0395
426.007	0.0403
426.326	0.0401
426.644	0.04
426.963	0.0399
427.282	0.0399
427.6	0.0401
427.919	0.0397
428.237	0.0399
428.556	0.0405
428.874	0.04
429.192	0.0398
429.51	0.0393
429.828	0.04
430.146	0.0397
430.464	0.0395
430.782	0.0404
431.1	0.039
431.418	0.0394
431.735	0.0393
432.053	0.0399
432.37	0.0399
432.688	0.0393
433.005	0.0389
433.322	0.0399
433.639	0.0399
433.957	0.04
434.274	0.0399
434.591	0.0396
434.907	0.0394
435.224	0.0404
435.541	0.0396
435.858	0.0403
436.174	0.0395
436.491	0.0392
436.807	0.0393
437.124	0.0396
437.44	0.0388
437.756	0.0394
438.072	0.0394
438.388	0.0392
438.704	0.0396
439.02	0.0392
439.336	0.0387
439.652	0.0391
439.968	0.0392
440.283	0.0391
440.599	0.0393
440.914	0.0394
441.23	0.0386
441.545	0.0385
441.86	0.0383
442.175	0.0392
442.491	0.0388
442.806	0.0387
443.121	0.0384
443.435	0.0386
443.75	0.038
444.065	0.038
444.38	0.0386
444.694	0.0381
445.009	0.0377
445.323	0.0384
445.638	0.0379
445.952	0.038
446.266	0.0376
446.58	0.0365
446.894	0.0379
447.208	0.037
447.522	0.0369
447.836	0.0377
448.15	0.0371
448.464	0.037
448.777	0.0366
449.091	0.0366
449.404	0.0366
449.718	0.037
450.031	0.0358
450.345	0.0364
450.658	0.0363
450.971	0.0365
451.284	0.0355
451.597	0.0363
451.91	0.036
452.223	0.0357
452.535	0.0357
452.848	0.0356
453.161	0.0354
453.473	0.0358
453.786	0.0352
454.098	0.0351
454.411	0.0353
454.723	0.0352
455.035	0.0344
455.347	0.0343
455.659	0.0345
455.971	0.0349
456.283	0.0355
456.595	0.0352
456.907	0.0354
457.218	0.0351
457.53	0.0335
457.841	0.0333
458.153	0.0336
458.464	0.0339
458.776	0.0339
459.087	0.0336
459.398	0.034
459.709	0.0321
460.02	0.034
460.331	0.0337
460.642	0.0325
460.953	0.0326
461.263	0.033
461.574	0.0317
461.885	0.0323
462.195	0.0313
462.506	0.0325
462.816	0.0323
463.126	0.0315
463.437	0.0311
463.747	0.0316
464.057	0.03
464.367	0.0303
464.677	0.0302
464.987	0.0302
465.296	0.0297
465.606	0.0297
465.916	0.0296
466.225	0.0299
466.535	0.0289
466.844	0.0306
467.154	0.0297
467.463	0.0295
467.772	0.0285
468.081	0.029
468.39	0.0293
468.699	0.0281
469.008	0.0288
469.317	0.0286
469.626	0.0284
469.935	0.0274
470.243	0.028
470.552	0.0276
470.86	0.0272
471.169	0.0271
471.477	0.0257
471.785	0.026
472.093	0.026
472.402	0.0259
472.71	0.0255
473.018	0.0258
473.326	0.0264
473.633	0.0258
473.941	0.0249
474.249	0.0257
474.556	0.0247
474.864	0.0246
475.171	0.0248
475.479	0.0245
475.786	0.0248
476.094	0.0243
476.401	0.024
476.708	0.0237
477.015	0.0241
477.322	0.0231
477.629	0.023
477.936	0.0234
478.242	0.0231
478.549	0.0229
478.856	0.023
479.162	0.0229
479.469	0.0225
479.775	0.022
480.081	0.0213
480.388	0.0214
480.694	0.0218
481	0.0212
481.306	0.0209
481.612	0.0217
481.918	0.0222
482.224	0.0215
482.53	0.0207
482.835	0.0208
483.141	0.0204
483.446	0.0208
483.752	0.0197
484.057	0.0189
484.363	0.0195
484.668	0.0198
484.973	0.0191
485.278	0.0187
485.583	0.0184
485.888	0.0191
486.193	0.0176
486.498	0.0179
486.803	0.0181
487.107	0.0175
487.412	0.0164
487.717	0.0172
488.021	0.0176
488.325	0.0164
488.63	0.018
488.934	0.0166
489.238	0.0163
489.542	0.0164
489.846	0.0164
490.15	0.0168
490.454	0.0172
490.758	0.0161
491.062	0.0155
491.366	0.0152
491.669	0.016
491.973	0.0155
492.276	0.0152
492.58	0.0152
492.883	0.0149
493.186	0.0144
493.489	0.0151
493.792	0.0142
494.096	0.0135
494.399	0.0143
494.701	0.0154
495.004	0.0135
495.307	0.0142
495.61	0.0142
495.912	0.0141
496.215	0.0132
496.517	0.0143
496.82	0.0136
497.122	0.0134
497.424	0.0133
497.727	0.0123
498.029	0.0115
498.331	0.0124
498.633	0.0124
498.935	0.0126
499.237	0.0125
499.538	0.0119
499.84	0.0119
500.142	0.0115
500.443	0.0112
500.745	0.011
501.046	0.0118
501.348	0.0111
501.649	0.0108
501.95	0.0109
502.251	0.0116
502.552	0.0106
502.853	0.0105
503.154	0.0112
503.455	0.0103
503.756	0.0101
504.057	0.01
504.357	0.0098
504.658	0.0101
504.958	0.0098
505.259	0.0097
505.559	0.0096
505.859	0.0087
506.16	0.0083
506.46	0.0094
506.76	0.0084
507.06	0.0082
507.36	0.0078
507.66	0.009
507.96	0.0096
508.259	0.0086
508.559	0.0085
508.859	0.0092
509.158	0.0087
509.457	0.0078
509.757	0.0081
510.056	0.0081
510.355	0.0076
510.655	0.0078
510.954	0.0071
511.253	0.0075
511.552	0.0073
511.851	0.0071
512.149	0.0069
512.448	0.0065
512.747	0.0068
513.045	0.0066
513.344	0.0075
513.642	0.0073
513.941	0.0075
514.239	0.0059
514.537	0.0064
514.836	0.0062
515.134	0.007
515.432	0.0063
515.73	0.0065
516.028	0.0067
516.326	0.0064
516.623	0.0048
516.921	0.0051
517.219	0.0069
517.516	0.0051
517.814	0.0061
518.111	0.0067
518.409	0.0059
518.706	0.0054
519.003	0.0049
519.3	0.0048
519.597	0.0058
519.894	0.0051
520.191	0.0068
520.488	0.0061
520.785	0.0061
521.082	0.0058
521.378	0.0061
521.675	0.0043
521.971	0.0046
522.268	0.0048
522.564	0.0043
522.861	0.0061
523.157	0.0057
523.453	0.0051
523.749	0.0046
524.045	0.005
524.341	0.0046
524.637	0.0045
524.933	0.0054
525.229	0.0057
525.524	0.0044
525.82	0.0044
526.115	0.0044
526.411	0.0051
526.706	0.0043
527.002	0.0053
527.297	0.0032
527.592	0.005
527.887	0.0037
528.182	0.0036
528.477	0.0053
528.772	0.0035
529.067	0.0044
529.362	0.0045
529.657	0.0038
529.951	0.0043
530.246	0.0036
530.54	0.0034
530.835	0.0043
531.129	0.0035
531.423	0.0038
531.718	0.0029
532.012	0.0039
532.306	0.0035
532.6	0.003
532.894	0.0034
533.188	0.0034
533.482	0.0039
533.775	0.0026
534.069	0.0038
534.363	0.0036
534.656	0.0032
534.95	0.0034
535.243	0.0023
535.536	0.0027
535.83	0.0024
536.123	0.0025
536.416	0.0036
536.709	0.0028
537.002	0.0046
537.295	0.0034
537.588	0.0037
537.881	0.0028
538.173	0.0037
538.466	0.0028
538.759	0.0031
539.051	0.0035
539.344	0.0036
539.636	0.0032
539.928	0.0045
540.22	0.0027
540.513	0.0037
540.805	0.0028
541.097	0.0036
541.389	0.0032
541.681	0.0029
541.972	0.0025
542.264	0.0025
542.556	0.0031
542.847	0.0018
543.139	0.0026
543.431	0.0023
543.722	0.0015
544.013	0.002
544.305	0.0025
544.596	0.0016
544.887	0.0038
545.178	0.0041
545.469	0.0038
545.76	0.0036
546.051	0.0041
546.342	0.002
546.632	0.003
546.923	0.0021
547.214	0.0023
547.504	0.0039
547.795	0.003
548.085	0.0026
548.375	0.003
548.666	0.0048
548.956	0.0036
549.246	0.003
549.536	0.0034
549.826	0.0045
550.116	0.0038
550.406	0.0031
550.695	0.0034
550.985	0.0032
551.275	0.0034
551.564	0.005
551.854	0.0044
552.143	0.0037
552.433	0.0034
552.722	0.0038
553.011	0.004
553.3	0.0031
553.589	0.0036
553.879	0.0038
554.167	0.0035
554.456	0.0032
554.745	0.0044
555.034	0.0046
555.323	0.0036
555.611	0.0044
555.9	0.0036
556.188	0.0037
556.477	0.0032
556.765	0.0032
557.053	0.0035
557.342	0.0036
557.63	0.0033
557.918	0.0045
558.206	0.0039
558.494	0.0034
558.782	0.0034
559.069	0.0048
559.357	0.0042
559.645	0.0046
559.932	0.0045
560.22	0.0036
560.507	0.0019
560.795	0.0027
561.082	0.0023
561.37	0.0039
561.657	0.0025
561.944	0.003
562.231	0.003
562.518	0.0035
562.805	0.0034
563.092	0.0034
563.379	0.0043
563.665	0.0038
563.952	0.0042
564.239	0.0047
564.525	0.0032
564.811	0.0037
565.098	0.003
565.384	0.0029
565.67	0.0026
565.957	0.0037
566.243	0.0044
566.529	0.0024
566.815	0.0039
567.101	0.003
567.387	0.0029
567.672	0.0028
567.958	0.0022
568.244	0.0024
568.529	0.0029
568.815	0.0028
569.1	0.0026
569.386	0.0036
569.671	0.0029
569.956	0.0035
570.242	0.0031
570.527	0.0021
570.812	0.0026
571.097	0.0031
571.382	0.0019
571.666	0.0024
571.951	0.0029
572.236	0.0031
572.521	0.0032
572.805	0.004
573.09	0.0031
573.374	0.0028
573.659	0.003
573.943	0.0028
574.227	0.003
574.511	0.0037
574.795	0.0038
575.079	0.0038
575.363	0.003
575.647	0.0028
575.931	0.0032
576.215	0.0032
576.499	0.0027
576.782	0.0022
577.066	0.0025
577.349	0.0031
577.633	0.004
577.916	0.0033
578.2	0.0034
578.483	0.0041
578.766	0.0037
579.049	0.003
579.332	0.003
579.615	0.0023
579.898	0.0027
580.181	0.0023
580.464	0.003
580.746	0.0033
581.029	0.003
581.312	0.0026
581.594	0.0025
581.877	0.0024
582.159	0.0035
582.441	0.0023
582.724	0.0029
583.006	0.0031
583.288	0.0027
583.57	0.0027
583.852	0.0034
584.134	0.0036
584.416	0.0031
584.697	0.0031
584.979	0.0027
585.261	0.0027
585.542	0.0029
585.824	0.0033
586.105	0.0035
586.387	0.0032
586.668	0.003
586.949	0.0033
587.231	0.0031
587.512	0.003
587.793	0.0028
588.074	0.0025
588.355	0.0032
588.636	0.0025
588.916	0.0031
589.197	0.0023
589.478	0.003
589.758	0.0026
590.039	0.0024
590.319	0.002
590.6	0.0015
590.88	0.0013
591.16	0.002
591.441	0.0033
591.721	0.0018
592.001	0.0019
592.281	0.0022
592.561	0.0032
592.841	0.0034
593.12	0.0024
593.4	0.0032
593.68	0.0025
593.959	0.0029
594.239	0.0025
594.518	0.003
594.798	0.004
595.077	0.0027
595.356	0.0024
595.636	0.0024
595.915	0.0018
596.194	0.0022
596.473	0.0026
596.752	0.0025
597.031	0.003
597.31	0.002
597.588	0.0018
597.867	0.002
598.146	0.0022
598.424	0.0015
598.703	0.0027
598.981	0.0026
599.259	0.0022
599.538	0.0027
599.816	0.0031
600.094	0.0035
600.372	0.0028
600.65	0.0029
600.928	0.0038
601.206	0.0033
601.484	0.0024
601.762	0.0029
602.04	0.0035
602.317	0.0033
602.595	0.0037
602.872	0.0027
603.15	0.004
603.427	0.0021
603.704	0.0024
603.982	0.0026
604.259	0.002
604.536	0.0024
604.813	0.003
605.09	0.0027
605.367	0.0025
605.644	0.0016
605.921	0.0017
606.197	0.0015
606.474	0.0022
606.751	0.0021
607.027	0.0022
607.304	0.0028
607.58	0.003
607.856	0.0029
608.133	0.0041
608.409	0.004
608.685	0.0037
608.961	0.0028
609.237	0.0027
609.513	0.0036
609.789	0.0024
610.065	0.0025
610.341	0.0024
610.616	0.002
610.892	0.0016
611.167	0.0021
611.443	0.0018
611.718	0.0025
611.994	0.0024
612.269	0.0013
612.544	0.0018
612.819	0.0024
613.095	0.0021
613.37	0.0014
613.645	0.001
613.919	0.0022
614.194	0.0017
614.469	0.0027
614.744	0.0024
615.019	0.0019
615.293	0.0017
615.568	0.002
615.842	0.0012
616.116	0.0014
616.391	0.0013
616.665	0.0013
616.939	0.001
617.213	0.0015
617.488	0.0018
617.762	0.0016
618.035	0.0032
618.309	0.0025
618.583	0.0022
618.857	0.0024
619.131	0.0027
619.404	0.0023
619.678	0.0031
619.951	0.0029
620.225	0.0014
620.498	0.0016
620.771	0.0014
621.045	0.0016
621.318	0.0027
621.591	0.0028
621.864	0.0018
622.137	0.0013
622.41	0.0009
622.683	0.0003
622.956	0.0006
623.228	0.0015
623.501	0.0014
623.774	0.0022
624.046	0.0021
624.319	0.0017
624.591	0.0014
624.863	0.0019
625.136	0.0026
625.408	0.0039
625.68	0.0025
625.952	0.0019
626.224	0.0025
626.496	0.0021
626.768	0.0017
627.04	0.002
627.311	0.0021
627.583	0.0024
627.855	0.0015
628.126	0.0006
628.398	0.0009
628.669	0.0002
628.941	0.0002
629.212	-0.0001
629.483	0.0002
629.755	0.0002
630.026	0.0006
630.297	0
630.568	0.001
630.839	0.0006
631.11	0.0006
631.38	0.0021
631.651	0.0012
631.922	0.0015
632.192	0.0011
632.463	0.0013
632.733	0.0006
633.004	0.0007
633.274	-0.0004
633.545	0.0005
633.815	0.0012
634.085	0.0014
634.355	0.0013
634.625	0.0009
634.895	0.0011
635.165	0.0019
635.435	0.0025
635.705	0.001
635.974	0.0017
636.244	0.0012
636.514	0.0006
636.783	0.0012
637.053	0.0012
637.322	0.0016
637.591	0.0006
637.861	-0.0009
638.13	-0.0002
638.399	0.0018
638.668	0.001
638.937	0.001
639.206	0.001
639.475	0.0012
639.744	0.0016
640.013	0.001
640.281	0.0002
640.55	0.0009
640.819	0.0006
641.087	0.0012
641.356	0.0006
641.624	0.0009
641.892	0.0011
642.161	0.0014
642.429	0.0006
642.697	0.0006
642.965	0.0002
643.233	-0.0007
643.501	-0.0003
643.769	-0.0006
644.037	-0.0006
644.305	-0.0004
644.572	-0.0011
644.84	-0.0011
645.108	-0
645.375	0.0006
645.643	0.001
645.91	0.0002
646.177	0.001
646.445	0.0001
646.712	0.0017
646.979	0.0002
647.246	0.001
647.513	0.0011
647.78	0.0012
648.047	-0.0004
648.314	-0.001
648.58	-0.0009
648.847	-0.0016
649.114	-0.0024
649.38	-0.0017
649.647	-0.0013
649.913	-0.0005
650.18	-0.0004
650.446	0.0006
650.712	0.0015
650.978	0.0019
651.245	0.002
651.511	0.0027
651.777	0.0027
652.043	0.0012
652.309	0.0011
652.574	0.001
652.84	0.0017
653.106	0.0018
653.371	0.0018
653.637	0.0016
653.903	0.002
654.168	0.0014
654.433	-0.0002
654.699	0.0002
654.964	-0.0013
655.229	-0.0009
655.494	0.0012
655.759	0.0016
656.024	0.0006
656.289	-0
656.554	-0.0002
656.819	0.0006
657.084	0.0015
657.349	0.0012
657.613	0.001
657.878	-0.0003
658.142	0.0003
658.407	-0.0002
658.671	-0
658.936	0.0002
659.2	0.0019
659.464	0.0005
659.728	0.0003
659.992	-0.0012
660.256	-0.0023
660.52	0
660.784	-0.0013
661.048	-0.0002
661.312	-0.0004
661.575	-0.0005
661.839	0.0006
662.103	-0.0002
662.366	-0.0007
662.63	-0.0005
662.893	-0.0006
663.156	0.0005
663.42	0.001
663.683	0.0005
663.946	0.0007
664.209	0.0016
664.472	0.0013
664.735	0.0006
664.998	0.0015
665.261	0.0025
665.524	0.0018
665.786	0.0018
666.049	0.0021
666.312	0.0019
666.574	0.0015
666.837	0.0032
667.099	0.0016
667.361	0.0028
667.624	0.0027
667.886	0.002
668.148	0.0028
668.41	0.0018
668.672	0.002
668.934	0.0026
669.196	0.0013
669.458	0.0007
669.72	0.0002
669.982	0.0002
670.243	-0.0001
670.505	0.0009
670.766	0.0005
671.028	0.0008
671.289	0.0013
671.551	0.0019
671.812	0.0008
672.073	0.0011
672.334	0.001
672.596	-0.0001
672.857	0.0003
673.118	0.0019
673.379	0.0015
673.639	0.0018
673.9	0.0022
674.161	0.0008
674.422	0.0009
674.682	0
674.943	-0.0012
675.203	-0.0009
675.464	0.0001
675.724	0.0007
675.985	0.0002
676.245	0.0005
676.505	-0.0001
676.765	-0.0003
677.025	-0.0006
677.285	-0.0008
677.545	0.0001
677.805	0.0001
678.065	0.0006
678.325	0.0009
678.585	0.0013
678.844	0.0018
679.104	0.0018
679.363	0.0034
679.623	0.0029
679.882	0.0026
680.142	0.0029
680.401	0.003
680.66	0.0036
680.919	0.0018
681.178	0.0024
681.437	0.0022
681.696	0.0021
681.955	0.0039
682.214	0.0036
682.473	0.0031
682.732	0.0021
682.99	0.0035
683.249	0.0032
683.508	0.0035
683.766	0.0031
684.024	0.0016
684.283	0.0004
684.541	0.0003
684.799	0.0003
685.058	-0.0011
685.316	-0.0012
685.574	-0.0019
685.832	-0.0007
686.09	-0.0007
686.348	-0.0022
686.606	-0.0014
686.863	-0.0024
687.121	-0.0025
687.379	-0.0035
687.636	-0.0028
687.894	-0.0024
688.151	-0.003
688.409	-0.0014
688.666	-0.0018
688.923	-0.0013
689.181	-0.0007
689.438	-0.0019
689.695	-0.0003
689.952	-0.001
690.209	-0.001
690.466	-0.0013
690.723	-0.0012
690.979	-0.0014
691.236	-0.0013
691.493	-0.0022
691.75	-0.002
692.006	-0.0015
692.263	-0.0015
692.519	-0.0012
692.775	-0.0028
693.032	-0.0027
693.288	-0.0034
693.544	-0.002
693.8	-0.0016
694.056	-0.0018
694.313	-0.0026
694.568	-0.0012
694.824	-0.0011
695.08	-0.0009
695.336	-0.0012
695.592	-0.0005
695.847	0.0002
696.103	0.0008
696.359	0.0019
696.614	0.0009
696.869	-0.0003
697.125	-0.0006
697.38	-0.0017
697.635	-0.0008
697.891	0.0003
698.146	0.0001
698.401	0.0002
698.656	-0.0003
698.911	0.0006
699.166	-0.0005
699.42	0.0018
699.675	0.0013
699.93	0.0006
700.185	0.0018
700.439	0.0012
700.694	0.0011
700.948	0.0014
701.203	0.0018
701.457	0.0009
701.711	0.0003
701.965	-0.0004
702.22	-0.0003
702.474	0.0006
702.728	0.0002
702.982	-0.0007
703.236	-0.0012
703.49	-0.0009
703.743	-0.0016
703.997	-0.0016
704.251	-0.001
704.504	0.0009
704.758	0.0005
705.012	0.0012
705.265	0.0012
705.518	0.0011
705.772	0.0009
706.025	0.0016
706.278	0.001
706.531	-0
706.785	-0.0015
707.038	-0.0014
707.291	-0.0013
707.543	-0.001
707.796	-0.0009
708.049	-0.0004
708.302	-0.0008
708.555	-0.0006
708.807	0.0003
709.06	-0
709.312	0.0007
709.565	0.0011
709.817	0.0021
710.069	0.0006
710.322	0.0017
710.574	0.0019
710.826	0.0016
711.078	0.0011
711.33	0.0006
711.582	0.0006
711.834	0.0006
712.086	0.0017
712.338	0.0013
712.59	-0
712.841	-0.0004
713.093	-0.0008
713.344	-0.0001
713.596	-0.001
713.847	-0.0018
714.099	-0.0027
714.35	-0.0016
714.601	-0.0022
714.853	-0.003
715.104	-0.0025
715.355	-0.002
715.606	-0.0005
715.857	-0
716.108	-0.0004
716.359	-0
716.609	-0.0015
716.86	-0.0001
717.111	-0.0006
717.361	-0.0005
717.612	-0.0007
717.863	0.0003
718.113	0.001
718.363	0.0015
718.614	0.0011
718.864	0.0007
719.114	0.001
719.364	-0.001
719.614	-0.0001
719.865	-0.0003
720.114	0.0001
720.364	0.0003
720.614	-0.001
720.864	-0.0006
721.114	-0.0027
721.364	-0.0018
721.613	-0.0022
721.863	-0.0023
722.112	-0.0015
722.362	-0.0012
722.611	-0.001
722.86	-0
723.11	0.0013
723.359	0.0003
723.608	0.0005
723.857	0.0028
724.106	0.0018
724.355	0.0015
724.604	0.0012
724.853	-0.0002
725.102	-0.0014
725.351	-0.0017
725.599	-0.003
725.848	-0.0027
726.097	-0.0023
726.345	-0.0027
726.594	-0.0017
726.842	-0.0012
727.09	-0.0008
727.339	-0.0016
727.587	-0.0024
727.835	-0.0029
728.083	-0.0032
728.331	-0.0029
728.579	-0.0025
728.827	-0.0028
729.075	-0.0035
729.323	-0.0031
729.571	-0.003
729.818	-0.0034
730.066	-0.003
730.314	-0.0028
730.561	-0.003
730.809	-0.0034
731.056	-0.003
731.303	-0.0031
731.551	-0.0026
731.798	-0.0032
732.045	-0.0023
732.292	-0.0033
732.539	-0.0026
732.786	-0.0026
733.033	-0.003
733.28	-0.0026
733.527	-0.0026
733.774	-0.0027
734.021	-0.0021
734.267	-0.002
734.514	-0.0021
734.76	-0.0023
735.007	-0.0016
735.253	-0.0006
735.5	0.0018
735.746	0.0025
735.992	0.0017
736.238	0.0008
736.485	0.0011
736.731	0.0009
736.977	0.0009
737.223	-0.0011
737.469	-0.0007
737.715	-0.0001
737.96	-0.0001
738.206	-0.0002
738.452	-0.0002
738.697	-0.0017
738.943	-0.0014
739.189	-0.0006
739.434	-0.0009
739.679	-0.0003
739.925	0.001
740.17	0.0024
740.415	0.0012
740.66	0.0017
740.906	0.0013
741.151	0.001
741.396	0.0004
741.641	-0.0003
741.886	0.0006
742.13	0.0003
742.375	0.0016
742.62	0.0001
742.865	0.0005
743.109	0.0011
743.354	-0.0002
743.598	-0.0007
743.843	-0.001
744.087	-0.0025
744.331	-0.0022
744.576	-0.0017
744.82	-0.0013
745.064	-0.0009
745.308	-0.0008
745.552	-0.001
745.796	-0.0019
746.04	-0.001
746.284	-0.0017
746.528	-0.0004
746.771	-0.0012
747.015	-0.0008
747.259	-0.0016
747.502	-0.0022
747.746	-0.002
747.989	-0.0011
748.233	-0.0008
748.476	-0
748.719	-0.0004
748.963	-0.0003
749.206	-0.0005
749.449	-0.0004
749.692	-0.0002
749.935	-0.0001
750.178	-0.0003
750.421	-0.0014
750.664	-0.0009
750.906	-0.0008
751.149	-0.0017
751.392	-0.0003
751.635	-0.0011
751.877	-0.0007
752.12	-0.0011
752.362	-0.0005
752.604	-0.0007
752.847	-0.0007
753.089	-0.0011
753.331	-0.0012
753.573	-0.0007
753.816	-0.0003
754.058	-0.0005
754.3	-0.0009
754.542	0.0004
754.783	0.0005
755.025	0.0012
755.267	0.0002
755.509	0.0009
755.75	-0.0001
755.992	0.0001
756.234	0.0001
756.475	0.0007
756.716	-0.0002
756.958	-0.0001
757.199	-0.0004
757.44	0.0001
757.682	0.0001
757.923	0.0006
758.164	0.0002
758.405	-0.0004
758.646	-0.0001
758.887	-0.0013
759.128	-0.0012
759.369	-0.0023
759.609	-0.0015
759.85	-0.0017
760.091	-0.0008
760.331	-0.0006
760.572	0.0001
760.812	-0.0011
761.053	0
761.293	0.0005
761.533	0.0007
761.774	0.0008
762.014	0.0004
762.254	0.0002
762.494	0.0008
762.734	0.0002
762.974	0.0017
763.214	0.0004
763.454	0.0004
763.694	0.0012
763.933	0.0015
764.173	0.0036
764.413	0.0037
764.652	0.0013
764.892	0.001
765.131	0.0003
765.371	-0.0002
765.61	-0.0009
765.849	-0.0015
766.089	-0.0027
766.328	-0.0022
766.567	-0.0028
766.806	-0.0026
767.045	-0.0039
767.284	-0.0029
767.523	-0.0039
767.762	-0.0032
768.001	-0.0018
768.239	-0.0015
768.478	-0.0024
768.717	-0.003
768.955	-0.0035
769.194	-0.0032
769.432	-0.0026
769.671	-0.0024
769.909	-0.0019
770.148	-0.0024
770.386	-0.0018
770.624	-0.0018
770.862	-0.0023
771.1	-0.0032
771.338	-0.0029
771.576	-0.0015
771.814	-0.0007
772.052	-0.001
772.29	0.0007
772.528	-0.0007
772.765	-0.0013
773.003	-0.0005
773.24	-0.0003
773.478	0.0003
773.716	0.0009
773.953	0.0009
774.19	0.0019
774.428	0.0016
774.665	0.0027
774.902	0.0027
775.139	0.0022
775.376	0.0006
775.613	0.0003
775.85	0.0003
776.087	0
776.324	-0.0012
776.561	-0.0015
776.798	-0.0017
777.034	-0.0024
777.271	-0.0005
777.508	-0.0014
777.744	0.0002
777.981	-0.0008
778.217	-0.0011
778.454	-0.0026
778.69	-0.002
778.926	-0.0012
779.162	-0.0021
779.399	-0.0006
779.635	-0.0011
779.871	-0.001
780.107	-0.0017
780.343	-0.0033
780.579	-0.0025
780.814	-0.002
781.05	-0.0021
781.286	-0.0018
781.522	-0.0024
781.757	-0.0029
781.993	-0.0023
782.228	-0.003
782.464	-0.0019
782.699	-0.0012
782.934	-0.002
783.17	-0.0013
783.405	-0.0013
783.64	-0.0009
783.875	-0.0025
784.11	-0.0021
784.345	-0.0018
784.58	-0.0019
784.815	-0.001
785.05	-0.0016
785.285	-0.0016
785.52	-0.0006
785.754	-0.0017
785.989	-0.0001
786.223	0.0012
786.458	0.0024
786.692	0.0028
786.927	0.0032
787.161	0.0028
787.396	0.004
787.63	0.0025
787.864	0.0012
788.098	-0.0005
788.332	-0.0005
788.566	-0.0016
788.8	-0.0008
789.034	-0.0001
789.268	-0.0014
789.502	-0.0016
789.736	-0.0019
789.969	-0.001
790.203	-0.0009
790.437	-0.0003
790.67	-0.0011
790.904	0.0008
791.137	0.0009
791.37	0.0008
791.604	0.0008
791.837	0.0023
792.07	0.0023
792.303	0.0026
792.537	0.0034
792.77	0.0028
793.003	0.0028
793.236	0.0021
793.469	0.0017
793.701	0.0011
793.934	0.0008
794.167	0.0004
794.4	-0.0003
794.632	-0.0005
794.865	-0.0009
795.097	-0.0015
795.33	-0.0013
795.562	-0.0012
795.795	-0.0017
796.027	-0.0008
796.259	0.0004
796.491	-0.0004
796.724	0.0012
796.956	0.0008
797.188	0.0004
797.42	0.0003
797.652	0.0014
797.883	0.0019
798.115	0.0022
798.347	0.0015
798.579	0.0013
798.81	0.0015
799.042	0.0019
799.274	0.003
799.505	0.0022
799.737	0.0022
799.968	0.0023
800.199	0.0017
800.431	0.0027
800.662	0.0008
800.893	0.0014
801.124	0.0005
801.355	0.0014
801.586	0.0023
801.817	0.0024
802.048	0.0024
802.279	0.0018
802.51	0.0025
802.741	0.0033
802.971	0.003
803.202	0.0024
803.433	0.0019
803.663	0.0016
803.894	0.0022
804.124	0.0025
804.354	0.0036
804.585	0.0047
804.815	0.0045
805.045	0.005
805.275	0.0044
805.506	-0.0066
805.736	-0.0659
805.966	-0.1711
806.196	0.068
