Data from 03 0.4 mM K2Cr2O7 0.25 M BQDS 1 M H2SO4 5 min_Absorbance_0044.txt Node
Date: Tue Dec 14 21:10:12 EST 2021
User: kwabilab-user
Spectrometer: HDX00518
Trigger mode: 0
Integration Time (sec): 5.000000E-2
Scans to average: 50
Nonlinearity correction enabled: false
Boxcar width: 0
Storing dark spectrum: false
XAxis mode: Wavelengths
Number of Pixels in Spectrum: 2068
>>>>>Begin Spectral Data<<<<<
195.27	-0.1408
195.642	0.066
196.014	-0.1564
196.386	0.2318
196.758	-0.073
197.129	0.0025
197.501	-0.0295
197.872	0.0217
198.244	0.0233
198.615	0.0441
198.986	0.0162
199.357	0.0458
199.728	0.0341
200.099	0.0308
200.47	0.0326
200.841	0.0304
201.212	0.0212
201.582	0.0385
201.953	0.0368
202.323	0.0398
202.694	0.015
203.064	0.0339
203.434	0.0242
203.804	0.0276
204.174	0.0175
204.544	0.0458
204.914	0.0234
205.284	0.0188
205.653	0.0213
206.023	0.0227
206.393	0.0462
206.762	0.0272
207.131	0.0347
207.501	0.0379
207.87	0.0288
208.239	0.0206
208.608	0.0365
208.977	0.0174
209.346	0.0008
209.715	0.0373
210.083	0.0257
210.452	0.0131
210.82	0.0222
211.189	0.0099
211.557	0.0402
211.925	0.0284
212.294	0.0165
212.662	0.0345
213.03	0.0136
213.398	0.0272
213.766	0.0199
214.133	0.0404
214.501	0.0288
214.869	0.0172
215.236	0.0054
215.604	0.011
215.971	0.0617
216.338	0.0327
216.705	0.0405
217.072	0.0616
217.439	0.0433
217.806	0.0571
218.173	0.0506
218.54	0.0402
218.907	0.0833
219.273	0.0542
219.64	0.1068
220.006	0.0915
220.373	0.1088
220.739	0.1028
221.105	0.128
221.471	0.1369
221.837	0.1655
222.203	0.2027
222.569	0.2036
222.935	0.2022
223.3	0.2483
223.666	0.2575
224.031	0.2895
224.397	0.293
224.762	0.3145
225.127	0.3515
225.493	0.3785
225.858	0.4034
226.223	0.4214
226.588	0.4442
226.952	0.4533
227.317	0.4956
227.682	0.4918
228.046	0.4938
228.411	0.5555
228.775	0.5336
229.14	0.5581
229.504	0.5793
229.868	0.5769
230.232	0.5864
230.596	0.6041
230.96	0.6179
231.324	0.613
231.688	0.6205
232.052	0.6351
232.415	0.6178
232.779	0.6399
233.142	0.6492
233.505	0.6615
233.869	0.6615
234.232	0.6533
234.595	0.6481
234.958	0.6497
235.321	0.6603
235.684	0.65
236.047	0.6493
236.409	0.6436
236.772	0.6586
237.134	0.6515
237.497	0.6384
237.859	0.6545
238.222	0.6546
238.584	0.643
238.946	0.6381
239.308	0.6406
239.67	0.6351
240.032	0.6332
240.393	0.6365
240.755	0.6304
241.117	0.6279
241.478	0.622
241.84	0.6308
242.201	0.6157
242.562	0.6128
242.924	0.6169
243.285	0.6089
243.646	0.6091
244.007	0.6035
244.368	0.6129
244.728	0.6083
245.089	0.6047
245.45	0.6024
245.81	0.602
246.171	0.597
246.531	0.5913
246.891	0.5878
247.252	0.5852
247.612	0.5981
247.972	0.594
248.332	0.5881
248.692	0.5952
249.051	0.5912
249.411	0.5872
249.771	0.5849
250.13	0.5866
250.49	0.5785
250.849	0.5896
251.208	0.588
251.568	0.5805
251.927	0.5799
252.286	0.5824
252.645	0.5858
253.004	0.5841
253.363	0.5788
253.721	0.5811
254.08	0.5857
254.439	0.5809
254.797	0.576
255.155	0.5806
255.514	0.5782
255.872	0.581
256.23	0.5741
256.588	0.5812
256.946	0.5802
257.304	0.5703
257.662	0.5791
258.02	0.5758
258.377	0.5708
258.735	0.5735
259.093	0.5685
259.45	0.574
259.807	0.5759
260.165	0.5756
260.522	0.5716
260.879	0.5708
261.236	0.5726
261.593	0.5636
261.95	0.5671
262.306	0.5671
262.663	0.563
263.02	0.5578
263.376	0.5591
263.733	0.5586
264.089	0.5542
264.445	0.552
264.802	0.5553
265.158	0.551
265.514	0.5541
265.87	0.5431
266.226	0.5518
266.581	0.5444
266.937	0.5431
267.293	0.543
267.648	0.539
268.004	0.5373
268.359	0.5374
268.714	0.5304
269.07	0.5296
269.425	0.5246
269.78	0.5243
270.135	0.5243
270.49	0.5217
270.844	0.5212
271.199	0.5139
271.554	0.5109
271.908	0.5081
272.263	0.5087
272.617	0.5017
272.972	0.4973
273.326	0.4952
273.68	0.4947
274.034	0.4932
274.388	0.4841
274.742	0.4869
275.096	0.4791
275.45	0.4806
275.803	0.4775
276.157	0.4687
276.51	0.4666
276.864	0.4624
277.217	0.4614
277.571	0.4568
277.924	0.4539
278.277	0.4505
278.63	0.4421
278.983	0.4415
279.336	0.4353
279.688	0.4339
280.041	0.4289
280.394	0.4219
280.746	0.4208
281.099	0.4137
281.451	0.4135
281.803	0.4084
282.156	0.403
282.508	0.4001
282.86	0.3945
283.212	0.3915
283.564	0.3858
283.916	0.3815
284.267	0.3795
284.619	0.3753
284.971	0.3712
285.322	0.3674
285.673	0.364
286.025	0.3606
286.376	0.3563
286.727	0.3506
287.078	0.3468
287.429	0.3471
287.78	0.3409
288.131	0.3375
288.482	0.3335
288.833	0.327
289.183	0.3238
289.534	0.3207
289.884	0.3174
290.235	0.3137
290.585	0.31
290.935	0.3071
291.285	0.3032
291.635	0.2997
291.985	0.2974
292.335	0.2928
292.685	0.2876
293.035	0.2837
293.384	0.2801
293.734	0.2768
294.083	0.273
294.433	0.2716
294.782	0.2671
295.131	0.2633
295.48	0.2614
295.829	0.2574
296.179	0.2539
296.527	0.2496
296.876	0.2465
297.225	0.2416
297.574	0.2401
297.922	0.2355
298.271	0.2337
298.619	0.229
298.968	0.2271
299.316	0.2244
299.664	0.2213
300.012	0.2186
300.36	0.2158
300.708	0.2128
301.056	0.2103
301.404	0.2064
301.752	0.2051
302.099	0.2021
302.447	0.1985
302.794	0.1974
303.142	0.1945
303.489	0.192
303.836	0.1899
304.183	0.1884
304.531	0.186
304.878	0.184
305.224	0.1818
305.571	0.1799
305.918	0.1781
306.265	0.1758
306.611	0.1748
306.958	0.1737
307.304	0.172
307.651	0.1698
307.997	0.1691
308.343	0.1674
308.689	0.1663
309.035	0.1652
309.381	0.1632
309.727	0.1629
310.073	0.1623
310.419	0.1608
310.764	0.1605
311.11	0.1586
311.455	0.1579
311.801	0.1575
312.146	0.1561
312.491	0.1561
312.837	0.1559
313.182	0.1546
313.527	0.1543
313.872	0.1547
314.216	0.1547
314.561	0.1537
314.906	0.1531
315.251	0.1538
315.595	0.1539
315.94	0.1529
316.284	0.1534
316.628	0.1535
316.972	0.1533
317.317	0.1538
317.661	0.1541
318.005	0.1538
318.348	0.1543
318.692	0.1545
319.036	0.1548
319.38	0.1555
319.723	0.1555
320.067	0.1563
320.41	0.1565
320.754	0.1575
321.097	0.1572
321.44	0.1585
321.783	0.1592
322.126	0.1608
322.469	0.1606
322.812	0.162
323.155	0.1621
323.498	0.1627
323.84	0.1639
324.183	0.1644
324.525	0.166
324.868	0.1679
325.21	0.1679
325.552	0.169
325.894	0.1691
326.236	0.1702
326.578	0.1714
326.92	0.1727
327.262	0.173
327.604	0.1747
327.946	0.1762
328.287	0.1765
328.629	0.1783
328.97	0.1793
329.312	0.1802
329.653	0.1814
329.994	0.1825
330.335	0.1837
330.676	0.1856
331.017	0.1859
331.358	0.1878
331.699	0.1884
332.04	0.1893
332.38	0.1911
332.721	0.1918
333.061	0.1934
333.402	0.1948
333.742	0.1962
334.083	0.1963
334.423	0.1973
334.763	0.1991
335.103	0.2001
335.443	0.2012
335.783	0.2027
336.123	0.2023
336.462	0.2044
336.802	0.205
337.141	0.2056
337.481	0.2067
337.82	0.2077
338.16	0.2084
338.499	0.2106
338.838	0.2112
339.177	0.2117
339.516	0.2125
339.855	0.213
340.194	0.2139
340.533	0.2155
340.872	0.2149
341.21	0.2165
341.549	0.2171
341.887	0.2182
342.226	0.2176
342.564	0.2183
342.902	0.2192
343.24	0.2193
343.578	0.2199
343.916	0.2201
344.254	0.2204
344.592	0.2212
344.93	0.2202
345.268	0.2203
345.605	0.2211
345.943	0.2212
346.28	0.2213
346.618	0.2216
346.955	0.2218
347.292	0.2223
347.629	0.2221
347.966	0.2218
348.303	0.222
348.64	0.2226
348.977	0.2212
349.314	0.2222
349.65	0.2212
349.987	0.2222
350.324	0.2214
350.66	0.2215
350.996	0.2211
351.333	0.2212
351.669	0.2201
352.005	0.2204
352.341	0.2189
352.677	0.2183
353.013	0.2166
353.349	0.2169
353.685	0.2152
354.02	0.2147
354.356	0.2135
354.691	0.213
355.027	0.2124
355.362	0.2109
355.697	0.2105
356.033	0.2093
356.368	0.2085
356.703	0.2076
357.038	0.2071
357.373	0.2059
357.707	0.205
358.042	0.2039
358.377	0.2031
358.711	0.2027
359.046	0.2011
359.38	0.2006
359.715	0.1995
360.049	0.1991
360.383	0.1969
360.717	0.1958
361.051	0.1948
361.385	0.1942
361.719	0.1927
362.053	0.1923
362.387	0.1898
362.72	0.1878
363.054	0.1869
363.387	0.1857
363.721	0.1835
364.054	0.1828
364.387	0.1801
364.721	0.1792
365.054	0.1781
365.387	0.1761
365.72	0.175
366.053	0.1737
366.385	0.1722
366.718	0.1715
367.051	0.1693
367.383	0.1686
367.716	0.1675
368.048	0.1659
368.381	0.1652
368.713	0.1629
369.045	0.1625
369.377	0.162
369.709	0.1604
370.041	0.1585
370.373	0.1576
370.705	0.1566
371.037	0.1548
371.368	0.1536
371.7	0.1519
372.031	0.1507
372.363	0.1494
372.694	0.1475
373.025	0.1462
373.356	0.1447
373.688	0.143
374.019	0.1411
374.35	0.1389
374.68	0.1374
375.011	0.1361
375.342	0.1341
375.673	0.1325
376.003	0.1303
376.334	0.1298
376.664	0.1279
376.995	0.1271
377.325	0.1253
377.655	0.1233
377.985	0.1223
378.315	0.1215
378.645	0.1202
378.975	0.1187
379.305	0.1168
379.635	0.1169
379.964	0.1155
380.294	0.1144
380.623	0.113
380.953	0.112
381.282	0.1118
381.611	0.1102
381.941	0.1092
382.27	0.1076
382.599	0.107
382.928	0.1049
383.257	0.104
383.585	0.1028
383.914	0.1006
384.243	0.0999
384.571	0.0984
384.9	0.0969
385.228	0.0959
385.557	0.0941
385.885	0.0927
386.213	0.0923
386.541	0.0904
386.869	0.0891
387.197	0.087
387.525	0.0862
387.853	0.0845
388.181	0.0833
388.508	0.0823
388.836	0.0816
389.164	0.0802
389.491	0.0781
389.818	0.0775
390.146	0.0769
390.473	0.076
390.8	0.0751
391.127	0.073
391.454	0.0723
391.781	0.072
392.108	0.0714
392.435	0.0697
392.761	0.0698
393.088	0.0691
393.415	0.0678
393.741	0.068
394.067	0.0675
394.394	0.0665
394.72	0.0648
395.046	0.0639
395.372	0.0634
395.698	0.0627
396.024	0.061
396.35	0.0611
396.676	0.0609
397.001	0.0593
397.327	0.059
397.653	0.058
397.978	0.0571
398.303	0.0561
398.629	0.0558
398.954	0.0548
399.279	0.0552
399.604	0.0536
399.929	0.0532
400.254	0.0523
400.579	0.0517
400.904	0.0511
401.229	0.0506
401.553	0.0499
401.878	0.0498
402.202	0.0494
402.527	0.0484
402.851	0.0484
403.175	0.0471
403.5	0.0472
403.824	0.0463
404.148	0.0469
404.472	0.0459
404.796	0.0455
405.119	0.0454
405.443	0.0455
405.767	0.0454
406.09	0.045
406.414	0.044
406.737	0.0445
407.061	0.0444
407.384	0.0436
407.707	0.0437
408.03	0.0436
408.353	0.0427
408.676	0.0433
408.999	0.0426
409.322	0.0427
409.645	0.0423
409.968	0.0426
410.29	0.0422
410.613	0.0431
410.935	0.0412
411.258	0.0422
411.58	0.0408
411.902	0.0409
412.224	0.0414
412.546	0.0413
412.868	0.0417
413.19	0.0409
413.512	0.0409
413.834	0.0407
414.156	0.0414
414.477	0.0403
414.799	0.0416
415.121	0.0403
415.442	0.0407
415.763	0.0406
416.085	0.0408
416.406	0.0409
416.727	0.0406
417.048	0.0406
417.369	0.0412
417.69	0.0402
418.011	0.0405
418.331	0.0408
418.652	0.0405
418.973	0.0401
419.293	0.0399
419.614	0.0393
419.934	0.0405
420.254	0.0402
420.574	0.0396
420.895	0.0401
421.215	0.0395
421.535	0.04
421.855	0.0396
422.174	0.0387
422.494	0.0392
422.814	0.0396
423.134	0.04
423.453	0.0399
423.773	0.0404
424.092	0.0408
424.411	0.04
424.731	0.04
425.05	0.0404
425.369	0.0401
425.688	0.04
426.007	0.0403
426.326	0.0402
426.644	0.0399
426.963	0.0398
427.282	0.0402
427.6	0.0402
427.919	0.0402
428.237	0.0408
428.556	0.0402
428.874	0.0398
429.192	0.0402
429.51	0.0392
429.828	0.04
430.146	0.0397
430.464	0.0394
430.782	0.0401
431.1	0.0393
431.418	0.0394
431.735	0.0394
432.053	0.0395
432.37	0.0393
432.688	0.0398
433.005	0.0393
433.322	0.0404
433.639	0.0398
433.957	0.0395
434.274	0.0399
434.591	0.0397
434.907	0.0392
435.224	0.04
435.541	0.0394
435.858	0.0402
436.174	0.0398
436.491	0.0399
436.807	0.0388
437.124	0.0396
437.44	0.0394
437.756	0.0396
438.072	0.0394
438.388	0.0395
438.704	0.0395
439.02	0.0389
439.336	0.0389
439.652	0.0389
439.968	0.0393
440.283	0.0395
440.599	0.0393
440.914	0.0394
441.23	0.0389
441.545	0.0389
441.86	0.0391
442.175	0.0399
442.491	0.0384
442.806	0.0388
443.121	0.0383
443.435	0.038
443.75	0.0382
444.065	0.038
444.38	0.0382
444.694	0.038
445.009	0.0382
445.323	0.0385
445.638	0.0374
445.952	0.0375
446.266	0.0373
446.58	0.0364
446.894	0.0377
447.208	0.0375
447.522	0.0366
447.836	0.0377
448.15	0.0371
448.464	0.0364
448.777	0.0368
449.091	0.0367
449.404	0.0362
449.718	0.0367
450.031	0.0354
450.345	0.0368
450.658	0.0358
450.971	0.0366
451.284	0.0359
451.597	0.0364
451.91	0.0358
452.223	0.0357
452.535	0.0358
452.848	0.0356
453.161	0.0353
453.473	0.036
453.786	0.0355
454.098	0.0353
454.411	0.0345
454.723	0.0354
455.035	0.0347
455.347	0.0341
455.659	0.0346
455.971	0.0349
456.283	0.0356
456.595	0.0348
456.907	0.0342
457.218	0.0356
457.53	0.0337
457.841	0.0337
458.153	0.0336
458.464	0.0335
458.776	0.0337
459.087	0.0333
459.398	0.0335
459.709	0.0326
460.02	0.0327
460.331	0.0336
460.642	0.0324
460.953	0.0328
461.263	0.0327
461.574	0.0315
461.885	0.0321
462.195	0.0317
462.506	0.0322
462.816	0.0328
463.126	0.0316
463.437	0.031
463.747	0.0311
464.057	0.0299
464.367	0.0304
464.677	0.0309
464.987	0.0302
465.296	0.0295
465.606	0.0298
465.916	0.029
466.225	0.0292
466.535	0.0296
466.844	0.0293
467.154	0.0295
467.463	0.0285
467.772	0.029
468.081	0.029
468.39	0.0285
468.699	0.0286
469.008	0.0278
469.317	0.0282
469.626	0.0283
469.935	0.0277
470.243	0.0279
470.552	0.0265
470.86	0.0271
471.169	0.0267
471.477	0.0262
471.785	0.0266
472.093	0.0258
472.402	0.026
472.71	0.0262
473.018	0.0259
473.326	0.0265
473.633	0.0258
473.941	0.0257
474.249	0.0264
474.556	0.0249
474.864	0.0251
475.171	0.0251
475.479	0.0242
475.786	0.0252
476.094	0.0252
476.401	0.0242
476.708	0.0236
477.015	0.0245
477.322	0.0227
477.629	0.0236
477.936	0.0237
478.242	0.0228
478.549	0.0228
478.856	0.0228
479.162	0.0229
479.469	0.0224
479.775	0.0218
480.081	0.0213
480.388	0.0213
480.694	0.0213
481	0.0212
481.306	0.0209
481.612	0.0218
481.918	0.0214
482.224	0.0204
482.53	0.0214
482.835	0.0212
483.141	0.0206
483.446	0.0203
483.752	0.0198
484.057	0.0191
484.363	0.0196
484.668	0.0203
484.973	0.0184
485.278	0.0184
485.583	0.0175
485.888	0.0185
486.193	0.0178
486.498	0.0184
486.803	0.0183
487.107	0.0177
487.412	0.0168
487.717	0.0168
488.021	0.0182
488.325	0.017
488.63	0.0171
488.934	0.0175
489.238	0.017
489.542	0.0161
489.846	0.017
490.15	0.0169
490.454	0.0175
490.758	0.0163
491.062	0.0159
491.366	0.0153
491.669	0.0155
491.973	0.0153
492.276	0.0152
492.58	0.0146
492.883	0.0159
493.186	0.0147
493.489	0.0151
493.792	0.0143
494.096	0.0143
494.399	0.0141
494.701	0.0137
495.004	0.0132
495.307	0.0136
495.61	0.0138
495.912	0.0142
496.215	0.0134
496.517	0.0142
496.82	0.0132
497.122	0.0127
497.424	0.0133
497.727	0.0129
498.029	0.0121
498.331	0.0127
498.633	0.0124
498.935	0.0119
499.237	0.012
499.538	0.0115
499.84	0.0117
500.142	0.0114
500.443	0.0115
500.745	0.0117
501.046	0.0113
501.348	0.0106
501.649	0.0104
501.95	0.0102
502.251	0.0111
502.552	0.0102
502.853	0.0104
503.154	0.0114
503.455	0.0106
503.756	0.0104
504.057	0.0095
504.357	0.01
504.658	0.0102
504.958	0.0097
505.259	0.0104
505.559	0.0088
505.859	0.0086
506.16	0.0081
506.46	0.0092
506.76	0.0091
507.06	0.0078
507.36	0.0083
507.66	0.0093
507.96	0.01
508.259	0.0081
508.559	0.0077
508.859	0.0088
509.158	0.0085
509.457	0.0077
509.757	0.0081
510.056	0.008
510.355	0.0082
510.655	0.007
510.954	0.0076
511.253	0.008
511.552	0.0081
511.851	0.0073
512.149	0.0073
512.448	0.0066
512.747	0.0072
513.045	0.0064
513.344	0.0069
513.642	0.0069
513.941	0.0063
514.239	0.0064
514.537	0.0062
514.836	0.0063
515.134	0.0067
515.432	0.0068
515.73	0.0061
516.028	0.0061
516.326	0.0048
516.623	0.005
516.921	0.0063
517.219	0.0072
517.516	0.0051
517.814	0.0063
518.111	0.0054
518.409	0.0061
518.706	0.0063
519.003	0.0059
519.3	0.0055
519.597	0.0057
519.894	0.0059
520.191	0.0065
520.488	0.0056
520.785	0.0047
521.082	0.0058
521.378	0.0066
521.675	0.0042
521.971	0.0055
522.268	0.0049
522.564	0.0053
522.861	0.0061
523.157	0.0055
523.453	0.0055
523.749	0.0047
524.045	0.0052
524.341	0.0049
524.637	0.0048
524.933	0.0048
525.229	0.0054
525.524	0.0055
525.82	0.005
526.115	0.0055
526.411	0.0046
526.706	0.0049
527.002	0.0049
527.297	0.0037
527.592	0.0047
527.887	0.0037
528.182	0.0031
528.477	0.005
528.772	0.0033
529.067	0.0045
529.362	0.0039
529.657	0.0035
529.951	0.0038
530.246	0.0028
530.54	0.0034
530.835	0.0033
531.129	0.0046
531.423	0.0037
531.718	0.0035
532.012	0.0035
532.306	0.0042
532.6	0.0037
532.894	0.0035
533.188	0.0032
533.482	0.0043
533.775	0.0034
534.069	0.0042
534.363	0.0041
534.656	0.0033
534.95	0.0031
535.243	0.0034
535.536	0.0026
535.83	0.0039
536.123	0.0027
536.416	0.003
536.709	0.0042
537.002	0.0044
537.295	0.0042
537.588	0.0038
537.881	0.0027
538.173	0.0046
538.466	0.0036
538.759	0.003
539.051	0.004
539.344	0.0042
539.636	0.0027
539.928	0.0043
540.22	0.0017
540.513	0.0036
540.805	0.0036
541.097	0.0036
541.389	0.0027
541.681	0.0038
541.972	0.0026
542.264	0.0027
542.556	0.0031
542.847	0.0024
543.139	0.0032
543.431	0.0017
543.722	0.0016
544.013	0.0035
544.305	0.0027
544.596	0.0031
544.887	0.0029
545.178	0.0041
545.469	0.0033
545.76	0.0037
546.051	0.0036
546.342	0.0026
546.632	0.0032
546.923	0.0029
547.214	0.0033
547.504	0.003
547.795	0.0029
548.085	0.003
548.375	0.0042
548.666	0.005
548.956	0.0034
549.246	0.0037
549.536	0.003
549.826	0.0043
550.116	0.0042
550.406	0.0032
550.695	0.004
550.985	0.0042
551.275	0.0039
551.564	0.0047
551.854	0.005
552.143	0.0043
552.433	0.0029
552.722	0.0038
553.011	0.0036
553.3	0.0036
553.589	0.0048
553.879	0.0037
554.167	0.0032
554.456	0.0035
554.745	0.0041
555.034	0.0055
555.323	0.0043
555.611	0.0048
555.9	0.0038
556.188	0.0039
556.477	0.0032
556.765	0.0037
557.053	0.0043
557.342	0.0034
557.63	0.0039
557.918	0.0046
558.206	0.0042
558.494	0.0042
558.782	0.0033
559.069	0.0051
559.357	0.0043
559.645	0.0042
559.932	0.0036
560.22	0.004
560.507	0.0021
560.795	0.0028
561.082	0.0021
561.37	0.0035
561.657	0.0028
561.944	0.0029
562.231	0.0029
562.518	0.0034
562.805	0.0045
563.092	0.0026
563.379	0.0034
563.665	0.0029
563.952	0.0048
564.239	0.0045
564.525	0.005
564.811	0.0043
565.098	0.0037
565.384	0.0037
565.67	0.0043
565.957	0.0036
566.243	0.0043
566.529	0.0036
566.815	0.004
567.101	0.0033
567.387	0.0035
567.672	0.0033
567.958	0.0025
568.244	0.0027
568.529	0.0028
568.815	0.003
569.1	0.0026
569.386	0.0038
569.671	0.0032
569.956	0.0032
570.242	0.0038
570.527	0.0028
570.812	0.003
571.097	0.0023
571.382	0.0019
571.666	0.0027
571.951	0.0037
572.236	0.003
572.521	0.0034
572.805	0.0037
573.09	0.0032
573.374	0.0024
573.659	0.0031
573.943	0.0028
574.227	0.0031
574.511	0.0031
574.795	0.0035
575.079	0.003
575.363	0.0034
575.647	0.0029
575.931	0.0033
576.215	0.0033
576.499	0.0026
576.782	0.0023
577.066	0.0024
577.349	0.003
577.633	0.0033
577.916	0.0028
578.2	0.0034
578.483	0.0038
578.766	0.0045
579.049	0.0033
579.332	0.0037
579.615	0.0027
579.898	0.0027
580.181	0.0024
580.464	0.0033
580.746	0.0029
581.029	0.0034
581.312	0.0018
581.594	0.0023
581.877	0.0025
582.159	0.0036
582.441	0.0022
582.724	0.0032
583.006	0.0032
583.288	0.003
583.57	0.0034
583.852	0.0037
584.134	0.0034
584.416	0.0029
584.697	0.003
584.979	0.0024
585.261	0.0033
585.542	0.003
585.824	0.0028
586.105	0.0028
586.387	0.0031
586.668	0.0032
586.949	0.0033
587.231	0.003
587.512	0.0028
587.793	0.0023
588.074	0.0031
588.355	0.003
588.636	0.0032
588.916	0.0029
589.197	0.0019
589.478	0.0029
589.758	0.0025
590.039	0.0025
590.319	0.0018
590.6	0.0021
590.88	0.0029
591.16	0.0023
591.441	0.0029
591.721	0.002
592.001	0.0019
592.281	0.0022
592.561	0.0035
592.841	0.0031
593.12	0.0026
593.4	0.003
593.68	0.0031
593.959	0.003
594.239	0.0037
594.518	0.0035
594.798	0.0036
595.077	0.0033
595.356	0.0036
595.636	0.0031
595.915	0.0027
596.194	0.0034
596.473	0.0033
596.752	0.0026
597.031	0.0034
597.31	0.0023
597.588	0.0028
597.867	0.0026
598.146	0.0022
598.424	0.0015
598.703	0.0021
598.981	0.0017
599.259	0.0015
599.538	0.0028
599.816	0.0037
600.094	0.0032
600.372	0.003
600.65	0.0032
600.928	0.0036
601.206	0.0026
601.484	0.0029
601.762	0.004
602.04	0.0036
602.317	0.0032
602.595	0.0034
602.872	0.0026
603.15	0.0037
603.427	0.0017
603.704	0.0018
603.982	0.0015
604.259	0.0016
604.536	0.0032
604.813	0.0028
605.09	0.0028
605.367	0.0022
605.644	0.0021
605.921	0.0021
606.197	0.0014
606.474	0.0026
606.751	0.0029
607.027	0.0021
607.304	0.003
607.58	0.003
607.856	0.0035
608.133	0.0038
608.409	0.005
608.685	0.004
608.961	0.0033
609.237	0.0036
609.513	0.0046
609.789	0.003
610.065	0.0031
610.341	0.0021
610.616	0.0025
610.892	0.0017
611.167	0.0018
611.443	0.0025
611.718	0.0023
611.994	0.0023
612.269	0.0016
612.544	0.002
612.819	0.0022
613.095	0.0021
613.37	0.0016
613.645	0.0021
613.919	0.0027
614.194	0.0024
614.469	0.0031
614.744	0.0029
615.019	0.0017
615.293	0.0021
615.568	0.0021
615.842	0.0017
616.116	0.002
616.391	0.0014
616.665	0.0016
616.939	0.0015
617.213	0.0017
617.488	0.0022
617.762	0.0019
618.035	0.0029
618.309	0.0024
618.583	0.0024
618.857	0.0028
619.131	0.0031
619.404	0.0021
619.678	0.0031
619.951	0.0032
620.225	0.0016
620.498	0.0014
620.771	0.0011
621.045	0.0024
621.318	0.0025
621.591	0.0028
621.864	0.002
622.137	0.0009
622.41	0.0018
622.683	0.0009
622.956	0.0013
623.228	0.0028
623.501	0.0017
623.774	0.0025
624.046	0.0017
624.319	0.0024
624.591	0.0022
624.863	0.0019
625.136	0.0024
625.408	0.0036
625.68	0.0031
625.952	0.0025
626.224	0.0034
626.496	0.0022
626.768	0.0028
627.04	0.0026
627.311	0.0026
627.583	0.0029
627.855	0.0022
628.126	0.0014
628.398	0.0018
628.669	0.0011
628.941	0.0003
629.212	-0.0004
629.483	0.0009
629.755	0.0004
630.026	0.001
630.297	0.0008
630.568	0.0007
630.839	0.0008
631.11	0.0012
631.38	0.0009
631.651	0.0016
631.922	0.0028
632.192	0.0012
632.463	0.0012
632.733	0.0004
633.004	0.0012
633.274	0.0006
633.545	0.0006
633.815	0.0019
634.085	0.0022
634.355	0.0007
634.625	0.0013
634.895	0.0017
635.165	0.002
635.435	0.0024
635.705	0.002
635.974	0.0021
636.244	0.0011
636.514	0.001
636.783	0.0012
637.053	0.0014
637.322	0.0009
637.591	0.0015
637.861	-0.0001
638.13	-0.0009
638.399	0.0007
638.668	0.0002
638.937	0.0011
639.206	0.0009
639.475	0.0023
639.744	0.0014
640.013	0.001
640.281	0.001
640.55	0.0014
640.819	0.0014
641.087	0.0013
641.356	0.0011
641.624	0.001
641.892	0.0014
642.161	0.001
642.429	0.0006
642.697	0.0015
642.965	0.0002
643.233	-0.0002
643.501	0.0007
643.769	0.0012
644.037	0.0007
644.305	0.0001
644.572	-0.0003
644.84	0.0005
645.108	0.0013
645.375	0.0007
645.643	0.0023
645.91	0.0017
646.177	0.001
646.445	0.0006
646.712	0.0014
646.979	0.0016
647.246	0.003
647.513	0.0021
647.78	0.0015
648.047	0.0002
648.314	0
648.58	-0.0002
648.847	-0.0011
649.114	-0.0015
649.38	-0.0011
649.647	-0.0001
649.913	-0.0001
650.18	0.0006
650.446	0.0022
650.712	0.0025
650.978	0.0031
651.245	0.003
651.511	0.0032
651.777	0.0033
652.043	0.0021
652.309	0.0034
652.574	0.0023
652.84	0.0023
653.106	0.003
653.371	0.0039
653.637	0.0034
653.903	0.0033
654.168	0.0027
654.433	0.002
654.699	0.0015
654.964	0.0006
655.229	-0.0003
655.494	0.0009
655.759	-0.0002
656.024	0.0006
656.289	-0
656.554	0.0017
656.819	0.0016
657.084	0.0028
657.349	0.0024
657.613	0.0017
657.878	0.0007
658.142	-0.0001
658.407	0.0006
658.671	0.002
658.936	0.0013
659.2	0.0018
659.464	0.0021
659.728	0.0016
659.992	0.0007
660.256	-0.0005
660.52	-0.0002
660.784	0.0007
661.048	0.0013
661.312	0.0006
661.575	0.0002
661.839	0.0013
662.103	0.0003
662.366	-0.0003
662.63	0.0011
662.893	0.0003
663.156	0.0012
663.42	0.0019
663.683	0.0002
663.946	0.0025
664.209	0.0025
664.472	0.0022
664.735	0.0021
664.998	0.0028
665.261	0.0029
665.524	0.0024
665.786	0.0028
666.049	0.0025
666.312	0.0023
666.574	0.0019
666.837	0.0037
667.099	0.0021
667.361	0.0035
667.624	0.0028
667.886	0.0027
668.148	0.0031
668.41	0.0026
668.672	0.003
668.934	0.0019
669.196	0.0016
669.458	0.0008
669.72	0.0006
669.982	0.0005
670.243	0.0002
670.505	0.0001
670.766	0.0008
671.028	0.0019
671.289	0.0014
671.551	0.0019
671.812	0.0011
672.073	0.0011
672.334	0.0012
672.596	0.0011
672.857	0.0019
673.118	0.0025
673.379	0.0035
673.639	0.0027
673.9	0.0021
674.161	0.0024
674.422	0.0022
674.682	0.0012
674.943	0.001
675.203	0.0006
675.464	0.0011
675.724	0.0017
675.985	0.0015
676.245	0.0018
676.505	0.0002
676.765	0.0003
677.025	0.0013
677.285	0.0006
677.545	-0
677.805	0.0005
678.065	0.0017
678.325	0.0022
678.585	0.0029
678.844	0.0032
679.104	0.0033
679.363	0.0042
679.623	0.0039
679.882	0.0037
680.142	0.0043
680.401	0.0047
680.66	0.0052
680.919	0.0023
681.178	0.0034
681.437	0.0032
681.696	0.0023
681.955	0.0046
682.214	0.0044
682.473	0.005
682.732	0.0029
682.99	0.0053
683.249	0.0049
683.508	0.0038
683.766	0.0037
684.024	0.0032
684.283	0.0018
684.541	0.0016
684.799	0.0012
685.058	-0.0002
685.316	0.0002
685.574	-0.0007
685.832	0.001
686.09	0.0001
686.348	-0.0002
686.606	-0.0002
686.863	-0.0011
687.121	-0.0019
687.379	-0.0023
687.636	-0.0026
687.894	-0.0027
688.151	-0.0019
688.409	-0.0019
688.666	-0.0016
688.923	-0.0004
689.181	-0.0013
689.438	-0.0012
689.695	-0.0008
689.952	-0
690.209	0.0001
690.466	-0.0007
690.723	-0.0009
690.979	-0.0013
691.236	-0.0016
691.493	-0.0029
691.75	-0.0013
692.006	-0.001
692.263	-0.0013
692.519	-0.0005
692.775	-0.0022
693.032	-0.0018
693.288	-0.0024
693.544	-0.0019
693.8	-0.0014
694.056	-0.0018
694.313	-0.0016
694.568	-0.0019
694.824	-0.0018
695.08	-0.0006
695.336	-0.001
695.592	-0.0007
695.847	0.0002
696.103	0.001
696.359	0.0025
696.614	0.0029
696.869	0.0012
697.125	0.0001
697.38	-0.0003
697.635	-0.0002
697.891	0.0014
698.146	0.0001
698.401	0.0002
698.656	-0.0004
698.911	0.0007
699.166	0
699.42	0.0011
699.675	0.0017
699.93	0.0021
700.185	0.002
700.439	0.0016
700.694	0.0021
700.948	0.002
701.203	0.0016
701.457	0.0007
701.711	0.001
701.965	0.0007
702.22	0.0001
702.474	-0.0001
702.728	-0.0003
702.982	0.0003
703.236	0.0002
703.49	0.0003
703.743	-0.0002
703.997	0.0006
704.251	0.0004
704.504	0.002
704.758	0.0023
705.012	0.0022
705.265	0.0025
705.518	0.0015
705.772	0.0012
706.025	0.0028
706.278	0.0011
706.531	0.0004
706.785	-0.0002
707.038	0
707.291	-0.0001
707.543	0.0001
707.796	0.0007
708.049	0.0008
708.302	0.0001
708.555	-0
708.807	0.0011
709.06	0.0005
709.312	0.0026
709.565	0.0017
709.817	0.003
710.069	0.0019
710.322	0.0029
710.574	0.0028
710.826	0.0024
711.078	0.0027
711.33	0.002
711.582	0.0017
711.834	0.0006
712.086	0.0019
712.338	0.0017
712.59	0.001
712.841	0.0003
713.093	0.0003
713.344	0.0012
713.596	-0.0005
713.847	-0.0009
714.099	-0.0008
714.35	-0.0005
714.601	-0.0018
714.853	-0.0017
715.104	-0.0016
715.355	-0.0016
715.606	-0.0002
715.857	-0.0001
716.108	0.0005
716.359	0.0008
716.609	-0.0004
716.86	0.0015
717.111	0.0007
717.361	0
717.612	0.0002
717.863	0.0003
718.113	0.0022
718.363	0.001
718.614	0.002
718.864	0.0015
719.114	0.0012
719.364	-0.0005
719.614	0.0004
719.865	-0.0002
720.114	0.0006
720.364	0.0007
720.614	-0.0003
720.864	-0.0005
721.114	-0.0016
721.364	-0.0012
721.613	-0.0013
721.863	-0.0007
722.112	-0.0003
722.362	0.0001
722.611	0.0005
722.86	0.0008
723.11	0.0016
723.359	0.0016
723.608	0.0011
723.857	0.0034
724.106	0.0024
724.355	0.0027
724.604	0.0017
724.853	0.0011
725.102	-0.0004
725.351	-0.0016
725.599	-0.0022
725.848	-0.0017
726.097	-0.0009
726.345	-0.0014
726.594	-0.0012
726.842	-0.0004
727.09	-0.0016
727.339	-0.0013
727.587	-0.0015
727.835	-0.0025
728.083	-0.0029
728.331	-0.0023
728.579	-0.0011
728.827	-0.0022
729.075	-0.0023
729.323	-0.0019
729.571	-0.0032
729.818	-0.0026
730.066	-0.0023
730.314	-0.0018
730.561	-0.0013
730.809	-0.003
731.056	-0.0025
731.303	-0.0024
731.551	-0.0021
731.798	-0.0023
732.045	-0.0009
732.292	-0.0016
732.539	-0.0014
732.786	-0.002
733.033	-0.0015
733.28	-0.0013
733.527	-0.0023
733.774	-0.0023
734.021	-0.0018
734.267	-0.0016
734.514	-0.0018
734.76	-0.0017
735.007	-0.0015
735.253	-0.0007
735.5	0.0013
735.746	0.0017
735.992	0.0013
736.238	0.0016
736.485	0.0016
736.731	0.0022
736.977	0.0004
737.223	-0.0005
737.469	-0.0003
737.715	0.0003
737.96	0.001
738.206	0.0009
738.452	0.0002
738.697	0.0002
738.943	-0.0006
739.189	-0.0003
739.434	-0.0011
739.679	0.0004
739.925	0.0018
740.17	0.0019
740.415	0.0017
740.66	0.0019
740.906	0.0011
741.151	0.0017
741.396	0.0005
741.641	0.0001
741.886	0.0006
742.13	0.0008
742.375	0.0017
742.62	-0.0002
742.865	0.0008
743.109	0.0009
743.354	-0.0003
743.598	-0.0014
743.843	-0.0023
744.087	-0.003
744.331	-0.0029
744.576	-0.0022
744.82	-0.0018
745.064	-0.0012
745.308	-0.0011
745.552	-0.0009
745.796	-0.0017
746.04	-0.0015
746.284	-0.0017
746.528	-0.0005
746.771	-0.0017
747.015	-0.0012
747.259	-0.0019
747.502	-0.0021
747.746	-0.0017
747.989	-0.0003
748.233	0.0001
748.476	0.0004
748.719	0.0006
748.963	0.0002
749.206	-0.0003
749.449	0
749.692	-0.0003
749.935	-0.0009
750.178	-0.0009
750.421	-0.0007
750.664	-0.0003
750.906	0.0001
751.149	-0.001
751.392	0.0002
751.635	-0.0003
751.877	0.0003
752.12	-0.0011
752.362	-0.0003
752.604	-0.0001
752.847	-0.0005
753.089	0.0002
753.331	-0.0005
753.573	-0.0006
753.816	0.0002
754.058	-0.0001
754.3	0.0005
754.542	0.0007
754.783	0.0012
755.025	0.0017
755.267	0.0014
755.509	0.0008
755.75	-0.0002
755.992	0.0007
756.234	0.0001
756.475	0.0009
756.716	-0.0006
756.958	-0.0011
757.199	-0.0008
757.44	-0.0003
757.682	-0.0012
757.923	0.0004
758.164	0.0002
758.405	-0.0008
758.646	-0
758.887	-0.0008
759.128	-0.0005
759.369	-0.002
759.609	-0.0009
759.85	-0.0003
760.091	-0
760.331	0.0003
760.572	-0.0001
760.812	-0.0004
761.053	0.0002
761.293	0.001
761.533	0.0016
761.774	0.0016
762.014	0.0014
762.254	0.0013
762.494	0.002
762.734	0.0016
762.974	0.0015
763.214	0.0015
763.454	0.0012
763.694	0.0014
763.933	0.0034
764.173	0.004
764.413	0.0032
764.652	0.0012
764.892	0.0013
765.131	0.0011
765.371	0.0005
765.61	-0.0005
765.849	-0.002
766.089	-0.0019
766.328	-0.0023
766.567	-0.003
766.806	-0.0038
767.045	-0.0048
767.284	-0.0031
767.523	-0.0036
767.762	-0.0036
768.001	-0.0036
768.239	-0.0027
768.478	-0.0029
768.717	-0.0033
768.955	-0.0036
769.194	-0.003
769.432	-0.0021
769.671	-0.0021
769.909	-0.0014
770.148	-0.0022
770.386	-0.0025
770.624	-0.0019
770.862	-0.0031
771.1	-0.0024
771.338	-0.0024
771.576	-0.001
771.814	0.0001
772.052	-0.0005
772.29	0.0006
772.528	-0.0007
772.765	-0.0012
773.003	-0.0006
773.24	-0.001
773.478	-0.0009
773.716	0.0005
773.953	0.0006
774.19	0.0008
774.428	0.0017
774.665	0.0031
774.902	0.0032
775.139	0.0024
775.376	0.0017
775.613	0.0014
775.85	0.0006
776.087	0.0009
776.324	-0.0001
776.561	-0.001
776.798	-0.0006
777.034	-0.001
777.271	-0.0007
777.508	-0.0006
777.744	0.0004
777.981	0.0002
778.217	-0.0005
778.454	-0.0019
778.69	-0.0018
778.926	-0.0009
779.162	-0.0017
779.399	0.0002
779.635	-0.0011
779.871	-0.0009
780.107	-0.0009
780.343	-0.0021
780.579	-0.0016
780.814	-0.0002
781.05	-0.0001
781.286	-0.0016
781.522	-0.0013
781.757	-0.0026
781.993	-0.0016
782.228	-0.0025
782.464	-0.001
782.699	-0.0008
782.934	-0.0014
783.17	-0.0007
783.405	-0.0005
783.64	-0.0003
783.875	-0.0026
784.11	-0.0028
784.345	-0.0016
784.58	-0.0012
784.815	-0.0021
785.05	-0.001
785.285	-0.0017
785.52	-0.0009
785.754	-0.0007
785.989	-0.0004
786.223	0.0004
786.458	0.001
786.692	0.0024
786.927	0.0031
787.161	0.0026
787.396	0.003
787.63	0.0015
787.864	0.0006
788.098	-0.0011
788.332	-0.0003
788.566	-0.0014
788.8	-0.0012
789.034	-0.0004
789.268	-0.0011
789.502	-0.001
789.736	-0.0009
789.969	-0.0003
790.203	-0.0003
790.437	0.0001
790.67	0.0004
790.904	0.0017
791.137	0.0025
791.37	0.0018
791.604	0.0022
791.837	0.0029
792.07	0.0038
792.303	0.0034
792.537	0.0048
792.77	0.0036
793.003	0.0035
793.236	0.0023
793.469	0.0032
793.701	0.0021
793.934	0.0019
794.167	0.0015
794.4	0.0011
794.632	0.0003
794.865	0.0003
795.097	-0.0004
795.33	-0.0005
795.562	-0.0003
795.795	-0.0003
796.027	0.0003
796.259	0.0016
796.491	0.002
796.724	0.0027
796.956	0.0021
797.188	0.0019
797.42	0.002
797.652	0.002
797.883	0.0023
798.115	0.0028
798.347	0.0025
798.579	0.002
798.81	0.0026
799.042	0.0024
799.274	0.0034
799.505	0.0028
799.737	0.0027
799.968	0.0029
800.199	0.0027
800.431	0.0035
800.662	0.0022
800.893	0.0036
801.124	0.0032
801.355	0.0032
801.586	0.0035
801.817	0.0048
802.048	0.0045
802.279	0.0035
802.51	0.0038
802.741	0.0046
802.971	0.0042
803.202	0.0034
803.433	0.003
803.663	0.0027
803.894	0.0024
804.124	0.0025
804.354	0.0047
804.585	0.006
804.815	0.0059
805.045	0.0059
805.275	0.0062
805.506	-0.0044
805.736	-0.077
805.966	0.0601
806.196	0.0434
