Data from 03 0.4 mM K2Cr2O7 0.25 M BQDS 1 M H2SO4 5 min_Absorbance_0105.txt Node
Date: Wed Dec 15 02:15:13 EST 2021
User: kwabilab-user
Spectrometer: HDX00518
Trigger mode: 0
Integration Time (sec): 5.000000E-2
Scans to average: 50
Nonlinearity correction enabled: false
Boxcar width: 0
Storing dark spectrum: false
XAxis mode: Wavelengths
Number of Pixels in Spectrum: 2068
>>>>>Begin Spectral Data<<<<<
195.27	-0.2221
195.642	-0.0424
196.014	-0.1968
196.386	-0.2086
196.758	-0.1367
197.129	-0.0356
197.501	-0.0361
197.872	-0.026
198.244	-0.0072
198.615	0.02
198.986	0.011
199.357	0.0014
199.728	0.0131
200.099	-0.0037
200.47	0.0013
200.841	-0.0009
201.212	-0.0068
201.582	0.0104
201.953	0.0127
202.323	0.0074
202.694	-0.0076
203.064	-0.0112
203.434	-0
203.804	-0.0084
204.174	0.0037
204.544	0.0087
204.914	-0.0284
205.284	-0.0106
205.653	-0.0121
206.023	-0.0221
206.393	-0.0155
206.762	-0.0087
207.131	-0.002
207.501	-0.002
207.87	0.0056
208.239	-0.0128
208.608	-0.0031
208.977	-0.0083
209.346	-0.0226
209.715	-0.0097
210.083	-0.0075
210.452	-0.015
210.82	-0.0024
211.189	-0.019
211.557	-0.0009
211.925	-0.0172
212.294	-0.0227
212.662	-0.0252
213.03	-0.0023
213.398	-0.0217
213.766	-0.0174
214.133	-0.009
214.501	-0.0159
214.869	-0.0113
215.236	-0.0172
215.604	0.0011
215.971	0.0187
216.338	0.0039
216.705	0.002
217.072	0.0002
217.439	-0.0053
217.806	0.0092
218.173	0.0188
218.54	0.0197
218.907	0.029
219.273	0.0228
219.64	0.0513
220.006	0.0416
220.373	0.0489
220.739	0.062
221.105	0.1073
221.471	0.1033
221.837	0.147
222.203	0.1387
222.569	0.1402
222.935	0.1734
223.3	0.1991
223.666	0.2084
224.031	0.2585
224.397	0.2591
224.762	0.2761
225.127	0.3122
225.493	0.3256
225.858	0.3533
226.223	0.3815
226.588	0.3996
226.952	0.4037
227.317	0.4269
227.682	0.457
228.046	0.4484
228.411	0.4926
228.775	0.5049
229.14	0.5137
229.504	0.5201
229.868	0.5265
230.232	0.5494
230.596	0.564
230.96	0.5741
231.324	0.56
231.688	0.5711
232.052	0.5847
232.415	0.5849
232.779	0.5868
233.142	0.593
233.505	0.5941
233.869	0.5995
234.232	0.5896
234.595	0.6127
234.958	0.6199
235.321	0.6029
235.684	0.5999
236.047	0.609
236.409	0.5966
236.772	0.6039
237.134	0.6022
237.497	0.5891
237.859	0.6039
238.222	0.6024
238.584	0.5829
238.946	0.5909
239.308	0.5817
239.67	0.586
240.032	0.5919
240.393	0.575
240.755	0.5777
241.117	0.5791
241.478	0.5682
241.84	0.5695
242.201	0.558
242.562	0.5714
242.924	0.5598
243.285	0.5563
243.646	0.5516
244.007	0.5499
244.368	0.5571
244.728	0.5493
245.089	0.5504
245.45	0.541
245.81	0.5357
246.171	0.537
246.531	0.5382
246.891	0.5355
247.252	0.5364
247.612	0.5372
247.972	0.5373
248.332	0.536
248.692	0.5365
249.051	0.5294
249.411	0.5317
249.771	0.5345
250.13	0.5258
250.49	0.5279
250.849	0.5234
251.208	0.5285
251.568	0.526
251.927	0.5235
252.286	0.5278
252.645	0.5244
253.004	0.5294
253.363	0.5204
253.721	0.52
254.08	0.5261
254.439	0.5185
254.797	0.5215
255.155	0.5226
255.514	0.5207
255.872	0.5171
256.23	0.5143
256.588	0.5178
256.946	0.5143
257.304	0.5178
257.662	0.5167
258.02	0.5138
258.377	0.5116
258.735	0.518
259.093	0.5093
259.45	0.5105
259.807	0.513
260.165	0.5124
260.522	0.5117
260.879	0.5076
261.236	0.5057
261.593	0.5076
261.95	0.5034
262.306	0.5035
262.663	0.5001
263.02	0.5011
263.376	0.4949
263.733	0.4954
264.089	0.4943
264.445	0.495
264.802	0.4936
265.158	0.4906
265.514	0.4905
265.87	0.488
266.226	0.4879
266.581	0.489
266.937	0.4808
267.293	0.4818
267.648	0.4817
268.004	0.4771
268.359	0.4732
268.714	0.4677
269.07	0.47
269.425	0.4683
269.78	0.4681
270.135	0.4643
270.49	0.4627
270.844	0.4607
271.199	0.4531
271.554	0.4545
271.908	0.4479
272.263	0.4476
272.617	0.447
272.972	0.4428
273.326	0.4408
273.68	0.4369
274.034	0.4336
274.388	0.4293
274.742	0.4313
275.096	0.4244
275.45	0.4228
275.803	0.4158
276.157	0.4178
276.51	0.415
276.864	0.4096
277.217	0.41
277.571	0.4077
277.924	0.4014
278.277	0.3974
278.63	0.3918
278.983	0.388
279.336	0.3859
279.688	0.3821
280.041	0.3763
280.394	0.3723
280.746	0.3708
281.099	0.3652
281.451	0.3644
281.803	0.3599
282.156	0.3573
282.508	0.3522
282.86	0.3484
283.212	0.3463
283.564	0.3406
283.916	0.3363
284.267	0.3349
284.619	0.3315
284.971	0.3263
285.322	0.326
285.673	0.3217
286.025	0.3158
286.376	0.314
286.727	0.3104
287.078	0.3062
287.429	0.3043
287.78	0.2995
288.131	0.296
288.482	0.2928
288.833	0.2905
289.183	0.2858
289.534	0.282
289.884	0.2791
290.235	0.275
290.585	0.2731
290.935	0.269
291.285	0.2656
291.635	0.2614
291.985	0.2589
292.335	0.256
292.685	0.2539
293.035	0.2491
293.384	0.2463
293.734	0.2414
294.083	0.2399
294.433	0.237
294.782	0.2347
295.131	0.2286
295.48	0.2267
295.829	0.2239
296.179	0.2207
296.527	0.2183
296.876	0.2158
297.225	0.2105
297.574	0.2095
297.922	0.2061
298.271	0.2039
298.619	0.1995
298.968	0.1977
299.316	0.1947
299.664	0.1932
300.012	0.1902
300.36	0.1872
300.708	0.1853
301.056	0.1819
301.404	0.1805
301.752	0.1774
302.099	0.1756
302.447	0.1726
302.794	0.1712
303.142	0.1675
303.489	0.166
303.836	0.1648
304.183	0.1621
304.531	0.1604
304.878	0.1581
305.224	0.1572
305.571	0.1545
305.918	0.1532
306.265	0.1509
306.611	0.1495
306.958	0.1496
307.304	0.1476
307.651	0.1465
307.997	0.1452
308.343	0.1441
308.689	0.1435
309.035	0.1421
309.381	0.1403
309.727	0.14
310.073	0.139
310.419	0.1377
310.764	0.1379
311.11	0.1358
311.455	0.1355
311.801	0.1349
312.146	0.1337
312.491	0.1334
312.837	0.1345
313.182	0.1323
313.527	0.1323
313.872	0.1328
314.216	0.132
314.561	0.1315
314.906	0.1316
315.251	0.1324
315.595	0.1316
315.94	0.1312
316.284	0.1319
316.628	0.132
316.972	0.1321
317.317	0.132
317.661	0.1324
318.005	0.1324
318.348	0.1319
318.692	0.1333
319.036	0.1342
319.38	0.1344
319.723	0.1336
320.067	0.1349
320.41	0.1359
320.754	0.1361
321.097	0.136
321.44	0.1372
321.783	0.1386
322.126	0.139
322.469	0.1389
322.812	0.1406
323.155	0.1408
323.498	0.1414
323.84	0.1419
324.183	0.1434
324.525	0.1443
324.868	0.1462
325.21	0.146
325.552	0.1473
325.894	0.1481
326.236	0.1486
326.578	0.1497
326.92	0.1513
327.262	0.1518
327.604	0.1526
327.946	0.1534
328.287	0.1543
328.629	0.1557
328.97	0.1563
329.312	0.1579
329.653	0.1593
329.994	0.1603
330.335	0.1613
330.676	0.163
331.017	0.1635
331.358	0.1652
331.699	0.1657
332.04	0.1675
332.38	0.1688
332.721	0.169
333.061	0.1698
333.402	0.1718
333.742	0.1728
334.083	0.1734
334.423	0.1741
334.763	0.1756
335.103	0.1765
335.443	0.1778
335.783	0.1787
336.123	0.179
336.462	0.1798
336.802	0.1814
337.141	0.1822
337.481	0.1829
337.82	0.1842
338.16	0.1846
338.499	0.1862
338.838	0.1869
339.177	0.1876
339.516	0.1886
339.855	0.1896
340.194	0.19
340.533	0.1911
340.872	0.1913
341.21	0.1922
341.549	0.1925
341.887	0.1937
342.226	0.1932
342.564	0.1942
342.902	0.1943
343.24	0.1952
343.578	0.1952
343.916	0.1953
344.254	0.1961
344.592	0.1969
344.93	0.197
345.268	0.1962
345.605	0.1966
345.943	0.1971
346.28	0.1971
346.618	0.1966
346.955	0.1977
347.292	0.1983
347.629	0.1975
347.966	0.1985
348.303	0.1979
348.64	0.198
348.977	0.1981
349.314	0.1982
349.65	0.1975
349.987	0.1986
350.324	0.1971
350.66	0.1982
350.996	0.1975
351.333	0.1976
351.669	0.1964
352.005	0.1962
352.341	0.1948
352.677	0.1942
353.013	0.1932
353.349	0.1932
353.685	0.1919
354.02	0.1916
354.356	0.1909
354.691	0.1902
355.027	0.1897
355.362	0.1879
355.697	0.1881
356.033	0.1874
356.368	0.1857
356.703	0.1851
357.038	0.1851
357.373	0.1829
357.707	0.1832
358.042	0.1818
358.377	0.1818
358.711	0.1815
359.046	0.1794
359.38	0.1791
359.715	0.1783
360.049	0.1773
360.383	0.1758
360.717	0.175
361.051	0.1741
361.385	0.1732
361.719	0.1726
362.053	0.1722
362.387	0.1694
362.72	0.1678
363.054	0.1665
363.387	0.1652
363.721	0.1648
364.054	0.1628
364.387	0.1611
364.721	0.1596
365.054	0.1585
365.387	0.1573
365.72	0.1565
366.053	0.1548
366.385	0.1531
366.718	0.153
367.051	0.1509
367.383	0.1497
367.716	0.1492
368.048	0.1482
368.381	0.147
368.713	0.1453
369.045	0.1453
369.377	0.1444
369.709	0.1429
370.041	0.1421
370.373	0.1404
370.705	0.1405
371.037	0.1383
371.368	0.1371
371.7	0.1358
372.031	0.1347
372.363	0.1332
372.694	0.132
373.025	0.1303
373.356	0.1284
373.688	0.1274
374.019	0.1261
374.35	0.1239
374.68	0.1228
375.011	0.1211
375.342	0.1198
375.673	0.1187
376.003	0.1162
376.334	0.1144
376.664	0.1138
376.995	0.1122
377.325	0.1111
377.655	0.1101
377.985	0.1084
378.315	0.1079
378.645	0.1069
378.975	0.1059
379.305	0.1042
379.635	0.1041
379.964	0.1028
380.294	0.1019
380.623	0.1005
380.953	0.0997
381.282	0.0988
381.611	0.0979
381.941	0.097
382.27	0.0955
382.599	0.095
382.928	0.0936
383.257	0.0924
383.585	0.0916
383.914	0.0891
384.243	0.0885
384.571	0.0871
384.9	0.0863
385.228	0.0844
385.557	0.084
385.885	0.0822
386.213	0.0809
386.541	0.0797
386.869	0.0789
387.197	0.0768
387.525	0.0765
387.853	0.0755
388.181	0.0738
388.508	0.0727
388.836	0.0715
389.164	0.0709
389.491	0.0693
389.818	0.0681
390.146	0.0673
390.473	0.067
390.8	0.0666
391.127	0.0649
391.454	0.0638
391.781	0.0633
392.108	0.0629
392.435	0.0615
392.761	0.0612
393.088	0.0606
393.415	0.0599
393.741	0.0601
394.067	0.0589
394.394	0.058
394.72	0.0574
395.046	0.056
395.372	0.0557
395.698	0.055
396.024	0.0536
396.35	0.0535
396.676	0.0533
397.001	0.0517
397.327	0.0516
397.653	0.051
397.978	0.0503
398.303	0.0491
398.629	0.0485
398.954	0.0482
399.279	0.0479
399.604	0.0465
399.929	0.0467
400.254	0.0453
400.579	0.0454
400.904	0.0443
401.229	0.0442
401.553	0.0445
401.878	0.0438
402.202	0.043
402.527	0.0422
402.851	0.0426
403.175	0.0412
403.5	0.0407
403.824	0.0403
404.148	0.041
404.472	0.0399
404.796	0.0403
405.119	0.0397
405.443	0.0395
405.767	0.0397
406.09	0.0394
406.414	0.039
406.737	0.0389
407.061	0.0393
407.384	0.0387
407.707	0.0378
408.03	0.0378
408.353	0.0377
408.676	0.0378
408.999	0.0372
409.322	0.0371
409.645	0.0375
409.968	0.0375
410.29	0.037
410.613	0.0372
410.935	0.0364
411.258	0.037
411.58	0.036
411.902	0.0363
412.224	0.0363
412.546	0.0363
412.868	0.0373
413.19	0.0359
413.512	0.0358
413.834	0.0358
414.156	0.036
414.477	0.0358
414.799	0.0364
415.121	0.0352
415.442	0.0356
415.763	0.0353
416.085	0.0357
416.406	0.0352
416.727	0.0361
417.048	0.0361
417.369	0.0355
417.69	0.0356
418.011	0.0355
418.331	0.0354
418.652	0.0352
418.973	0.0352
419.293	0.0351
419.614	0.0344
419.934	0.0361
420.254	0.036
420.574	0.0351
420.895	0.0351
421.215	0.0351
421.535	0.0347
421.855	0.0344
422.174	0.0337
422.494	0.0352
422.814	0.0345
423.134	0.0352
423.453	0.0353
423.773	0.0361
424.092	0.0353
424.411	0.0353
424.731	0.035
425.05	0.035
425.369	0.0354
425.688	0.0351
426.007	0.0354
426.326	0.0357
426.644	0.0347
426.963	0.0347
427.282	0.0347
427.6	0.0348
427.919	0.0353
428.237	0.0363
428.556	0.0354
428.874	0.0352
429.192	0.0352
429.51	0.0345
429.828	0.035
430.146	0.0354
430.464	0.0347
430.782	0.035
431.1	0.0343
431.418	0.0354
431.735	0.0348
432.053	0.0348
432.37	0.0352
432.688	0.0345
433.005	0.0341
433.322	0.0356
433.639	0.0351
433.957	0.0352
434.274	0.0354
434.591	0.0349
434.907	0.0346
435.224	0.035
435.541	0.0346
435.858	0.0361
436.174	0.0354
436.491	0.0348
436.807	0.0346
437.124	0.0349
437.44	0.0347
437.756	0.0349
438.072	0.0341
438.388	0.0347
438.704	0.0347
439.02	0.0339
439.336	0.034
439.652	0.0346
439.968	0.0343
440.283	0.0343
440.599	0.0348
440.914	0.0342
441.23	0.0341
441.545	0.0341
441.86	0.0345
442.175	0.0349
442.491	0.0341
442.806	0.0336
443.121	0.0331
443.435	0.0338
443.75	0.0332
444.065	0.0339
444.38	0.0337
444.694	0.0337
445.009	0.0334
445.323	0.0336
445.638	0.0335
445.952	0.0333
446.266	0.0328
446.58	0.0317
446.894	0.0328
447.208	0.0328
447.522	0.0324
447.836	0.0334
448.15	0.0321
448.464	0.032
448.777	0.0332
449.091	0.0322
449.404	0.0318
449.718	0.0319
450.031	0.0313
450.345	0.0319
450.658	0.0318
450.971	0.0316
451.284	0.0309
451.597	0.0323
451.91	0.0312
452.223	0.0318
452.535	0.0313
452.848	0.0313
453.161	0.031
453.473	0.031
453.786	0.0307
454.098	0.0308
454.411	0.0303
454.723	0.0307
455.035	0.0298
455.347	0.03
455.659	0.0304
455.971	0.0305
456.283	0.0305
456.595	0.0306
456.907	0.0305
457.218	0.0307
457.53	0.0301
457.841	0.029
458.153	0.029
458.464	0.0291
458.776	0.029
459.087	0.0292
459.398	0.0291
459.709	0.0279
460.02	0.0295
460.331	0.0288
460.642	0.0285
460.953	0.0285
461.263	0.0278
461.574	0.0275
461.885	0.028
462.195	0.0272
462.506	0.0276
462.816	0.0283
463.126	0.0271
463.437	0.0271
463.747	0.0269
464.057	0.0261
464.367	0.0256
464.677	0.0264
464.987	0.0261
465.296	0.0261
465.606	0.0259
465.916	0.0252
466.225	0.0252
466.535	0.025
466.844	0.026
467.154	0.0265
467.463	0.0249
467.772	0.025
468.081	0.0257
468.39	0.0252
468.699	0.0251
469.008	0.0246
469.317	0.0247
469.626	0.0247
469.935	0.0236
470.243	0.0246
470.552	0.024
470.86	0.024
471.169	0.0231
471.477	0.0228
471.785	0.0227
472.093	0.023
472.402	0.0225
472.71	0.0218
473.018	0.0223
473.326	0.0224
473.633	0.0219
473.941	0.0218
474.249	0.0222
474.556	0.0213
474.864	0.0217
475.171	0.0219
475.479	0.021
475.786	0.0218
476.094	0.0211
476.401	0.0212
476.708	0.0201
477.015	0.0203
477.322	0.0192
477.629	0.0197
477.936	0.0205
478.242	0.0196
478.549	0.0197
478.856	0.0193
479.162	0.0196
479.469	0.0189
479.775	0.0197
480.081	0.0181
480.388	0.0181
480.694	0.0183
481	0.0181
481.306	0.0186
481.612	0.0184
481.918	0.0195
482.224	0.0186
482.53	0.0177
482.835	0.0175
483.141	0.0182
483.446	0.0186
483.752	0.0171
484.057	0.0166
484.363	0.0161
484.668	0.0165
484.973	0.0161
485.278	0.0158
485.583	0.0153
485.888	0.0159
486.193	0.0147
486.498	0.015
486.803	0.016
487.107	0.0144
487.412	0.0137
487.717	0.0145
488.021	0.0153
488.325	0.0143
488.63	0.0146
488.934	0.015
489.238	0.0134
489.542	0.0136
489.846	0.0146
490.15	0.0147
490.454	0.0149
490.758	0.0137
491.062	0.0135
491.366	0.0131
491.669	0.0134
491.973	0.0134
492.276	0.0134
492.58	0.0125
492.883	0.0136
493.186	0.012
493.489	0.0128
493.792	0.0118
494.096	0.0122
494.399	0.0118
494.701	0.0116
495.004	0.0105
495.307	0.0115
495.61	0.0119
495.912	0.0118
496.215	0.0115
496.517	0.0118
496.82	0.0118
497.122	0.0111
497.424	0.011
497.727	0.0108
498.029	0.0104
498.331	0.0099
498.633	0.0105
498.935	0.0098
499.237	0.0109
499.538	0.0099
499.84	0.0101
500.142	0.0102
500.443	0.0091
500.745	0.0092
501.046	0.0096
501.348	0.0084
501.649	0.0083
501.95	0.0094
502.251	0.0094
502.552	0.0076
502.853	0.0091
503.154	0.0093
503.455	0.0082
503.756	0.0081
504.057	0.0077
504.357	0.009
504.658	0.0088
504.958	0.0081
505.259	0.0092
505.559	0.007
505.859	0.0073
506.16	0.0067
506.46	0.0078
506.76	0.0071
507.06	0.0065
507.36	0.0065
507.66	0.0071
507.96	0.0079
508.259	0.0069
508.559	0.0062
508.859	0.0071
509.158	0.0065
509.457	0.0055
509.757	0.006
510.056	0.006
510.355	0.0062
510.655	0.0061
510.954	0.0054
511.253	0.0063
511.552	0.0055
511.851	0.0058
512.149	0.0058
512.448	0.005
512.747	0.0055
513.045	0.005
513.344	0.0056
513.642	0.0062
513.941	0.0051
514.239	0.0058
514.537	0.0051
514.836	0.0057
515.134	0.005
515.432	0.0051
515.73	0.0052
516.028	0.0049
516.326	0.004
516.623	0.0045
516.921	0.0041
517.219	0.006
517.516	0.0043
517.814	0.0044
518.111	0.0043
518.409	0.0048
518.706	0.0048
519.003	0.0042
519.3	0.0039
519.597	0.0057
519.894	0.0043
520.191	0.0046
520.488	0.005
520.785	0.0044
521.082	0.0051
521.378	0.0045
521.675	0.0033
521.971	0.0036
522.268	0.0045
522.564	0.0041
522.861	0.0049
523.157	0.004
523.453	0.0043
523.749	0.004
524.045	0.0032
524.341	0.0041
524.637	0.0039
524.933	0.0049
525.229	0.004
525.524	0.0041
525.82	0.0039
526.115	0.0043
526.411	0.0042
526.706	0.0026
527.002	0.0039
527.297	0.0026
527.592	0.004
527.887	0.0027
528.182	0.0024
528.477	0.0041
528.772	0.0033
529.067	0.0038
529.362	0.0038
529.657	0.0027
529.951	0.0032
530.246	0.0023
530.54	0.0031
530.835	0.0022
531.129	0.0027
531.423	0.0033
531.718	0.0026
532.012	0.0028
532.306	0.0038
532.6	0.0024
532.894	0.0023
533.188	0.0023
533.482	0.0037
533.775	0.0023
534.069	0.0035
534.363	0.0022
534.656	0.0029
534.95	0.0022
535.243	0.0024
535.536	0.0024
535.83	0.0021
536.123	0.0018
536.416	0.0025
536.709	0.0023
537.002	0.0037
537.295	0.0025
537.588	0.0036
537.881	0.0023
538.173	0.0031
538.466	0.0028
538.759	0.0028
539.051	0.0027
539.344	0.0031
539.636	0.0027
539.928	0.0043
540.22	0.0034
540.513	0.0028
540.805	0.0032
541.097	0.0031
541.389	0.0028
541.681	0.0036
541.972	0.002
542.264	0.0032
542.556	0.0039
542.847	0.0027
543.139	0.0037
543.431	0.003
543.722	0.0017
544.013	0.0035
544.305	0.0026
544.596	0.0026
544.887	0.0028
545.178	0.0042
545.469	0.0036
545.76	0.0028
546.051	0.0044
546.342	0.0026
546.632	0.003
546.923	0.0024
547.214	0.0016
547.504	0.0038
547.795	0.0022
548.085	0.0027
548.375	0.0034
548.666	0.003
548.956	0.0037
549.246	0.0038
549.536	0.0035
549.826	0.0039
550.116	0.0032
550.406	0.0033
550.695	0.004
550.985	0.003
551.275	0.0033
551.564	0.0045
551.854	0.0045
552.143	0.0031
552.433	0.0034
552.722	0.0028
553.011	0.0038
553.3	0.0035
553.589	0.0036
553.879	0.0032
554.167	0.0045
554.456	0.0029
554.745	0.0034
555.034	0.0049
555.323	0.0036
555.611	0.0042
555.9	0.0035
556.188	0.003
556.477	0.002
556.765	0.0043
557.053	0.0034
557.342	0.0029
557.63	0.0028
557.918	0.0035
558.206	0.0037
558.494	0.0035
558.782	0.004
559.069	0.0048
559.357	0.004
559.645	0.0031
559.932	0.0037
560.22	0.0036
560.507	0.0019
560.795	0.0024
561.082	0.0016
561.37	0.0034
561.657	0.0011
561.944	0.0028
562.231	0.0023
562.518	0.0029
562.805	0.0029
563.092	0.0025
563.379	0.0035
563.665	0.0028
563.952	0.0041
564.239	0.0042
564.525	0.0033
564.811	0.0029
565.098	0.0038
565.384	0.0028
565.67	0.0026
565.957	0.0031
566.243	0.0035
566.529	0.0029
566.815	0.003
567.101	0.0038
567.387	0.0026
567.672	0.0027
567.958	0.002
568.244	0.0017
568.529	0.0028
568.815	0.0026
569.1	0.0017
569.386	0.0034
569.671	0.0026
569.956	0.0028
570.242	0.0025
570.527	0.0018
570.812	0.0023
571.097	0.0014
571.382	0.0014
571.666	0.0015
571.951	0.0038
572.236	0.0023
572.521	0.0026
572.805	0.0032
573.09	0.0032
573.374	0.0023
573.659	0.0024
573.943	0.0022
574.227	0.0027
574.511	0.003
574.795	0.0025
575.079	0.0027
575.363	0.0026
575.647	0.0022
575.931	0.0027
576.215	0.0031
576.499	0.0022
576.782	0.0021
577.066	0.0025
577.349	0.0025
577.633	0.0035
577.916	0.002
578.2	0.0029
578.483	0.0027
578.766	0.0037
579.049	0.0029
579.332	0.0019
579.615	0.0034
579.898	0.0023
580.181	0.0022
580.464	0.0026
580.746	0.0023
581.029	0.0027
581.312	0.0017
581.594	0.0015
581.877	0.0014
582.159	0.0028
582.441	0.0017
582.724	0.0023
583.006	0.0029
583.288	0.0032
583.57	0.0026
583.852	0.0031
584.134	0.0031
584.416	0.0016
584.697	0.0023
584.979	0.0019
585.261	0.0029
585.542	0.0024
585.824	0.0032
586.105	0.0032
586.387	0.0031
586.668	0.0034
586.949	0.0032
587.231	0.0027
587.512	0.0026
587.793	0.0016
588.074	0.0026
588.355	0.0029
588.636	0.003
588.916	0.0031
589.197	0.0021
589.478	0.0024
589.758	0.0024
590.039	0.0025
590.319	0.0016
590.6	0.0022
590.88	0.0018
591.16	0.0023
591.441	0.0032
591.721	0.0017
592.001	0.0017
592.281	0.0023
592.561	0.0027
592.841	0.003
593.12	0.0018
593.4	0.0025
593.68	0.0024
593.959	0.0022
594.239	0.0033
594.518	0.0035
594.798	0.0029
595.077	0.0024
595.356	0.0024
595.636	0.0023
595.915	0.003
596.194	0.0022
596.473	0.003
596.752	0.0024
597.031	0.0029
597.31	0.0016
597.588	0.0012
597.867	0.0015
598.146	0.0011
598.424	0.0008
598.703	0.0014
598.981	0.0019
599.259	0.0016
599.538	0.0024
599.816	0.0029
600.094	0.0024
600.372	0.0023
600.65	0.0032
600.928	0.0027
601.206	0.003
601.484	0.0029
601.762	0.0031
602.04	0.0038
602.317	0.003
602.595	0.0036
602.872	0.0035
603.15	0.0029
603.427	0.0018
603.704	0.0012
603.982	0.0013
604.259	0.0016
604.536	0.0025
604.813	0.0014
605.09	0.0024
605.367	0.0016
605.644	0.0012
605.921	0.0014
606.197	0.001
606.474	0.0027
606.751	0.002
607.027	0.002
607.304	0.0025
607.58	0.0028
607.856	0.0026
608.133	0.0032
608.409	0.0033
608.685	0.0033
608.961	0.0029
609.237	0.0034
609.513	0.0038
609.789	0.0022
610.065	0.0022
610.341	0.0013
610.616	0.0019
610.892	0.0024
611.167	0.0028
611.443	0.003
611.718	0.0025
611.994	0.0027
612.269	0.0019
612.544	0.0026
612.819	0.0022
613.095	0.0017
613.37	0.0018
613.645	0.0014
613.919	0.0025
614.194	0.0019
614.469	0.0021
614.744	0.0011
615.019	0.0016
615.293	0.0017
615.568	0.0018
615.842	0.0012
616.116	0.0012
616.391	0.0013
616.665	0.0002
616.939	0.0002
617.213	0.0011
617.488	0.0013
617.762	0.0016
618.035	0.0023
618.309	0.0017
618.583	0.0027
618.857	0.0021
619.131	0.0019
619.404	0.0021
619.678	0.0029
619.951	0.0022
620.225	0.0011
620.498	0.0016
620.771	0.001
621.045	0.0014
621.318	0.0026
621.591	0.0022
621.864	0.0018
622.137	0.0013
622.41	0.0014
622.683	0.0011
622.956	0.0002
623.228	0.0013
623.501	0.0019
623.774	0.0021
624.046	0.0016
624.319	0.0014
624.591	0.0008
624.863	0.0011
625.136	0.0018
625.408	0.0031
625.68	0.0018
625.952	0.0019
626.224	0.0033
626.496	0.0014
626.768	0.0023
627.04	0.0025
627.311	0.0021
627.583	0.0034
627.855	0.0025
628.126	0.0007
628.398	0.001
628.669	0.0009
628.941	0.0002
629.212	0.0005
629.483	0.0009
629.755	0.0006
630.026	0.0013
630.297	0.0008
630.568	0.0011
630.839	0.0017
631.11	0.0022
631.38	0.0025
631.651	0.0019
631.922	0.0015
632.192	0.0012
632.463	0.0022
632.733	0.0012
633.004	0.0017
633.274	0.0008
633.545	0.0003
633.815	0.0018
634.085	0.0011
634.355	0.0004
634.625	0.0006
634.895	0.0016
635.165	0.0019
635.435	0.0026
635.705	0.0014
635.974	0.0018
636.244	0.001
636.514	-0
636.783	0.0002
637.053	0.0011
637.322	0.0009
637.591	0.0005
637.861	0.0001
638.13	0.0001
638.399	0.0018
638.668	0.0012
638.937	0.002
639.206	0.0014
639.475	0.0023
639.744	0.0018
640.013	0.0023
640.281	0.0021
640.55	0.0016
640.819	0.0018
641.087	0.0018
641.356	0.0011
641.624	0.001
641.892	0.0014
642.161	0.0011
642.429	0.0008
642.697	0.0019
642.965	0.0011
643.233	-0.0008
643.501	0.0003
643.769	0.0003
644.037	0.0005
644.305	-0.0002
644.572	0.0009
644.84	0.0005
645.108	0.0011
645.375	0.0009
645.643	0.0016
645.91	0.002
646.177	0.0013
646.445	0.0013
646.712	0.0015
646.979	0.0012
647.246	0.0023
647.513	0.0024
647.78	0.0022
648.047	0
648.314	-0.0003
648.58	-0.0006
648.847	-0.0016
649.114	-0.0017
649.38	-0.0014
649.647	-0.0019
649.913	-0.0006
650.18	0.0009
650.446	0.001
650.712	0.0018
650.978	0.0024
651.245	0.0025
651.511	0.0026
651.777	0.003
652.043	0.0017
652.309	0.0009
652.574	0.0016
652.84	0.0024
653.106	0.002
653.371	0.0027
653.637	0.003
653.903	0.0027
654.168	0.0025
654.433	0.0015
654.699	0.0011
654.964	0.0006
655.229	-0.0003
655.494	0.0017
655.759	0.0004
656.024	0
656.289	-0
656.554	0.0007
656.819	0.0022
657.084	0.003
657.349	0.0019
657.613	0.0022
657.878	0.0008
658.142	0.0001
658.407	0.0012
658.671	0.0012
658.936	0.0016
659.2	0.0018
659.464	0.0015
659.728	0.0013
659.992	-0.0001
660.256	-0.0014
660.52	-0.0001
660.784	0.0007
661.048	0.0006
661.312	0.0008
661.575	0.0006
661.839	0.0013
662.103	0.0009
662.366	-0.0008
662.63	0.0004
662.893	0.0014
663.156	0.0015
663.42	0.002
663.683	0.0015
663.946	0.003
664.209	0.002
664.472	0.0024
664.735	0.0017
664.998	0.0023
665.261	0.0031
665.524	0.0023
665.786	0.002
666.049	0.002
666.312	0.0017
666.574	0.0017
666.837	0.0031
667.099	0.0028
667.361	0.0027
667.624	0.0025
667.886	0.0029
668.148	0.0029
668.41	0.0028
668.672	0.0023
668.934	0.0022
669.196	0.0011
669.458	0
669.72	-0.0003
669.982	-0.0001
670.243	0.0005
670.505	0.0007
670.766	0.0005
671.028	0.0012
671.289	0.0013
671.551	0.002
671.812	-0.0002
672.073	0.0015
672.334	0.0009
672.596	0.0001
672.857	0.0009
673.118	0.0022
673.379	0.0025
673.639	0.0025
673.9	0.0017
674.161	0.0012
674.422	0.0012
674.682	0.0004
674.943	-0.0004
675.203	0.0007
675.464	0.002
675.724	0.0007
675.985	0.0004
676.245	0.0006
676.505	0.0006
676.765	-0.0008
677.025	0.0012
677.285	0.0004
677.545	-0.0002
677.805	0.0004
678.065	0.0007
678.325	0.002
678.585	0.0027
678.844	0.0032
679.104	0.0034
679.363	0.0037
679.623	0.004
679.882	0.0034
680.142	0.0034
680.401	0.0041
680.66	0.0038
680.919	0.0025
681.178	0.0038
681.437	0.0035
681.696	0.0017
681.955	0.0049
682.214	0.0039
682.473	0.005
682.732	0.0013
682.99	0.0046
683.249	0.0046
683.508	0.0048
683.766	0.0038
684.024	0.0034
684.283	0.0016
684.541	0.0018
684.799	0.0009
685.058	-0.0005
685.316	-0.0005
685.574	-0.0012
685.832	0
686.09	0.0005
686.348	-0.0009
686.606	-0.0013
686.863	-0.002
687.121	-0.0017
687.379	-0.0028
687.636	-0.0029
687.894	-0.0022
688.151	-0.0018
688.409	-0.0017
688.666	-0.0007
688.923	-0.0013
689.181	-0.0004
689.438	-0.0018
689.695	-0.0003
689.952	-0.0013
690.209	-0.0009
690.466	-0.0014
690.723	-0.0002
690.979	-0.0006
691.236	-0.0012
691.493	-0.0026
691.75	-0.0012
692.006	-0.0012
692.263	-0.0012
692.519	-0.0015
692.775	-0.0022
693.032	-0.0022
693.288	-0.0024
693.544	-0.0024
693.8	-0.0009
694.056	-0.0012
694.313	-0.0017
694.568	-0.0018
694.824	-0.0009
695.08	-0.0008
695.336	-0.0005
695.592	-0.0002
695.847	0.0012
696.103	0.0022
696.359	0.0026
696.614	0.0016
696.869	0.0007
697.125	-0.0006
697.38	-0.0012
697.635	0.0002
697.891	0.0005
698.146	0.0002
698.401	0
698.656	-0.0003
698.911	0.0012
699.166	0.0006
699.42	0.0017
699.675	0.0019
699.93	0.0026
700.185	0.003
700.439	0.0013
700.694	0.0015
700.948	0.0014
701.203	0.0012
701.457	0.0013
701.711	0.0008
701.965	-0.0001
702.22	0.0003
702.474	-0
702.728	-0.0006
702.982	-0.0001
703.236	-0.0002
703.49	-0.0001
703.743	-0.0005
703.997	-0.0001
704.251	0.0003
704.504	0.0014
704.758	0.0012
705.012	0.0015
705.265	0.002
705.518	0.0015
705.772	0.002
706.025	0.0019
706.278	0.0021
706.531	0.0004
706.785	-0.0007
707.038	-0.0008
707.291	-0.0006
707.543	-0.0002
707.796	0.0003
708.049	0.0001
708.302	-0.0006
708.555	-0.0004
708.807	0.0002
709.06	0.0008
709.312	0.0013
709.565	0.0016
709.817	0.0032
710.069	0.0015
710.322	0.0022
710.574	0.0026
710.826	0.0019
711.078	0.0016
711.33	0.0012
711.582	0.0016
711.834	0.0009
712.086	0.0021
712.338	0.0013
712.59	0.0007
712.841	0.0002
713.093	0
713.344	0.001
713.596	0.0001
713.847	-0.0014
714.099	-0.001
714.35	-0.0002
714.601	-0.0017
714.853	-0.0022
715.104	-0.0013
715.355	-0.0013
715.606	0.0002
715.857	-0.0003
716.108	0.0012
716.359	0.0005
716.609	-0.0002
716.86	0.0018
717.111	0.0008
717.361	0.0003
717.612	0.0006
717.863	0.0016
718.113	0.0019
718.363	0.0016
718.614	0.0012
718.864	0.0027
719.114	0.0012
719.364	-0.0004
719.614	-0
719.865	-0.0003
720.114	0.0008
720.364	0.0013
720.614	-0.0005
720.864	-0.0003
721.114	-0.0015
721.364	-0.0012
721.613	-0.0014
721.863	-0.0005
722.112	-0.0007
722.362	-0.0006
722.611	0.0007
722.86	0.0003
723.11	0.0017
723.359	0.0015
723.608	0.0018
723.857	0.0033
724.106	0.0022
724.355	0.002
724.604	0.0012
724.853	0.0005
725.102	-0.0005
725.351	-0.0022
725.599	-0.0035
725.848	-0.0021
726.097	-0.0008
726.345	-0.0014
726.594	-0.0008
726.842	-0.0002
727.09	-0.0013
727.339	-0.0017
727.587	-0.0019
727.835	-0.0024
728.083	-0.0034
728.331	-0.0027
728.579	-0.0013
728.827	-0.0024
729.075	-0.0027
729.323	-0.0026
729.571	-0.0032
729.818	-0.0026
730.066	-0.0029
730.314	-0.0019
730.561	-0.002
730.809	-0.0033
731.056	-0.0024
731.303	-0.0032
731.551	-0.0022
731.798	-0.0028
732.045	-0.0016
732.292	-0.0023
732.539	-0.0011
732.786	-0.0027
733.033	-0.0026
733.28	-0.0019
733.527	-0.0026
733.774	-0.0021
734.021	-0.0027
734.267	-0.0023
734.514	-0.0022
734.76	-0.0026
735.007	-0.0016
735.253	-0.001
735.5	0.0006
735.746	0.0018
735.992	0.001
736.238	0.0014
736.485	0.0012
736.731	0.0021
736.977	0.0003
737.223	-0.0002
737.469	-0.0007
737.715	0
737.96	0.0005
738.206	0.0006
738.452	0.0007
738.697	-0.0003
738.943	-0.0004
739.189	-0.0008
739.434	-0.0007
739.679	0.0001
739.925	0.0019
740.17	0.0027
740.415	0.0012
740.66	0.0015
740.906	0.0015
741.151	0.0013
741.396	0
741.641	0.0001
741.886	0.0007
742.13	-0.0004
742.375	0.0014
742.62	0.0004
742.865	-0.0007
743.109	0.0001
743.354	-0.0013
743.598	-0.0018
743.843	-0.0024
744.087	-0.0031
744.331	-0.0031
744.576	-0.0027
744.82	-0.0015
745.064	-0.0014
745.308	-0.0004
745.552	-0.0018
745.796	-0.0013
746.04	-0.0012
746.284	-0.0022
746.528	-0.0012
746.771	-0.0013
747.015	-0.0016
747.259	-0.0027
747.502	-0.0026
747.746	-0.0025
747.989	-0.0008
748.233	-0.0006
748.476	-0.0008
748.719	-0
748.963	0.0001
749.206	-0
749.449	-0.0002
749.692	-0.0007
749.935	-0
750.178	-0.0007
750.421	-0.0002
750.664	-0.0002
750.906	-0.0003
751.149	-0.0004
751.392	-0.0001
751.635	-0.001
751.877	-0.0007
752.12	-0.0009
752.362	0
752.604	0.0002
752.847	-0.0009
753.089	-0.0009
753.331	-0.0011
753.573	-0.0007
753.816	-0.0002
754.058	-0.0001
754.3	-0.0006
754.542	0.0013
754.783	0.0014
755.025	0.0014
755.267	0.0012
755.509	0.0009
755.75	-0.0004
755.992	-0.0002
756.234	0.0005
756.475	0.0008
756.716	-0.0001
756.958	-0.0007
757.199	-0.0008
757.44	-0.0001
757.682	-0.0008
757.923	0.0004
758.164	0.0004
758.405	0.0003
758.646	-0.0003
758.887	-0.0008
759.128	-0.0003
759.369	-0.0018
759.609	-0.0008
759.85	-0.0009
760.091	-0.0009
760.331	0.0004
760.572	0.0003
760.812	-0.0008
761.053	-0
761.293	0.0009
761.533	0.0011
761.774	0.0012
762.014	0.0013
762.254	0.0003
762.494	0.0008
762.734	0.001
762.974	0.0013
763.214	0.0006
763.454	0.0013
763.694	0.001
763.933	0.0027
764.173	0.0036
764.413	0.0034
764.652	0.0015
764.892	0.0009
765.131	0.0002
765.371	-0.0002
765.61	-0.0007
765.849	-0.0022
766.089	-0.0022
766.328	-0.002
766.567	-0.003
766.806	-0.0034
767.045	-0.0047
767.284	-0.0026
767.523	-0.0031
767.762	-0.0036
768.001	-0.0025
768.239	-0.0018
768.478	-0.0028
768.717	-0.0032
768.955	-0.0031
769.194	-0.0026
769.432	-0.0016
769.671	-0.0014
769.909	-0.0017
770.148	-0.0019
770.386	-0.0016
770.624	-0.0013
770.862	-0.0017
771.1	-0.0016
771.338	-0.0025
771.576	-0.0014
771.814	-0.0003
772.052	-0.0009
772.29	0.0007
772.528	-0.0007
772.765	-0.0016
773.003	-0.0011
773.24	-0.0005
773.478	-0.0009
773.716	0.0014
773.953	0.001
774.19	0.0011
774.428	0.002
774.665	0.0028
774.902	0.0031
775.139	0.0017
775.376	0.0014
775.613	0.0006
775.85	0.001
776.087	0.0012
776.324	0.0001
776.561	-0.0009
776.798	-0.001
777.034	-0.0005
777.271	-0.0002
777.508	-0
777.744	0.0009
777.981	0.0008
778.217	0
778.454	-0.0011
778.69	-0.0011
778.926	-0.0006
779.162	-0.001
779.399	0.0001
779.635	-0.0006
779.871	-0.001
780.107	-0.001
780.343	-0.0013
780.579	-0.0008
780.814	-0.0012
781.05	-0.0007
781.286	-0.0011
781.522	-0.0023
781.757	-0.0022
781.993	-0.0019
782.228	-0.0025
782.464	-0.0014
782.699	-0.0002
782.934	-0.0008
783.17	-0.0009
783.405	-0
783.64	-0.0006
783.875	-0.0017
784.11	-0.0017
784.345	-0.001
784.58	-0.0009
784.815	-0.001
785.05	-0.0018
785.285	-0.0014
785.52	-0.0005
785.754	-0.001
785.989	-0.0004
786.223	0.0005
786.458	0.001
786.692	0.0024
786.927	0.003
787.161	0.0033
787.396	0.0029
787.63	0.0025
787.864	0.002
788.098	-0.0007
788.332	-0.0006
788.566	-0.0007
788.8	-0.0009
789.034	-0.0006
789.268	-0.0015
789.502	-0.0011
789.736	-0.0008
789.969	-0.0005
790.203	-0.0006
790.437	0.0002
790.67	0.0013
790.904	0.0022
791.137	0.0026
791.37	0.0021
791.604	0.0019
791.837	0.0029
792.07	0.0033
792.303	0.0037
792.537	0.004
792.77	0.0036
793.003	0.0025
793.236	0.0027
793.469	0.0023
793.701	0.0014
793.934	0.0012
794.167	0.0001
794.4	-0.0004
794.632	0.0001
794.865	-0.0011
795.097	-0.0016
795.33	-0.0014
795.562	-0.0012
795.795	-0.0017
796.027	-0.0006
796.259	0.0006
796.491	0.0003
796.724	0.0016
796.956	0.0009
797.188	0.0015
797.42	0.0009
797.652	0.0014
797.883	0.0013
798.115	0.0019
798.347	0.0022
798.579	0.0014
798.81	0.0019
799.042	0.0026
799.274	0.0033
799.505	0.0024
799.737	0.0024
799.968	0.0022
800.199	0.0014
800.431	0.0017
800.662	0.0009
800.893	0.0014
801.124	0.0022
801.355	0.0021
801.586	0.0028
801.817	0.0046
802.048	0.004
802.279	0.0036
802.51	0.0039
802.741	0.0049
802.971	0.0046
803.202	0.0026
803.433	0.0032
803.663	0.0024
803.894	0.0032
804.124	0.0022
804.354	0.0034
804.585	0.0052
804.815	0.0047
805.045	0.0058
805.275	0.0055
805.506	0.0353
805.736	-0.1568
805.966	-0.2992
806.196	-0.1584
