Data from 02 0.4 mM K2Cr2O7 0.25 M BQDS 1 M H2SO4_Absorbance_0001.txt Node
Date: Tue Dec 14 17:29:36 EST 2021
User: kwabilab-user
Spectrometer: HDX00518
Trigger mode: 0
Integration Time (sec): 5.000000E-2
Scans to average: 50
Nonlinearity correction enabled: false
Boxcar width: 0
Storing dark spectrum: false
XAxis mode: Wavelengths
Number of Pixels in Spectrum: 2068
>>>>>Begin Spectral Data<<<<<
195.27	0.1901
195.642	0.8129
196.014	0.0872
196.386	0.3457
196.758	0.0138
197.129	0.0444
197.501	0.0193
197.872	0.066
198.244	0.0697
198.615	0.1
198.986	0.0914
199.357	0.0874
199.728	0.0833
200.099	0.0748
200.47	0.1054
200.841	0.0786
201.212	0.0868
201.582	0.0866
201.953	0.0763
202.323	0.0968
202.694	0.1021
203.064	0.0785
203.434	0.0882
203.804	0.0787
204.174	0.0657
204.544	0.112
204.914	0.0755
205.284	0.0653
205.653	0.0749
206.023	0.0752
206.393	0.1104
206.762	0.0722
207.131	0.0795
207.501	0.0818
207.87	0.0934
208.239	0.08
208.608	0.098
208.977	0.076
209.346	0.0752
209.715	0.1091
210.083	0.1034
210.452	0.0852
210.82	0.1004
211.189	0.0928
211.557	0.0885
211.925	0.0767
212.294	0.0981
212.662	0.0907
213.03	0.0999
213.398	0.0725
213.766	0.1004
214.133	0.0995
214.501	0.1069
214.869	0.0952
215.236	0.1081
215.604	0.0965
215.971	0.1174
216.338	0.124
216.705	0.119
217.072	0.1434
217.439	0.108
217.806	0.1361
218.173	0.1289
218.54	0.1366
218.907	0.1462
219.273	0.1335
219.64	0.171
220.006	0.1712
220.373	0.1629
220.739	0.2053
221.105	0.2185
221.471	0.226
221.837	0.2334
222.203	0.249
222.569	0.2544
222.935	0.3035
223.3	0.3087
223.666	0.3405
224.031	0.3539
224.397	0.385
224.762	0.3894
225.127	0.4371
225.493	0.4645
225.858	0.5036
226.223	0.5168
226.588	0.5214
226.952	0.5437
227.317	0.6137
227.682	0.5822
228.046	0.5998
228.411	0.6559
228.775	0.6654
229.14	0.6532
229.504	0.6743
229.868	0.7231
230.232	0.7033
230.596	0.7312
230.96	0.7678
231.324	0.7528
231.688	0.7722
232.052	0.7702
232.415	0.7937
232.779	0.7923
233.142	0.8227
233.505	0.8128
233.869	0.8404
234.232	0.8114
234.595	0.8038
234.958	0.8176
235.321	0.8474
235.684	0.8306
236.047	0.8269
236.409	0.8073
236.772	0.8162
237.134	0.8215
237.497	0.8231
237.859	0.8257
238.222	0.8343
238.584	0.8174
238.946	0.8018
239.308	0.8087
239.67	0.8247
240.032	0.8321
240.393	0.8187
240.755	0.825
241.117	0.8288
241.478	0.8101
241.84	0.8162
242.201	0.8122
242.562	0.7949
242.924	0.7938
243.285	0.7962
243.646	0.7984
244.007	0.794
244.368	0.7979
244.728	0.7963
245.089	0.7869
245.45	0.7798
245.81	0.7733
246.171	0.7831
246.531	0.7714
246.891	0.7704
247.252	0.7686
247.612	0.7757
247.972	0.774
248.332	0.7753
248.692	0.7748
249.051	0.7668
249.411	0.7687
249.771	0.756
250.13	0.7533
250.49	0.7486
250.849	0.768
251.208	0.755
251.568	0.7556
251.927	0.7498
252.286	0.7568
252.645	0.7489
253.004	0.7532
253.363	0.7395
253.721	0.7445
254.08	0.7495
254.439	0.7394
254.797	0.7377
255.155	0.7349
255.514	0.728
255.872	0.7346
256.23	0.7355
256.588	0.7336
256.946	0.7305
257.304	0.7261
257.662	0.7281
258.02	0.7168
258.377	0.724
258.735	0.72
259.093	0.7132
259.45	0.7116
259.807	0.7171
260.165	0.7114
260.522	0.7135
260.879	0.7049
261.236	0.7035
261.593	0.6996
261.95	0.7051
262.306	0.6986
262.663	0.6997
263.02	0.6945
263.376	0.6929
263.733	0.687
264.089	0.689
264.445	0.6828
264.802	0.6824
265.158	0.6785
265.514	0.6814
265.87	0.6781
266.226	0.6739
266.581	0.6758
266.937	0.669
267.293	0.6694
267.648	0.6612
268.004	0.6637
268.359	0.6576
268.714	0.6507
269.07	0.6601
269.425	0.6525
269.78	0.6493
270.135	0.6528
270.49	0.6463
270.844	0.6463
271.199	0.6462
271.554	0.6367
271.908	0.6322
272.263	0.6366
272.617	0.6317
272.972	0.627
273.326	0.6278
273.68	0.6222
274.034	0.6237
274.388	0.6234
274.742	0.6207
275.096	0.6212
275.45	0.613
275.803	0.6127
276.157	0.6115
276.51	0.608
276.864	0.6078
277.217	0.6042
277.571	0.6035
277.924	0.598
278.277	0.5958
278.63	0.5949
278.983	0.588
279.336	0.5848
279.688	0.5844
280.041	0.5803
280.394	0.5771
280.746	0.5727
281.099	0.571
281.451	0.5681
281.803	0.5646
282.156	0.5602
282.508	0.5558
282.86	0.5551
283.212	0.5525
283.564	0.5447
283.916	0.5418
284.267	0.5407
284.619	0.5339
284.971	0.5293
285.322	0.529
285.673	0.5214
286.025	0.5205
286.376	0.5167
286.727	0.5086
287.078	0.506
287.429	0.5031
287.78	0.4955
288.131	0.495
288.482	0.4862
288.833	0.483
289.183	0.4776
289.534	0.4741
289.884	0.4708
290.235	0.4651
290.585	0.4598
290.935	0.4554
291.285	0.4514
291.635	0.4448
291.985	0.4416
292.335	0.4368
292.685	0.4303
293.035	0.427
293.384	0.4224
293.734	0.4167
294.083	0.4119
294.433	0.4096
294.782	0.4047
295.131	0.3999
295.48	0.3947
295.829	0.3911
296.179	0.3872
296.527	0.3816
296.876	0.3768
297.225	0.3718
297.574	0.3688
297.922	0.364
298.271	0.3594
298.619	0.3544
298.968	0.3519
299.316	0.3482
299.664	0.3448
300.012	0.3397
300.36	0.3352
300.708	0.3323
301.056	0.3296
301.404	0.3257
301.752	0.3222
302.099	0.3187
302.447	0.3162
302.794	0.3125
303.142	0.3088
303.489	0.3055
303.836	0.3034
304.183	0.3004
304.531	0.2978
304.878	0.2949
305.224	0.2925
305.571	0.2913
305.918	0.2879
306.265	0.285
306.611	0.2829
306.958	0.2827
307.304	0.2802
307.651	0.2778
307.997	0.2765
308.343	0.275
308.689	0.2741
309.035	0.2728
309.381	0.2699
309.727	0.2697
310.073	0.2687
310.419	0.2672
310.764	0.2673
311.11	0.2655
311.455	0.2655
311.801	0.2649
312.146	0.2637
312.491	0.2635
312.837	0.263
313.182	0.2619
313.527	0.2619
313.872	0.2623
314.216	0.2626
314.561	0.2618
314.906	0.2616
315.251	0.2629
315.595	0.2632
315.94	0.2628
316.284	0.2633
316.628	0.2634
316.972	0.2639
317.317	0.2649
317.661	0.2653
318.005	0.2665
318.348	0.2661
318.692	0.267
319.036	0.2674
319.38	0.2684
319.723	0.2694
320.067	0.2712
320.41	0.2722
320.754	0.2725
321.097	0.2731
321.44	0.2754
321.783	0.2769
322.126	0.278
322.469	0.2787
322.812	0.2804
323.155	0.2819
323.498	0.2829
323.84	0.2851
324.183	0.2865
324.525	0.2877
324.868	0.2897
325.21	0.2909
325.552	0.2921
325.894	0.2941
326.236	0.2953
326.578	0.297
326.92	0.2993
327.262	0.3002
327.604	0.3021
327.946	0.3038
328.287	0.3047
328.629	0.3069
328.97	0.3083
329.312	0.3106
329.653	0.3122
329.994	0.3143
330.335	0.3158
330.676	0.3181
331.017	0.3199
331.358	0.3217
331.699	0.3231
332.04	0.3246
332.38	0.3262
332.721	0.3284
333.061	0.3302
333.402	0.3324
333.742	0.3336
334.083	0.3343
334.423	0.3363
334.763	0.3386
335.103	0.3392
335.443	0.3412
335.783	0.3421
336.123	0.3431
336.462	0.3445
336.802	0.3465
337.141	0.3476
337.481	0.3497
337.82	0.3507
338.16	0.3515
338.499	0.3526
338.838	0.355
339.177	0.3564
339.516	0.3564
339.855	0.3587
340.194	0.3602
340.533	0.3602
340.872	0.3608
341.21	0.3633
341.549	0.3633
341.887	0.3649
342.226	0.3647
342.564	0.3662
342.902	0.3671
343.24	0.3665
343.578	0.3677
343.916	0.3668
344.254	0.368
344.592	0.368
344.93	0.368
345.268	0.3681
345.605	0.3684
345.943	0.3691
346.28	0.3689
346.618	0.3687
346.955	0.3692
347.292	0.3696
347.629	0.3685
347.966	0.3692
348.303	0.3689
348.64	0.3692
348.977	0.368
349.314	0.3686
349.65	0.3687
349.987	0.3682
350.324	0.3676
350.66	0.3686
350.996	0.3676
351.333	0.366
351.669	0.3647
352.005	0.3645
352.341	0.3629
352.677	0.362
353.013	0.3604
353.349	0.3594
353.685	0.3581
354.02	0.3572
354.356	0.356
354.691	0.3541
355.027	0.3525
355.362	0.3516
355.697	0.3494
356.033	0.3484
356.368	0.3476
356.703	0.3461
357.038	0.3453
357.373	0.3437
357.707	0.343
358.042	0.3416
358.377	0.3396
358.711	0.3392
359.046	0.3377
359.38	0.3365
359.715	0.336
360.049	0.3338
360.383	0.3319
360.717	0.3306
361.051	0.3293
361.385	0.3278
361.719	0.3262
362.053	0.3248
362.387	0.3219
362.72	0.321
363.054	0.318
363.387	0.3152
363.721	0.3134
364.054	0.3116
364.387	0.3094
364.721	0.3071
365.054	0.3049
365.387	0.3034
365.72	0.3022
366.053	0.2997
366.385	0.2971
366.718	0.2956
367.051	0.2939
367.383	0.2928
367.716	0.2913
368.048	0.2897
368.381	0.2886
368.713	0.2857
369.045	0.285
369.377	0.2833
369.709	0.2815
370.041	0.2798
370.373	0.2782
370.705	0.2768
371.037	0.2739
371.368	0.2726
371.7	0.2704
372.031	0.2679
372.363	0.2656
372.694	0.2641
373.025	0.2616
373.356	0.259
373.688	0.2567
374.019	0.2546
374.35	0.2517
374.68	0.25
375.011	0.2464
375.342	0.2446
375.673	0.2423
376.003	0.2386
376.334	0.2373
376.664	0.2353
376.995	0.233
377.325	0.2305
377.655	0.2284
377.985	0.2271
378.315	0.2253
378.645	0.2225
378.975	0.2219
379.305	0.2196
379.635	0.2183
379.964	0.2159
380.294	0.2152
380.623	0.2132
380.953	0.2112
381.282	0.2095
381.611	0.2083
381.941	0.2063
382.27	0.2045
382.599	0.2029
382.928	0.2
383.257	0.1988
383.585	0.1968
383.914	0.1944
384.243	0.1915
384.571	0.1901
384.9	0.188
385.228	0.1856
385.557	0.1837
385.885	0.1814
386.213	0.1793
386.541	0.1764
386.869	0.1753
387.197	0.1725
387.525	0.1707
387.853	0.1682
388.181	0.1666
388.508	0.1648
388.836	0.1626
389.164	0.1609
389.491	0.1587
389.818	0.1569
390.146	0.1561
390.473	0.1537
390.8	0.1529
391.127	0.1512
391.454	0.1491
391.781	0.1476
392.108	0.147
392.435	0.1444
392.761	0.1437
393.088	0.143
393.415	0.1411
393.741	0.1397
394.067	0.1391
394.394	0.1373
394.72	0.1359
395.046	0.1345
395.372	0.1325
395.698	0.1315
396.024	0.1307
396.35	0.1292
396.676	0.1279
397.001	0.1265
397.327	0.1251
397.653	0.1236
397.978	0.1224
398.303	0.1208
398.629	0.1197
398.954	0.1185
399.279	0.1173
399.604	0.1159
399.929	0.1153
400.254	0.1133
400.579	0.1127
400.904	0.1113
401.229	0.1107
401.553	0.1101
401.878	0.1094
402.202	0.1082
402.527	0.1072
402.851	0.1066
403.175	0.1049
403.5	0.1043
403.824	0.1038
404.148	0.1033
404.472	0.1021
404.796	0.102
405.119	0.1013
405.443	0.1006
405.767	0.1003
406.09	0.0999
406.414	0.0989
406.737	0.099
407.061	0.0982
407.384	0.0977
407.707	0.0971
408.03	0.0964
408.353	0.096
408.676	0.096
408.999	0.0954
409.322	0.0947
409.645	0.0949
409.968	0.0939
410.29	0.0937
410.613	0.094
410.935	0.0928
411.258	0.0933
411.58	0.0919
411.902	0.0919
412.224	0.0917
412.546	0.092
412.868	0.0924
413.19	0.0914
413.512	0.0908
413.834	0.0913
414.156	0.0911
414.477	0.0898
414.799	0.0904
415.121	0.0894
415.442	0.0895
415.763	0.0888
416.085	0.0899
416.406	0.0894
416.727	0.0898
417.048	0.0894
417.369	0.0888
417.69	0.0886
418.011	0.0887
418.331	0.0886
418.652	0.0888
418.973	0.0876
419.293	0.0887
419.614	0.0873
419.934	0.0887
420.254	0.0875
420.574	0.0869
420.895	0.0876
421.215	0.0871
421.535	0.0875
421.855	0.0864
422.174	0.0863
422.494	0.0866
422.814	0.0867
423.134	0.0866
423.453	0.087
423.773	0.0871
424.092	0.0873
424.411	0.0866
424.731	0.0869
425.05	0.087
425.369	0.0862
425.688	0.0864
426.007	0.0867
426.326	0.0867
426.644	0.0862
426.963	0.0859
427.282	0.0862
427.6	0.087
427.919	0.0865
428.237	0.0864
428.556	0.0869
428.874	0.086
429.192	0.086
429.51	0.0859
429.828	0.086
430.146	0.0859
430.464	0.0852
430.782	0.0859
431.1	0.0851
431.418	0.085
431.735	0.085
432.053	0.0852
432.37	0.0853
432.688	0.0841
433.005	0.0842
433.322	0.0854
433.639	0.0848
433.957	0.085
434.274	0.0854
434.591	0.0848
434.907	0.0846
435.224	0.084
435.541	0.0845
435.858	0.0846
436.174	0.0849
436.491	0.084
436.807	0.0835
437.124	0.0831
437.44	0.0833
437.756	0.0842
438.072	0.0832
438.388	0.0838
438.704	0.0831
439.02	0.0832
439.336	0.0828
439.652	0.0824
439.968	0.0828
440.283	0.0827
440.599	0.0831
440.914	0.0819
441.23	0.0831
441.545	0.0826
441.86	0.0823
442.175	0.0823
442.491	0.0821
442.806	0.0823
443.121	0.0806
443.435	0.0816
443.75	0.0805
444.065	0.0803
444.38	0.0809
444.694	0.0803
445.009	0.0804
445.323	0.0805
445.638	0.0805
445.952	0.0795
446.266	0.0792
446.58	0.0786
446.894	0.0792
447.208	0.0789
447.522	0.0784
447.836	0.0786
448.15	0.0784
448.464	0.0778
448.777	0.0781
449.091	0.0782
449.404	0.0771
449.718	0.0772
450.031	0.0765
450.345	0.0763
450.658	0.0762
450.971	0.0763
451.284	0.0757
451.597	0.0765
451.91	0.0757
452.223	0.0755
452.535	0.075
452.848	0.0754
453.161	0.0745
453.473	0.0739
453.786	0.0744
454.098	0.074
454.411	0.0729
454.723	0.0733
455.035	0.0727
455.347	0.0723
455.659	0.0725
455.971	0.0722
456.283	0.0726
456.595	0.0716
456.907	0.0716
457.218	0.0719
457.53	0.0712
457.841	0.0703
458.153	0.0701
458.464	0.069
458.776	0.0691
459.087	0.0692
459.398	0.0686
459.709	0.0677
460.02	0.0688
460.331	0.0682
460.642	0.0677
460.953	0.0668
461.263	0.0666
461.574	0.0665
461.885	0.066
462.195	0.065
462.506	0.0652
462.816	0.0658
463.126	0.0643
463.437	0.0637
463.747	0.0637
464.057	0.0626
464.367	0.0615
464.677	0.0625
464.987	0.0625
465.296	0.0612
465.606	0.0612
465.916	0.0605
466.225	0.0601
466.535	0.059
466.844	0.0597
467.154	0.0598
467.463	0.0588
467.772	0.0588
468.081	0.0581
468.39	0.0581
468.699	0.058
469.008	0.0571
469.317	0.0562
469.626	0.0559
469.935	0.0555
470.243	0.0555
470.552	0.0547
470.86	0.0553
471.169	0.0541
471.477	0.0533
471.785	0.0532
472.093	0.0525
472.402	0.0517
472.71	0.0514
473.018	0.0516
473.326	0.0514
473.633	0.0508
473.941	0.0494
474.249	0.0505
474.556	0.0501
474.864	0.0496
475.171	0.0495
475.479	0.0482
475.786	0.0482
476.094	0.0483
476.401	0.0475
476.708	0.047
477.015	0.0459
477.322	0.0449
477.629	0.0453
477.936	0.0459
478.242	0.0448
478.549	0.0449
478.856	0.0441
479.162	0.0436
479.469	0.0437
479.775	0.0422
480.081	0.0418
480.388	0.0416
480.694	0.0416
481	0.0404
481.306	0.0407
481.612	0.0415
481.918	0.0413
482.224	0.0401
482.53	0.0397
482.835	0.0379
483.141	0.0394
483.446	0.0385
483.752	0.0373
484.057	0.0374
484.363	0.0374
484.668	0.0377
484.973	0.0361
485.278	0.0352
485.583	0.0347
485.888	0.0364
486.193	0.035
486.498	0.0337
486.803	0.0334
487.107	0.0336
487.412	0.0321
487.717	0.0327
488.021	0.0327
488.325	0.0316
488.63	0.0322
488.934	0.0326
489.238	0.0315
489.542	0.0314
489.846	0.0314
490.15	0.0307
490.454	0.031
490.758	0.0303
491.062	0.0306
491.366	0.029
491.669	0.029
491.973	0.0288
492.276	0.0285
492.58	0.028
492.883	0.0287
493.186	0.0276
493.489	0.0279
493.792	0.0261
494.096	0.026
494.399	0.0268
494.701	0.0263
495.004	0.0252
495.307	0.0257
495.61	0.025
495.912	0.0256
496.215	0.0255
496.517	0.0254
496.82	0.0244
497.122	0.0238
497.424	0.0239
497.727	0.0232
498.029	0.0226
498.331	0.023
498.633	0.0226
498.935	0.0226
499.237	0.0234
499.538	0.0213
499.84	0.0216
500.142	0.021
500.443	0.0213
500.745	0.0205
501.046	0.0209
501.348	0.0203
501.649	0.0194
501.95	0.0202
502.251	0.0201
502.552	0.0194
502.853	0.0199
503.154	0.0197
503.455	0.0185
503.756	0.0198
504.057	0.0183
504.357	0.0182
504.658	0.0181
504.958	0.018
505.259	0.0187
505.559	0.0178
505.859	0.017
506.16	0.0163
506.46	0.0174
506.76	0.0169
507.06	0.0158
507.36	0.0153
507.66	0.016
507.96	0.0172
508.259	0.0162
508.559	0.0155
508.859	0.0156
509.158	0.0164
509.457	0.0142
509.757	0.0147
510.056	0.0149
510.355	0.0147
510.655	0.0144
510.954	0.0139
511.253	0.0138
511.552	0.0145
511.851	0.0141
512.149	0.0132
512.448	0.0128
512.747	0.0138
513.045	0.0129
513.344	0.0128
513.642	0.0132
513.941	0.0136
514.239	0.0133
514.537	0.0126
514.836	0.0126
515.134	0.0122
515.432	0.0119
515.73	0.0124
516.028	0.0123
516.326	0.011
516.623	0.0098
516.921	0.011
517.219	0.0119
517.516	0.0099
517.814	0.0109
518.111	0.0107
518.409	0.0109
518.706	0.0114
519.003	0.0094
519.3	0.0105
519.597	0.0115
519.894	0.0102
520.191	0.0111
520.488	0.0109
520.785	0.0099
521.082	0.011
521.378	0.0103
521.675	0.0091
521.971	0.0089
522.268	0.0096
522.564	0.0103
522.861	0.0111
523.157	0.0099
523.453	0.0102
523.749	0.0091
524.045	0.009
524.341	0.0104
524.637	0.0085
524.933	0.0095
525.229	0.0095
525.524	0.0088
525.82	0.0087
526.115	0.0095
526.411	0.0081
526.706	0.0083
527.002	0.0081
527.297	0.0072
527.592	0.0091
527.887	0.0071
528.182	0.0069
528.477	0.0088
528.772	0.0078
529.067	0.008
529.362	0.009
529.657	0.007
529.951	0.0073
530.246	0.0057
530.54	0.0069
530.835	0.0066
531.129	0.0072
531.423	0.0069
531.718	0.0071
532.012	0.0064
532.306	0.0073
532.6	0.006
532.894	0.0074
533.188	0.0066
533.482	0.0067
533.775	0.007
534.069	0.0071
534.363	0.0068
534.656	0.0069
534.95	0.0066
535.243	0.0053
535.536	0.0059
535.83	0.0061
536.123	0.0055
536.416	0.0056
536.709	0.0064
537.002	0.0069
537.295	0.0071
537.588	0.0063
537.881	0.0061
538.173	0.0069
538.466	0.0069
538.759	0.0071
539.051	0.0072
539.344	0.0071
539.636	0.0058
539.928	0.0077
540.22	0.0051
540.513	0.0059
540.805	0.0054
541.097	0.006
541.389	0.0062
541.681	0.0059
541.972	0.004
542.264	0.0052
542.556	0.0066
542.847	0.0045
543.139	0.0054
543.431	0.0047
543.722	0.0048
544.013	0.0057
544.305	0.0049
544.596	0.0057
544.887	0.0056
545.178	0.007
545.469	0.0058
545.76	0.0062
546.051	0.0054
546.342	0.0051
546.632	0.0057
546.923	0.006
547.214	0.005
547.504	0.0058
547.795	0.0048
548.085	0.0053
548.375	0.0055
548.666	0.0056
548.956	0.0052
549.246	0.0061
549.536	0.0055
549.826	0.0061
550.116	0.0059
550.406	0.0057
550.695	0.0058
550.985	0.0058
551.275	0.0055
551.564	0.0071
551.854	0.0067
552.143	0.0058
552.433	0.006
552.722	0.006
553.011	0.0058
553.3	0.006
553.589	0.006
553.879	0.0054
554.167	0.0054
554.456	0.0055
554.745	0.0058
555.034	0.0072
555.323	0.006
555.611	0.007
555.9	0.0063
556.188	0.0044
556.477	0.0049
556.765	0.0052
557.053	0.0058
557.342	0.0053
557.63	0.0054
557.918	0.0064
558.206	0.0056
558.494	0.0055
558.782	0.0058
559.069	0.0061
559.357	0.0055
559.645	0.0064
559.932	0.0065
560.22	0.0055
560.507	0.0036
560.795	0.0042
561.082	0.0036
561.37	0.005
561.657	0.004
561.944	0.0052
562.231	0.0044
562.518	0.0054
562.805	0.0057
563.092	0.0052
563.379	0.0058
563.665	0.005
563.952	0.0059
564.239	0.0056
564.525	0.0056
564.811	0.005
565.098	0.0055
565.384	0.0051
565.67	0.0047
565.957	0.005
566.243	0.0054
566.529	0.0043
566.815	0.0051
567.101	0.0046
567.387	0.0046
567.672	0.005
567.958	0.0045
568.244	0.0036
568.529	0.0048
568.815	0.0043
569.1	0.0035
569.386	0.0047
569.671	0.0046
569.956	0.0044
570.242	0.0043
570.527	0.0033
570.812	0.0033
571.097	0.0038
571.382	0.0038
571.666	0.0033
571.951	0.005
572.236	0.0044
572.521	0.004
572.805	0.0052
573.09	0.0055
573.374	0.0044
573.659	0.0048
573.943	0.0044
574.227	0.005
574.511	0.0052
574.795	0.0052
575.079	0.0049
575.363	0.0046
575.647	0.0031
575.931	0.0043
576.215	0.0048
576.499	0.0039
576.782	0.0034
577.066	0.0037
577.349	0.0039
577.633	0.0049
577.916	0.0049
578.2	0.0046
578.483	0.0047
578.766	0.0047
579.049	0.0042
579.332	0.0046
579.615	0.0048
579.898	0.0041
580.181	0.0033
580.464	0.004
580.746	0.0046
581.029	0.0046
581.312	0.0047
581.594	0.0053
581.877	0.0035
582.159	0.0037
582.441	0.0038
582.724	0.0034
583.006	0.0044
583.288	0.0042
583.57	0.0032
583.852	0.0041
584.134	0.0054
584.416	0.0048
584.697	0.0049
584.979	0.005
585.261	0.0049
585.542	0.0039
585.824	0.0048
586.105	0.0044
586.387	0.0038
586.668	0.0045
586.949	0.0046
587.231	0.0053
587.512	0.0044
587.793	0.0037
588.074	0.0038
588.355	0.004
588.636	0.0043
588.916	0.0047
589.197	0.0022
589.478	0.0039
589.758	0.004
590.039	0.0036
590.319	0.003
590.6	0.0036
590.88	0.0041
591.16	0.0028
591.441	0.0037
591.721	0.0036
592.001	0.0034
592.281	0.0041
592.561	0.0045
592.841	0.005
593.12	0.0042
593.4	0.0039
593.68	0.004
593.959	0.0034
594.239	0.0036
594.518	0.0044
594.798	0.0048
595.077	0.0056
595.356	0.0043
595.636	0.0038
595.915	0.0033
596.194	0.0036
596.473	0.0033
596.752	0.0045
597.031	0.0037
597.31	0.0052
597.588	0.0033
597.867	0.0033
598.146	0.003
598.424	0.0025
598.703	0.0037
598.981	0.0042
599.259	0.0024
599.538	0.003
599.816	0.0044
600.094	0.0037
600.372	0.0037
600.65	0.0034
600.928	0.0036
601.206	0.004
601.484	0.0033
601.762	0.0037
602.04	0.0044
602.317	0.0033
602.595	0.0042
602.872	0.0041
603.15	0.0049
603.427	0.0043
603.704	0.0035
603.982	0.0034
604.259	0.0031
604.536	0.0039
604.813	0.0026
605.09	0.003
605.367	0.0035
605.644	0.0025
605.921	0.0028
606.197	0.003
606.474	0.003
606.751	0.0036
607.027	0.0034
607.304	0.0039
607.58	0.0038
607.856	0.0041
608.133	0.0046
608.409	0.0042
608.685	0.0049
608.961	0.0036
609.237	0.0047
609.513	0.0049
609.789	0.0039
610.065	0.004
610.341	0.0026
610.616	0.0018
610.892	0.0021
611.167	0.0034
611.443	0.0038
611.718	0.0034
611.994	0.0031
612.269	0.0021
612.544	0.0031
612.819	0.0036
613.095	0.0027
613.37	0.0038
613.645	0.0033
613.919	0.0041
614.194	0.0033
614.469	0.0039
614.744	0.0039
615.019	0.0031
615.293	0.0026
615.568	0.003
615.842	0.003
616.116	0.0018
616.391	0.0022
616.665	0.0026
616.939	0.0016
617.213	0.0023
617.488	0.0027
617.762	0.0029
618.035	0.0045
618.309	0.003
618.583	0.0024
618.857	0.0027
619.131	0.0038
619.404	0.0024
619.678	0.0032
619.951	0.0042
620.225	0.0023
620.498	0.0016
620.771	0.0021
621.045	0.0021
621.318	0.0029
621.591	0.0036
621.864	0.003
622.137	0.0027
622.41	0.0027
622.683	0.0019
622.956	0.0019
623.228	0.0038
623.501	0.0025
623.774	0.0034
624.046	0.0027
624.319	0.0032
624.591	0.003
624.863	0.0033
625.136	0.0031
625.408	0.0045
625.68	0.0038
625.952	0.0039
626.224	0.0036
626.496	0.0027
626.768	0.0034
627.04	0.0034
627.311	0.0024
627.583	0.0026
627.855	0.0022
628.126	0.0018
628.398	0.0018
628.669	0.0019
628.941	0.0009
629.212	0.0014
629.483	0.0024
629.755	0.0009
630.026	0.0014
630.297	0.0013
630.568	0.0015
630.839	0.0014
631.11	0.0016
631.38	0.0014
631.651	0.0014
631.922	0.0024
632.192	0.0016
632.463	0.0013
632.733	0.0013
633.004	0.0023
633.274	0.0018
633.545	0.0018
633.815	0.0028
634.085	0.0023
634.355	0.0019
634.625	0.003
634.895	0.0027
635.165	0.0022
635.435	0.0045
635.705	0.0027
635.974	0.0027
636.244	0.0013
636.514	0.0014
636.783	0.0012
637.053	0.002
637.322	0.0009
637.591	0.002
637.861	0.0008
638.13	0.0007
638.399	0.0023
638.668	0.0014
638.937	0.0011
639.206	0.0015
639.475	0.002
639.744	0.0019
640.013	0.0018
640.281	0.0022
640.55	0.0024
640.819	0.0018
641.087	0.0013
641.356	0.0016
641.624	0.0019
641.892	0.0031
642.161	0.0015
642.429	0.0012
642.697	0.002
642.965	0.0009
643.233	0.0006
643.501	0.0013
643.769	0.0011
644.037	0.002
644.305	0.0005
644.572	0.0009
644.84	0.0007
645.108	0.0027
645.375	0.0024
645.643	0.0026
645.91	0.0021
646.177	0.0016
646.445	0.0021
646.712	0.0019
646.979	0.0017
647.246	0.0032
647.513	0.0022
647.78	0.0031
648.047	0.0017
648.314	0.0021
648.58	0.0013
648.847	0.0004
649.114	-0.0001
649.38	0.0008
649.647	0.0009
649.913	0.0012
650.18	0.002
650.446	0.0036
650.712	0.0033
650.978	0.0047
651.245	0.0041
651.511	0.0042
651.777	0.004
652.043	0.0036
652.309	0.0031
652.574	0.0029
652.84	0.0026
653.106	0.0041
653.371	0.0038
653.637	0.0048
653.903	0.0035
654.168	0.0032
654.433	0.0031
654.699	0.0021
654.964	0.0008
655.229	0.0026
655.494	0.0029
655.759	0.0049
656.024	0.0004
656.289	-0
656.554	-0.0023
656.819	0.0005
657.084	0.003
657.349	0.0032
657.613	0.0029
657.878	0.0019
658.142	0.0022
658.407	0.0011
658.671	0.001
658.936	0.0021
659.2	0.0025
659.464	0.0016
659.728	0.0015
659.992	-0.0002
660.256	-0.0013
660.52	0.0003
660.784	0.0006
661.048	0.0009
661.312	0.0005
661.575	-0.0004
661.839	0.0014
662.103	0.0003
662.366	0.0009
662.63	0.0017
662.893	0.0017
663.156	0.0013
663.42	0.0031
663.683	0.0009
663.946	0.0025
664.209	0.0036
664.472	0.0027
664.735	0.0032
664.998	0.0033
665.261	0.0048
665.524	0.0044
665.786	0.0035
666.049	0.0033
666.312	0.0027
666.574	0.003
666.837	0.0042
667.099	0.0033
667.361	0.0042
667.624	0.0039
667.886	0.0033
668.148	0.0033
668.41	0.0029
668.672	0.0027
668.934	0.0026
669.196	0.0026
669.458	0.0019
669.72	0.0014
669.982	0.0001
670.243	0.0008
670.505	0.001
670.766	0.0007
671.028	0.0012
671.289	0.0015
671.551	0.003
671.812	0.0015
672.073	0.0008
672.334	0.0016
672.596	0.0017
672.857	0.0015
673.118	0.0031
673.379	0.0032
673.639	0.0028
673.9	0.0038
674.161	0.0027
674.422	0.0018
674.682	0.0019
674.943	0.0016
675.203	0.0019
675.464	0.0033
675.724	0.0031
675.985	0.0025
676.245	0.0018
676.505	0.0017
676.765	0.0016
677.025	0.0016
677.285	0.0008
677.545	0.0007
677.805	0.0027
678.065	0.0029
678.325	0.002
678.585	0.0035
678.844	0.004
679.104	0.0041
679.363	0.0042
679.623	0.0039
679.882	0.004
680.142	0.0032
680.401	0.0048
680.66	0.0048
680.919	0.0032
681.178	0.0034
681.437	0.0034
681.696	0.0029
681.955	0.005
682.214	0.0056
682.473	0.0043
682.732	0.0024
682.99	0.0043
683.249	0.0037
683.508	0.0043
683.766	0.0042
684.024	0.0036
684.283	0.0023
684.541	0.0023
684.799	0.0013
685.058	0.0003
685.316	0.0008
685.574	0.0008
685.832	0.0007
686.09	0.0004
686.348	0
686.606	-0
686.863	-0.0013
687.121	-0.001
687.379	-0.0015
687.636	-0.0019
687.894	-0.0029
688.151	-0.0017
688.409	-0.0015
688.666	-0.0003
688.923	-0.0003
689.181	-0.0002
689.438	-0.0008
689.695	0.0012
689.952	-0.0005
690.209	-0.001
690.466	-0.0016
690.723	-0.0011
690.979	-0.0015
691.236	-0.0012
691.493	-0.0018
691.75	-0.0016
692.006	-0.0012
692.263	-0.0001
692.519	0.0001
692.775	-0.0016
693.032	-0.0017
693.288	-0.0014
693.544	-0.0005
693.8	-0.0001
694.056	-0.0011
694.313	-0.001
694.568	-0.0009
694.824	-0.0002
695.08	-0.0001
695.336	0.0006
695.592	0.0002
695.847	-0
696.103	0.0034
696.359	0.0039
696.614	0.0027
696.869	0.0025
697.125	0.002
697.38	0
697.635	0.0003
697.891	0.0009
698.146	0.0004
698.401	0.0008
698.656	0.0005
698.911	0.0002
699.166	0.0007
699.42	0.0014
699.675	0.002
699.93	0.0029
700.185	0.0034
700.439	0.0015
700.694	0.002
700.948	0.0022
701.203	0.0022
701.457	-0.0004
701.711	0.0009
701.965	0.0012
702.22	0.0008
702.474	0.0006
702.728	0.0008
702.982	0.0007
703.236	-0.0011
703.49	0.0004
703.743	-0.0003
703.997	-0.0003
704.251	0.0006
704.504	0.0024
704.758	0.001
705.012	0.0017
705.265	0.0016
705.518	0.0015
705.772	0.0013
706.025	0.0013
706.278	0.001
706.531	0.0014
706.785	0.0006
707.038	-0.0002
707.291	-0.0006
707.543	0.0009
707.796	-0.0001
708.049	0.0011
708.302	0.0006
708.555	0.0005
708.807	0.0014
709.06	0.002
709.312	0.0025
709.565	0.0022
709.817	0.0035
710.069	0.0032
710.322	0.0043
710.574	0.0047
710.826	0.0042
711.078	0.0036
711.33	0.0028
711.582	0.0036
711.834	0.0025
712.086	0.0023
712.338	0.0034
712.59	0.0019
712.841	0.0014
713.093	-0
713.344	0.0024
713.596	0.0007
713.847	-0.0008
714.099	-0.001
714.35	-0.0002
714.601	-0.0011
714.853	-0.0024
715.104	-0.001
715.355	-0.0004
715.606	-0.0004
715.857	-0.0004
716.108	0.0003
716.359	0.0014
716.609	-0
716.86	0.0015
717.111	0.0015
717.361	0.0007
717.612	0.0012
717.863	0.0025
718.113	0.0022
718.363	0.0035
718.614	0.0021
718.864	0.0029
719.114	0.0022
719.364	0.0011
719.614	0.0004
719.865	0.0005
720.114	0.0009
720.364	0.0013
720.614	0.0007
720.864	0.0005
721.114	-0.0003
721.364	-0.0009
721.613	-0.0011
721.863	-0.0007
722.112	0.0002
722.362	0.0009
722.611	0.0007
722.86	0.001
723.11	0.0022
723.359	0.0021
723.608	0.0022
723.857	0.0031
724.106	0.0029
724.355	0.0032
724.604	0.0023
724.853	0.0013
725.102	0.0009
725.351	0.0001
725.599	-0.0013
725.848	-0.0008
726.097	0.0008
726.345	0.0001
726.594	-0.0007
726.842	-0
727.09	-0.0001
727.339	-0.0001
727.587	-0.0007
727.835	-0.002
728.083	-0.0023
728.331	-0.0017
728.579	-0.0006
728.827	-0.0016
729.075	-0.0015
729.323	-0.0011
729.571	-0.0014
729.818	-0.0014
730.066	-0.001
730.314	-0.0006
730.561	-0.001
730.809	-0.0014
731.056	-0.0013
731.303	-0.0025
731.551	-0.0018
731.798	-0.0016
732.045	-0.0009
732.292	-0.0024
732.539	-0.001
732.786	-0.0014
733.033	-0.0018
733.28	-0.0017
733.527	-0.0019
733.774	-0.0007
734.021	-0.001
734.267	-0.0002
734.514	0.0003
734.76	-0.001
735.007	-0.0009
735.253	0.0006
735.5	0.0021
735.746	0.0033
735.992	0.0022
736.238	0.0023
736.485	0.0024
736.731	0.0025
736.977	0.0026
737.223	0.0012
737.469	0.0012
737.715	0.0012
737.96	0.0023
738.206	0.0019
738.452	0.0016
738.697	0.0019
738.943	0.0001
739.189	0.0019
739.434	0.001
739.679	0.001
739.925	0.0025
740.17	0.0037
740.415	0.0026
740.66	0.0023
740.906	0.0016
741.151	0.0021
741.396	0.0012
741.641	0.0002
741.886	0.0016
742.13	0.0018
742.375	0.0029
742.62	0.0023
742.865	0.002
743.109	0.002
743.354	0.0007
743.598	0
743.843	-0.001
744.087	-0.0016
744.331	-0.0024
744.576	-0.0009
744.82	-0.0005
745.064	-0.001
745.308	-0.0007
745.552	-0.0001
745.796	-0.0006
746.04	0.0001
746.284	-0
746.528	-0.0003
746.771	-0.001
747.015	0.0004
747.259	-0.001
747.502	-0.0009
747.746	-0.0008
747.989	-0.0013
748.233	-0.0003
748.476	-0.0005
748.719	-0.0006
748.963	-0.0006
749.206	-0.0009
749.449	0.0009
749.692	0.0002
749.935	0.0002
750.178	0.0002
750.421	-0.0005
750.664	-0.0002
750.906	-0.0005
751.149	-0.001
751.392	0
751.635	0
751.877	-0.0003
752.12	-0.0006
752.362	0
752.604	0.0002
752.847	0.0004
753.089	-0
753.331	0
753.573	0.0006
753.816	0.0009
754.058	0.0006
754.3	0.0005
754.542	0.0021
754.783	0.0019
755.025	0.0027
755.267	0.0022
755.509	0.0019
755.75	0.0002
755.992	0.0007
756.234	0.0008
756.475	0.0005
756.716	0.0007
756.958	0.0003
757.199	-0.001
757.44	0.0002
757.682	0.0006
757.923	0.0002
758.164	0.0001
758.405	-0.0005
758.646	-0.0001
758.887	-0.0008
759.128	-0.0001
759.369	-0.0006
759.609	0.0002
759.85	0.0006
760.091	0.0009
760.331	0.0018
760.572	0.0023
760.812	0.0009
761.053	0.001
761.293	0.002
761.533	0.0026
761.774	0.0015
762.014	0.0024
762.254	0.0021
762.494	0.0019
762.734	0.0023
762.974	0.0026
763.214	0.0019
763.454	0.0027
763.694	0.0027
763.933	0.0031
764.173	0.0041
764.413	0.0045
764.652	0.0026
764.892	0.0019
765.131	0.0011
765.371	0.0002
765.61	-0.0008
765.849	-0.0012
766.089	-0.0025
766.328	-0.0012
766.567	-0.0026
766.806	-0.0031
767.045	-0.0035
767.284	-0.0023
767.523	-0.003
767.762	-0.0028
768.001	-0.0018
768.239	-0.0013
768.478	-0.0025
768.717	-0.0023
768.955	-0.0024
769.194	-0.0027
769.432	-0.0027
769.671	-0.002
769.909	-0.0007
770.148	-0.0015
770.386	-0.0008
770.624	-0.001
770.862	-0.0015
771.1	-0.0027
771.338	-0.0019
771.576	-0.0006
771.814	-0
772.052	0.0003
772.29	0.0004
772.528	0
772.765	-0.0006
773.003	-0.0008
773.24	0.0003
773.478	-0.0006
773.716	0.0014
773.953	0.0016
774.19	0.0007
774.428	0.0019
774.665	0.003
774.902	0.0032
775.139	0.0027
775.376	0.0011
775.613	0.0014
775.85	0.0006
776.087	0.0012
776.324	-0.0003
776.561	-0.0016
776.798	-0.0012
777.034	-0.0018
777.271	-0.0009
777.508	-0.0001
777.744	0.0006
777.981	0.0006
778.217	-0.0011
778.454	-0.0024
778.69	-0.0012
778.926	-0.0011
779.162	-0.0005
779.399	0.0003
779.635	-0.0005
779.871	-0.0006
780.107	-0.0003
780.343	-0.002
780.579	-0.0013
780.814	0
781.05	-0.0001
781.286	-0.0009
781.522	-0.0018
781.757	-0.0023
781.993	-0.0019
782.228	-0.002
782.464	-0.0008
782.699	0.0003
782.934	-0.0003
783.17	0
783.405	0.0012
783.64	0.0005
783.875	-0.0006
784.11	-0.0005
784.345	-0.0004
784.58	0.0003
784.815	-0.0005
785.05	-0.0007
785.285	-0.0004
785.52	0.0004
785.754	-0.0012
785.989	0
786.223	0.001
786.458	0.0014
786.692	0.0025
786.927	0.003
787.161	0.0028
787.396	0.003
787.63	0.0024
787.864	0.0013
788.098	0.0003
788.332	0.0004
788.566	-0.0006
788.8	0.0006
789.034	0.0003
789.268	0.0002
789.502	0.0001
789.736	-0.0002
789.969	-0.0004
790.203	-0.001
790.437	-0.0006
790.67	-0.0001
790.904	0
791.137	0.0003
791.37	0.0006
791.604	0.0005
791.837	0.0013
792.07	0.0019
792.303	0.0029
792.537	0.0038
792.77	0.0036
793.003	0.0036
793.236	0.004
793.469	0.003
793.701	0.0028
793.934	0.0024
794.167	0.0028
794.4	0.0016
794.632	0.0009
794.865	-0.0003
795.097	-0.0002
795.33	0.0013
795.562	0.0002
795.795	0.0003
796.027	0.0008
796.259	0.0026
796.491	0.0028
796.724	0.003
796.956	0.0031
797.188	0.0027
797.42	0.0024
797.652	0.0025
797.883	0.0029
798.115	0.0031
798.347	0.0019
798.579	0.0023
798.81	0.0017
799.042	0.0022
799.274	0.0028
799.505	0.0021
799.737	0.0027
799.968	0.0025
800.199	0.0031
800.431	0.0038
800.662	0.0024
800.893	0.0034
801.124	0.0028
801.355	0.0022
801.586	0.003
801.817	0.0041
802.048	0.0034
802.279	0.0028
802.51	0.0032
802.741	0.0047
802.971	0.0037
803.202	0.0027
803.433	0.0037
803.663	0.0031
803.894	0.0022
804.124	0.0032
804.354	0.0044
804.585	0.0056
804.815	0.0056
805.045	0.0061
805.275	0.0053
805.506	-0.0183
805.736	0.027
805.966	0.0114
806.196	0.1107
