Data from 03 0.4 mM K2Cr2O7 0.25 M BQDS 1 M H2SO4 5 min_Absorbance_0077.txt Node
Date: Tue Dec 14 23:55:12 EST 2021
User: kwabilab-user
Spectrometer: HDX00518
Trigger mode: 0
Integration Time (sec): 5.000000E-2
Scans to average: 50
Nonlinearity correction enabled: false
Boxcar width: 0
Storing dark spectrum: false
XAxis mode: Wavelengths
Number of Pixels in Spectrum: 2068
>>>>>Begin Spectral Data<<<<<
195.27	-0.112
195.642	-0.1144
196.014	-0.284
196.386	-0.2126
196.758	-0.0884
197.129	-0.011
197.501	-0.0358
197.872	0.0153
198.244	0.0115
198.615	0.0404
198.986	0.0135
199.357	0.0186
199.728	0.0575
200.099	0.0146
200.47	0.0174
200.841	0.0155
201.212	0.0044
201.582	0.0182
201.953	0.0255
202.323	0.0321
202.694	0.026
203.064	0.007
203.434	0.0063
203.804	0.0233
204.174	-0.0012
204.544	0.0206
204.914	0.0175
205.284	0.0226
205.653	0.0188
206.023	0.0264
206.393	0.0346
206.762	0.0297
207.131	0.0288
207.501	0.0309
207.87	0.0268
208.239	0.0241
208.608	0.0226
208.977	0.0184
209.346	0.016
209.715	0.0436
210.083	0.0186
210.452	0.0213
210.82	0.0198
211.189	0.0065
211.557	0.0223
211.925	0.0161
212.294	0.035
212.662	0.0421
213.03	0.0261
213.398	0.017
213.766	0.0171
214.133	0.0264
214.501	0.0254
214.869	0.0268
215.236	0.0176
215.604	0.0288
215.971	0.0569
216.338	0.0445
216.705	0.0203
217.072	0.0338
217.439	0.0497
217.806	0.0296
218.173	0.0443
218.54	0.0565
218.907	0.0655
219.273	0.0685
219.64	0.0812
220.006	0.1064
220.373	0.0739
220.739	0.1142
221.105	0.1435
221.471	0.1463
221.837	0.1525
222.203	0.1775
222.569	0.1909
222.935	0.2179
223.3	0.2417
223.666	0.2563
224.031	0.2734
224.397	0.2971
224.762	0.3191
225.127	0.3509
225.493	0.3647
225.858	0.3925
226.223	0.424
226.588	0.4366
226.952	0.4311
227.317	0.4856
227.682	0.4839
228.046	0.49
228.411	0.552
228.775	0.5312
229.14	0.5472
229.504	0.566
229.868	0.5698
230.232	0.5814
230.596	0.5963
230.96	0.5975
231.324	0.5933
231.688	0.6158
232.052	0.6102
232.415	0.6152
232.779	0.6292
233.142	0.6348
233.505	0.6416
233.869	0.6423
234.232	0.6337
234.595	0.6263
234.958	0.6412
235.321	0.6414
235.684	0.6291
236.047	0.6205
236.409	0.6276
236.772	0.6221
237.134	0.626
237.497	0.6274
237.859	0.6333
238.222	0.6211
238.584	0.6177
238.946	0.6089
239.308	0.6151
239.67	0.6142
240.032	0.6152
240.393	0.608
240.755	0.6063
241.117	0.5982
241.478	0.6073
241.84	0.5953
242.201	0.5975
242.562	0.5873
242.924	0.5892
243.285	0.5813
243.646	0.5894
244.007	0.5794
244.368	0.5797
244.728	0.5771
245.089	0.5774
245.45	0.5739
245.81	0.5668
246.171	0.5683
246.531	0.5597
246.891	0.5593
247.252	0.5632
247.612	0.572
247.972	0.5677
248.332	0.5618
248.692	0.5649
249.051	0.5601
249.411	0.5571
249.771	0.5496
250.13	0.5541
250.49	0.5466
250.849	0.5555
251.208	0.5512
251.568	0.5607
251.927	0.5507
252.286	0.5556
252.645	0.5523
253.004	0.5536
253.363	0.552
253.721	0.5532
254.08	0.5583
254.439	0.5493
254.797	0.543
255.155	0.5508
255.514	0.5491
255.872	0.5447
256.23	0.5423
256.588	0.5484
256.946	0.5493
257.304	0.549
257.662	0.545
258.02	0.5487
258.377	0.5436
258.735	0.5391
259.093	0.5414
259.45	0.5412
259.807	0.5403
260.165	0.5432
260.522	0.5327
260.879	0.5307
261.236	0.5357
261.593	0.5283
261.95	0.5295
262.306	0.534
262.663	0.532
263.02	0.531
263.376	0.5305
263.733	0.5227
264.089	0.5247
264.445	0.5205
264.802	0.5181
265.158	0.5175
265.514	0.5185
265.87	0.5161
266.226	0.5158
266.581	0.5124
266.937	0.5119
267.293	0.5078
267.648	0.5053
268.004	0.5038
268.359	0.5036
268.714	0.4968
269.07	0.498
269.425	0.4916
269.78	0.4892
270.135	0.4894
270.49	0.4839
270.844	0.4888
271.199	0.4814
271.554	0.4771
271.908	0.472
272.263	0.4708
272.617	0.4727
272.972	0.4674
273.326	0.4638
273.68	0.4579
274.034	0.456
274.388	0.4591
274.742	0.4557
275.096	0.4507
275.45	0.4456
275.803	0.4428
276.157	0.4364
276.51	0.4334
276.864	0.4315
277.217	0.4324
277.571	0.425
277.924	0.4203
278.277	0.4192
278.63	0.4115
278.983	0.4102
279.336	0.4065
279.688	0.4034
280.041	0.4002
280.394	0.3917
280.746	0.3884
281.099	0.3856
281.451	0.3827
281.803	0.3793
282.156	0.3754
282.508	0.3699
282.86	0.3695
283.212	0.365
283.564	0.3592
283.916	0.3548
284.267	0.3503
284.619	0.3498
284.971	0.3457
285.322	0.3447
285.673	0.3386
286.025	0.333
286.376	0.3315
286.727	0.3269
287.078	0.3225
287.429	0.3216
287.78	0.3167
288.131	0.3119
288.482	0.3083
288.833	0.3036
289.183	0.3014
289.534	0.2988
289.884	0.2949
290.235	0.2907
290.585	0.2874
290.935	0.2833
291.285	0.2802
291.635	0.2772
291.985	0.2734
292.335	0.27
292.685	0.2676
293.035	0.262
293.384	0.259
293.734	0.255
294.083	0.2527
294.433	0.2498
294.782	0.248
295.131	0.243
295.48	0.2399
295.829	0.2374
296.179	0.2336
296.527	0.2299
296.876	0.2274
297.225	0.2233
297.574	0.2202
297.922	0.218
298.271	0.2152
298.619	0.2106
298.968	0.2089
299.316	0.2068
299.664	0.2048
300.012	0.1995
300.36	0.1978
300.708	0.1958
301.056	0.1925
301.404	0.1909
301.752	0.1872
302.099	0.1849
302.447	0.1828
302.794	0.1804
303.142	0.1767
303.489	0.1763
303.836	0.1743
304.183	0.1729
304.531	0.1692
304.878	0.168
305.224	0.1669
305.571	0.1647
305.918	0.1629
306.265	0.1598
306.611	0.1592
306.958	0.1581
307.304	0.1565
307.651	0.1556
307.997	0.1539
308.343	0.1527
308.689	0.1506
309.035	0.1506
309.381	0.1482
309.727	0.148
310.073	0.148
310.419	0.1465
310.764	0.1465
311.11	0.1446
311.455	0.1434
311.801	0.1438
312.146	0.1422
312.491	0.1426
312.837	0.1417
313.182	0.141
313.527	0.1404
313.872	0.1412
314.216	0.1408
314.561	0.1401
314.906	0.1399
315.251	0.1406
315.595	0.1403
315.94	0.1395
316.284	0.1392
316.628	0.1398
316.972	0.1405
317.317	0.1399
317.661	0.1409
318.005	0.1403
318.348	0.1413
318.692	0.1419
319.036	0.142
319.38	0.1424
319.723	0.1415
320.067	0.143
320.41	0.1436
320.754	0.1442
321.097	0.1434
321.44	0.1456
321.783	0.1462
322.126	0.1469
322.469	0.1473
322.812	0.1486
323.155	0.1495
323.498	0.1501
323.84	0.1504
324.183	0.1512
324.525	0.1524
324.868	0.1545
325.21	0.1542
325.552	0.1551
325.894	0.1565
326.236	0.1564
326.578	0.1584
326.92	0.1598
327.262	0.1601
327.604	0.1607
327.946	0.1625
328.287	0.1633
328.629	0.1642
328.97	0.1653
329.312	0.1663
329.653	0.1682
329.994	0.1692
330.335	0.1697
330.676	0.1719
331.017	0.1723
331.358	0.1734
331.699	0.175
332.04	0.1759
332.38	0.1767
332.721	0.1781
333.061	0.1788
333.402	0.1808
333.742	0.1812
334.083	0.182
334.423	0.1829
334.763	0.1857
335.103	0.1858
335.443	0.1864
335.783	0.1877
336.123	0.1883
336.462	0.1894
336.802	0.1903
337.141	0.1912
337.481	0.1924
337.82	0.1934
338.16	0.1941
338.499	0.1955
338.838	0.1969
339.177	0.1968
339.516	0.1979
339.855	0.199
340.194	0.1991
340.533	0.1996
340.872	0.2003
341.21	0.2022
341.549	0.202
341.887	0.2031
342.226	0.203
342.564	0.2035
342.902	0.2038
343.24	0.2048
343.578	0.2054
343.916	0.2048
344.254	0.2059
344.592	0.2057
344.93	0.2066
345.268	0.2055
345.605	0.2065
345.943	0.2061
346.28	0.2064
346.618	0.206
346.955	0.2064
347.292	0.2074
347.629	0.2071
347.966	0.2074
348.303	0.2076
348.64	0.207
348.977	0.2074
349.314	0.2078
349.65	0.2073
349.987	0.2076
350.324	0.2065
350.66	0.2072
350.996	0.207
351.333	0.2058
351.669	0.2063
352.005	0.2055
352.341	0.2046
352.677	0.2037
353.013	0.2026
353.349	0.2022
353.685	0.2015
354.02	0.2002
354.356	0.2003
354.691	0.1984
355.027	0.1987
355.362	0.1972
355.697	0.196
356.033	0.1962
356.368	0.1954
356.703	0.1941
357.038	0.193
357.373	0.1921
357.707	0.1918
358.042	0.1908
358.377	0.1894
358.711	0.1894
359.046	0.188
359.38	0.1876
359.715	0.1869
360.049	0.1857
360.383	0.1843
360.717	0.1829
361.051	0.1826
361.385	0.1816
361.719	0.1799
362.053	0.1789
362.387	0.1772
362.72	0.1759
363.054	0.1755
363.387	0.1734
363.721	0.171
364.054	0.1707
364.387	0.1693
364.721	0.167
365.054	0.1666
365.387	0.1647
365.72	0.1632
366.053	0.1633
366.385	0.1606
366.718	0.1599
367.051	0.1578
367.383	0.1577
367.716	0.1563
368.048	0.1553
368.381	0.1545
368.713	0.1527
369.045	0.1519
369.377	0.1506
369.709	0.1497
370.041	0.1485
370.373	0.148
370.705	0.1461
371.037	0.1446
371.368	0.1439
371.7	0.1423
372.031	0.1403
372.363	0.1396
372.694	0.1386
373.025	0.1365
373.356	0.135
373.688	0.1332
374.019	0.1317
374.35	0.1297
374.68	0.1284
375.011	0.1268
375.342	0.1256
375.673	0.1237
376.003	0.1218
376.334	0.1208
376.664	0.1195
376.995	0.1183
377.325	0.1168
377.655	0.1158
377.985	0.1138
378.315	0.1129
378.645	0.1117
378.975	0.1114
379.305	0.1091
379.635	0.1092
379.964	0.1076
380.294	0.1065
380.623	0.1056
380.953	0.1043
381.282	0.1039
381.611	0.1029
381.941	0.1018
382.27	0.1001
382.599	0.0994
382.928	0.0985
383.257	0.0971
383.585	0.096
383.914	0.0943
384.243	0.0926
384.571	0.0918
384.9	0.091
385.228	0.0891
385.557	0.0875
385.885	0.0866
386.213	0.0852
386.541	0.0836
386.869	0.083
387.197	0.0812
387.525	0.0799
387.853	0.0791
388.181	0.0774
388.508	0.0766
388.836	0.0753
389.164	0.0748
389.491	0.0731
389.818	0.0717
390.146	0.0711
390.473	0.0702
390.8	0.0703
391.127	0.0683
391.454	0.0675
391.781	0.0668
392.108	0.0659
392.435	0.0647
392.761	0.0649
393.088	0.0643
393.415	0.0633
393.741	0.0631
394.067	0.0623
394.394	0.0618
394.72	0.0601
395.046	0.0587
395.372	0.0587
395.698	0.0579
396.024	0.057
396.35	0.0567
396.676	0.0557
397.001	0.0549
397.327	0.0543
397.653	0.0537
397.978	0.0527
398.303	0.0515
398.629	0.0517
398.954	0.0504
399.279	0.0504
399.604	0.0494
399.929	0.0489
400.254	0.0482
400.579	0.0473
400.904	0.0467
401.229	0.0464
401.553	0.046
401.878	0.0459
402.202	0.0458
402.527	0.0452
402.851	0.0448
403.175	0.0441
403.5	0.0436
403.824	0.043
404.148	0.0431
404.472	0.0427
404.796	0.0425
405.119	0.042
405.443	0.0415
405.767	0.0416
406.09	0.0415
406.414	0.0408
406.737	0.0408
407.061	0.0409
407.384	0.0406
407.707	0.0403
408.03	0.0392
408.353	0.0401
408.676	0.0396
408.999	0.0396
409.322	0.0395
409.645	0.039
409.968	0.0395
410.29	0.0387
410.613	0.0398
410.935	0.0379
411.258	0.0386
411.58	0.0375
411.902	0.0377
412.224	0.0381
412.546	0.038
412.868	0.0388
413.19	0.0376
413.512	0.0377
413.834	0.0378
414.156	0.0388
414.477	0.0371
414.799	0.038
415.121	0.0373
415.442	0.0375
415.763	0.0373
416.085	0.0381
416.406	0.0374
416.727	0.0381
417.048	0.0378
417.369	0.038
417.69	0.0376
418.011	0.0372
418.331	0.0377
418.652	0.0375
418.973	0.0368
419.293	0.0377
419.614	0.0366
419.934	0.0384
420.254	0.0377
420.574	0.0361
420.895	0.0368
421.215	0.0372
421.535	0.0374
421.855	0.0364
422.174	0.0364
422.494	0.0362
422.814	0.0365
423.134	0.0371
423.453	0.037
423.773	0.0377
424.092	0.0376
424.411	0.0369
424.731	0.0371
425.05	0.0374
425.369	0.0369
425.688	0.0369
426.007	0.037
426.326	0.0373
426.644	0.0372
426.963	0.0367
427.282	0.0368
427.6	0.0371
427.919	0.0373
428.237	0.0373
428.556	0.0377
428.874	0.0373
429.192	0.0377
429.51	0.0362
429.828	0.0373
430.146	0.037
430.464	0.0366
430.782	0.0364
431.1	0.0362
431.418	0.0362
431.735	0.0361
432.053	0.0366
432.37	0.037
432.688	0.0368
433.005	0.0361
433.322	0.0373
433.639	0.0371
433.957	0.0362
434.274	0.037
434.591	0.0371
434.907	0.0367
435.224	0.0364
435.541	0.0367
435.858	0.0377
436.174	0.0379
436.491	0.0366
436.807	0.0365
437.124	0.0368
437.44	0.0362
437.756	0.0368
438.072	0.0362
438.388	0.0361
438.704	0.0365
439.02	0.0362
439.336	0.0363
439.652	0.0361
439.968	0.0362
440.283	0.036
440.599	0.0364
440.914	0.0361
441.23	0.0362
441.545	0.036
441.86	0.0366
442.175	0.0363
442.491	0.0358
442.806	0.0355
443.121	0.0347
443.435	0.0354
443.75	0.0356
444.065	0.0354
444.38	0.0355
444.694	0.0351
445.009	0.0355
445.323	0.0355
445.638	0.035
445.952	0.035
446.266	0.0344
446.58	0.0337
446.894	0.0356
447.208	0.0342
447.522	0.0345
447.836	0.0348
448.15	0.0344
448.464	0.034
448.777	0.0347
449.091	0.0338
449.404	0.0338
449.718	0.0338
450.031	0.033
450.345	0.0341
450.658	0.0335
450.971	0.0335
451.284	0.0338
451.597	0.0341
451.91	0.0335
452.223	0.0338
452.535	0.0327
452.848	0.0334
453.161	0.0331
453.473	0.0328
453.786	0.0324
454.098	0.0325
454.411	0.0329
454.723	0.0333
455.035	0.0316
455.347	0.0315
455.659	0.032
455.971	0.0323
456.283	0.0324
456.595	0.0318
456.907	0.0314
457.218	0.0322
457.53	0.0311
457.841	0.0309
458.153	0.0316
458.464	0.0311
458.776	0.0311
459.087	0.0309
459.398	0.0305
459.709	0.0295
460.02	0.0305
460.331	0.0309
460.642	0.0305
460.953	0.0298
461.263	0.03
461.574	0.0294
461.885	0.0305
462.195	0.0292
462.506	0.0289
462.816	0.0301
463.126	0.0289
463.437	0.0293
463.747	0.0281
464.057	0.0278
464.367	0.0278
464.677	0.0281
464.987	0.028
465.296	0.0273
465.606	0.0273
465.916	0.0268
466.225	0.0276
466.535	0.0273
466.844	0.0274
467.154	0.0277
467.463	0.0269
467.772	0.0265
468.081	0.0266
468.39	0.0266
468.699	0.0269
469.008	0.0257
469.317	0.0262
469.626	0.0264
469.935	0.0255
470.243	0.0257
470.552	0.0248
470.86	0.0254
471.169	0.0248
471.477	0.0241
471.785	0.0246
472.093	0.0237
472.402	0.0239
472.71	0.0238
473.018	0.0232
473.326	0.0241
473.633	0.0236
473.941	0.0234
474.249	0.023
474.556	0.023
474.864	0.0225
475.171	0.0233
475.479	0.0227
475.786	0.0229
476.094	0.0219
476.401	0.0223
476.708	0.022
477.015	0.022
477.322	0.0207
477.629	0.0209
477.936	0.0213
478.242	0.0213
478.549	0.0218
478.856	0.0209
479.162	0.0203
479.469	0.0202
479.775	0.0203
480.081	0.0196
480.388	0.0197
480.694	0.0191
481	0.0196
481.306	0.0189
481.612	0.0199
481.918	0.0201
482.224	0.0196
482.53	0.0194
482.835	0.0192
483.141	0.0193
483.446	0.0189
483.752	0.0182
484.057	0.018
484.363	0.0184
484.668	0.0176
484.973	0.0174
485.278	0.0163
485.583	0.0165
485.888	0.0177
486.193	0.0161
486.498	0.0169
486.803	0.0168
487.107	0.016
487.412	0.0149
487.717	0.0155
488.021	0.0166
488.325	0.016
488.63	0.0161
488.934	0.0164
489.238	0.0147
489.542	0.0153
489.846	0.0148
490.15	0.0151
490.454	0.0157
490.758	0.0148
491.062	0.014
491.366	0.0144
491.669	0.0143
491.973	0.0138
492.276	0.0137
492.58	0.014
492.883	0.0145
493.186	0.0134
493.489	0.0138
493.792	0.0126
494.096	0.0122
494.399	0.0127
494.701	0.0131
495.004	0.0116
495.307	0.0128
495.61	0.0131
495.912	0.0129
496.215	0.0128
496.517	0.0127
496.82	0.0124
497.122	0.0117
497.424	0.0116
497.727	0.0112
498.029	0.0116
498.331	0.0115
498.633	0.0113
498.935	0.0103
499.237	0.0109
499.538	0.0106
499.84	0.0109
500.142	0.0105
500.443	0.0113
500.745	0.0104
501.046	0.01
501.348	0.0094
501.649	0.0089
501.95	0.01
502.251	0.0103
502.552	0.0096
502.853	0.01
503.154	0.01
503.455	0.0098
503.756	0.0094
504.057	0.0091
504.357	0.0093
504.658	0.0092
504.958	0.0076
505.259	0.0086
505.559	0.0084
505.859	0.0084
506.16	0.0085
506.46	0.0082
506.76	0.0071
507.06	0.0075
507.36	0.0076
507.66	0.0079
507.96	0.009
508.259	0.0076
508.559	0.0073
508.859	0.008
509.158	0.0079
509.457	0.006
509.757	0.0069
510.056	0.0061
510.355	0.0066
510.655	0.0056
510.954	0.0063
511.253	0.0071
511.552	0.0072
511.851	0.0066
512.149	0.0056
512.448	0.0065
512.747	0.0063
513.045	0.0061
513.344	0.0061
513.642	0.0059
513.941	0.0065
514.239	0.0055
514.537	0.0064
514.836	0.006
515.134	0.0055
515.432	0.006
515.73	0.0059
516.028	0.0052
516.326	0.0052
516.623	0.0049
516.921	0.0049
517.219	0.006
517.516	0.0051
517.814	0.0058
518.111	0.0051
518.409	0.006
518.706	0.0061
519.003	0.0048
519.3	0.0044
519.597	0.0057
519.894	0.0042
520.191	0.0058
520.488	0.0054
520.785	0.0049
521.082	0.0054
521.378	0.0063
521.675	0.0042
521.971	0.0042
522.268	0.0048
522.564	0.0046
522.861	0.0056
523.157	0.0042
523.453	0.0056
523.749	0.0042
524.045	0.0045
524.341	0.0049
524.637	0.0041
524.933	0.0054
525.229	0.0044
525.524	0.004
525.82	0.0049
526.115	0.0042
526.411	0.0045
526.706	0.0047
527.002	0.0047
527.297	0.0034
527.592	0.0045
527.887	0.0035
528.182	0.0032
528.477	0.0043
528.772	0.004
529.067	0.0036
529.362	0.0037
529.657	0.0042
529.951	0.0029
530.246	0.0029
530.54	0.0033
530.835	0.0033
531.129	0.0037
531.423	0.0031
531.718	0.0036
532.012	0.0034
532.306	0.004
532.6	0.0035
532.894	0.0048
533.188	0.0029
533.482	0.0032
533.775	0.0028
534.069	0.0032
534.363	0.0031
534.656	0.0031
534.95	0.0028
535.243	0.0023
535.536	0.0019
535.83	0.002
536.123	0.002
536.416	0.0031
536.709	0.0029
537.002	0.0043
537.295	0.0034
537.588	0.0042
537.881	0.0023
538.173	0.0035
538.466	0.0028
538.759	0.0031
539.051	0.0034
539.344	0.0041
539.636	0.0039
539.928	0.0042
540.22	0.0027
540.513	0.0026
540.805	0.0038
541.097	0.0035
541.389	0.0033
541.681	0.0036
541.972	0.003
542.264	0.004
542.556	0.0038
542.847	0.0041
543.139	0.0038
543.431	0.0033
543.722	0.003
544.013	0.0037
544.305	0.0032
544.596	0.0039
544.887	0.0042
545.178	0.0048
545.469	0.0044
545.76	0.0044
546.051	0.004
546.342	0.004
546.632	0.0027
546.923	0.0032
547.214	0.0024
547.504	0.0039
547.795	0.0022
548.085	0.0029
548.375	0.0037
548.666	0.0044
548.956	0.0035
549.246	0.0036
549.536	0.0033
549.826	0.0053
550.116	0.0042
550.406	0.0032
550.695	0.0041
550.985	0.0031
551.275	0.0045
551.564	0.0047
551.854	0.0044
552.143	0.0043
552.433	0.0036
552.722	0.0036
553.011	0.0036
553.3	0.0035
553.589	0.0044
553.879	0.0044
554.167	0.0035
554.456	0.0033
554.745	0.0036
555.034	0.004
555.323	0.0048
555.611	0.004
555.9	0.0034
556.188	0.0031
556.477	0.0036
556.765	0.0035
557.053	0.0043
557.342	0.0029
557.63	0.0031
557.918	0.0045
558.206	0.0044
558.494	0.004
558.782	0.0049
559.069	0.0057
559.357	0.0042
559.645	0.0036
559.932	0.0036
560.22	0.0034
560.507	0.0026
560.795	0.0026
561.082	0.0026
561.37	0.0033
561.657	0.0032
561.944	0.0028
562.231	0.0026
562.518	0.0031
562.805	0.0039
563.092	0.0033
563.379	0.004
563.665	0.0041
563.952	0.0053
564.239	0.0053
564.525	0.0042
564.811	0.0043
565.098	0.0033
565.384	0.0037
565.67	0.0042
565.957	0.0038
566.243	0.0035
566.529	0.0037
566.815	0.0042
567.101	0.0034
567.387	0.0029
567.672	0.0035
567.958	0.0028
568.244	0.002
568.529	0.0033
568.815	0.0028
569.1	0.0026
569.386	0.0036
569.671	0.0033
569.956	0.0034
570.242	0.0033
570.527	0.0023
570.812	0.0026
571.097	0.0022
571.382	0.0017
571.666	0.0027
571.951	0.0033
572.236	0.0026
572.521	0.0035
572.805	0.0031
573.09	0.0032
573.374	0.0023
573.659	0.0025
573.943	0.0022
574.227	0.003
574.511	0.0036
574.795	0.0036
575.079	0.0031
575.363	0.003
575.647	0.0021
575.931	0.0029
576.215	0.0028
576.499	0.0025
576.782	0.0025
577.066	0.0019
577.349	0.0027
577.633	0.0039
577.916	0.0032
578.2	0.0035
578.483	0.0034
578.766	0.0037
579.049	0.0031
579.332	0.0027
579.615	0.0027
579.898	0.0021
580.181	0.003
580.464	0.003
580.746	0.0031
581.029	0.0035
581.312	0.0023
581.594	0.002
581.877	0.002
582.159	0.0034
582.441	0.0023
582.724	0.0026
583.006	0.0032
583.288	0.0033
583.57	0.0033
583.852	0.0029
584.134	0.0036
584.416	0.0025
584.697	0.0033
584.979	0.0022
585.261	0.0028
585.542	0.0032
585.824	0.0027
586.105	0.0032
586.387	0.0033
586.668	0.0033
586.949	0.0041
587.231	0.003
587.512	0.0036
587.793	0.0028
588.074	0.0031
588.355	0.0031
588.636	0.0024
588.916	0.0031
589.197	0.0021
589.478	0.0032
589.758	0.0024
590.039	0.0023
590.319	0.0018
590.6	0.0025
590.88	0.0022
591.16	0.0025
591.441	0.0026
591.721	0.0026
592.001	0.0024
592.281	0.0028
592.561	0.0031
592.841	0.0031
593.12	0.0032
593.4	0.0028
593.68	0.0027
593.959	0.0029
594.239	0.0033
594.518	0.0039
594.798	0.0044
595.077	0.0031
595.356	0.0033
595.636	0.0025
595.915	0.0027
596.194	0.0032
596.473	0.0041
596.752	0.0031
597.031	0.0034
597.31	0.0022
597.588	0.0021
597.867	0.0026
598.146	0.0019
598.424	0.001
598.703	0.0022
598.981	0.0018
599.259	0.0016
599.538	0.0031
599.816	0.0035
600.094	0.0039
600.372	0.0027
600.65	0.0029
600.928	0.003
601.206	0.0033
601.484	0.0033
601.762	0.0031
602.04	0.0033
602.317	0.0034
602.595	0.0038
602.872	0.0037
603.15	0.004
603.427	0.002
603.704	0.0019
603.982	0.002
604.259	0.0016
604.536	0.0023
604.813	0.0025
605.09	0.0025
605.367	0.0022
605.644	0.0019
605.921	0.0023
606.197	0.0016
606.474	0.0018
606.751	0.002
607.027	0.0026
607.304	0.0026
607.58	0.0025
607.856	0.0033
608.133	0.0038
608.409	0.0041
608.685	0.0034
608.961	0.0035
609.237	0.0034
609.513	0.0045
609.789	0.0033
610.065	0.0029
610.341	0.0026
610.616	0.0027
610.892	0.0033
611.167	0.0033
611.443	0.004
611.718	0.0035
611.994	0.0034
612.269	0.0029
612.544	0.0022
612.819	0.0025
613.095	0.0024
613.37	0.0026
613.645	0.0021
613.919	0.0028
614.194	0.0036
614.469	0.003
614.744	0.002
615.019	0.0017
615.293	0.002
615.568	0.0023
615.842	0.0017
616.116	0.0022
616.391	0.0019
616.665	0.0012
616.939	0.0009
617.213	0.0014
617.488	0.0024
617.762	0.0022
618.035	0.0026
618.309	0.0015
618.583	0.0026
618.857	0.0029
619.131	0.0027
619.404	0.0027
619.678	0.0034
619.951	0.0029
620.225	0.0017
620.498	0.0009
620.771	0.0013
621.045	0.0012
621.318	0.002
621.591	0.0029
621.864	0.0015
622.137	0.0013
622.41	0.0017
622.683	0.0009
622.956	0.0013
623.228	0.0014
623.501	0.0021
623.774	0.0026
624.046	0.0023
624.319	0.0026
624.591	0.0019
624.863	0.0022
625.136	0.0032
625.408	0.0039
625.68	0.0031
625.952	0.0034
626.224	0.0033
626.496	0.0039
626.768	0.0029
627.04	0.0033
627.311	0.003
627.583	0.0038
627.855	0.0023
628.126	0.0025
628.398	0.0018
628.669	0.0015
628.941	0.0003
629.212	-0.0002
629.483	0.0014
629.755	0.0015
630.026	0.002
630.297	0.0008
630.568	0.0019
630.839	0.0022
631.11	0.0022
631.38	0.002
631.651	0.0028
631.922	0.0029
632.192	0.0018
632.463	0.0012
632.733	0.001
633.004	0.0012
633.274	0.0008
633.545	0.0012
633.815	0.002
634.085	0.0011
634.355	0.0018
634.625	0.0015
634.895	0.0022
635.165	0.0024
635.435	0.0032
635.705	0.0023
635.974	0.0018
636.244	0.0015
636.514	0.0007
636.783	0.0012
637.053	0.0024
637.322	0.0013
637.591	0.0006
637.861	-0.0005
638.13	0.0007
638.399	0.0014
638.668	0.0018
638.937	0.0028
639.206	0.0019
639.475	0.003
639.744	0.0018
640.013	0.0017
640.281	0.0015
640.55	0.0018
640.819	0.0016
641.087	0.0016
641.356	0.0015
641.624	0.0019
641.892	0.0016
642.161	0.0016
642.429	0.0015
642.697	0.0018
642.965	0.0006
643.233	0.0004
643.501	0.001
643.769	-0.0001
644.037	0.0014
644.305	0.0006
644.572	0.0009
644.84	0.0003
645.108	0.0021
645.375	0.0015
645.643	0.002
645.91	0.0023
646.177	0.0013
646.445	0.0016
646.712	0.0018
646.979	0.0021
647.246	0.0025
647.513	0.0027
647.78	0.002
648.047	0.0007
648.314	0.0006
648.58	0.0005
648.847	-0.0007
649.114	-0.0004
649.38	-0.0012
649.647	-0.0012
649.913	-0.0005
650.18	0.0012
650.446	0.002
650.712	0.0023
650.978	0.0026
651.245	0.0031
651.511	0.0037
651.777	0.0035
652.043	0.0014
652.309	0.0026
652.574	0.0014
652.84	0.0019
653.106	0.0029
653.371	0.0038
653.637	0.0034
653.903	0.0025
654.168	0.0031
654.433	0.0031
654.699	0.0019
654.964	-0.0004
655.229	0.0009
655.494	0.0008
655.759	-0.0005
656.024	0.0001
656.289	-0
656.554	0.0007
656.819	0.0018
657.084	0.0019
657.349	0.0036
657.613	0.0019
657.878	0.0011
658.142	0.0002
658.407	0.0002
658.671	0.0008
658.936	0.0014
659.2	0.0017
659.464	0.0016
659.728	0.0005
659.992	0.0001
660.256	-0.0011
660.52	0.0001
660.784	0.0001
661.048	0.0011
661.312	0.0006
661.575	0.0014
661.839	0.0015
662.103	0.0007
662.366	0.0004
662.63	0.0009
662.893	0.0008
663.156	0.0015
663.42	0.0028
663.683	0.0021
663.946	0.0023
664.209	0.0027
664.472	0.0029
664.735	0.0027
664.998	0.0034
665.261	0.0042
665.524	0.0033
665.786	0.0022
666.049	0.003
666.312	0.0026
666.574	0.0026
666.837	0.0039
667.099	0.0026
667.361	0.0031
667.624	0.0028
667.886	0.0029
668.148	0.0033
668.41	0.0026
668.672	0.003
668.934	0.0027
669.196	0.002
669.458	0.001
669.72	0.0013
669.982	0.0006
670.243	0.0011
670.505	0.0007
670.766	-0.0002
671.028	0.0011
671.289	0.0018
671.551	0.0023
671.812	0.0009
672.073	0.0017
672.334	0.0011
672.596	0.001
672.857	0.0016
673.118	0.0017
673.379	0.0027
673.639	0.0023
673.9	0.0016
674.161	0.0028
674.422	0.0026
674.682	0.0015
674.943	0.0011
675.203	0.0014
675.464	0.0021
675.724	0.0016
675.985	0.0017
676.245	0.0014
676.505	0.0005
676.765	0.0001
677.025	0.0012
677.285	0.0005
677.545	0.0002
677.805	0.0007
678.065	0.0014
678.325	0.0019
678.585	0.0029
678.844	0.0032
679.104	0.0041
679.363	0.0041
679.623	0.004
679.882	0.0036
680.142	0.0044
680.401	0.004
680.66	0.0048
680.919	0.0032
681.178	0.0031
681.437	0.0031
681.696	0.0025
681.955	0.0042
682.214	0.0038
682.473	0.0036
682.732	0.0021
682.99	0.0038
683.249	0.0046
683.508	0.0043
683.766	0.0036
684.024	0.0038
684.283	0.002
684.541	0.0018
684.799	0.0015
685.058	0.0001
685.316	-0.0002
685.574	-0.0003
685.832	0.0008
686.09	0.0001
686.348	-0.0013
686.606	-0.0003
686.863	-0.0017
687.121	-0.0016
687.379	-0.0025
687.636	-0.0027
687.894	-0.0018
688.151	-0.0019
688.409	-0.0013
688.666	-0.0008
688.923	-0.0011
689.181	-0.0009
689.438	-0.0015
689.695	-0.0008
689.952	-0.0005
690.209	-0.0003
690.466	-0.0009
690.723	0.0001
690.979	-0.0008
691.236	-0.0008
691.493	-0.0017
691.75	-0.0011
692.006	-0.0005
692.263	-0.0013
692.519	-0.0004
692.775	-0.002
693.032	-0.0023
693.288	-0.0026
693.544	-0.0021
693.8	-0.0009
694.056	-0.0014
694.313	-0.0015
694.568	-0.0008
694.824	-0.001
695.08	-0.0008
695.336	-0.0004
695.592	-0
695.847	0.0007
696.103	0.0016
696.359	0.0024
696.614	0.0023
696.869	0.0009
697.125	-0.0002
697.38	-0.0011
697.635	0.0001
697.891	0.0015
698.146	0.0008
698.401	-0
698.656	-0.0001
698.911	0.0011
699.166	0.0006
699.42	0.0024
699.675	0.0023
699.93	0.0016
700.185	0.0034
700.439	0.0024
700.694	0.0021
700.948	0.002
701.203	0.0017
701.457	0.0015
701.711	0.0016
701.965	0.0005
702.22	-0
702.474	0.0001
702.728	-0.0002
702.982	0.0001
703.236	-0.0004
703.49	-0.0003
703.743	-0.0009
703.997	0
704.251	-0.0001
704.504	0.001
704.758	0.0012
705.012	0.0016
705.265	0.0021
705.518	0.0009
705.772	0.0013
706.025	0.002
706.278	0.0018
706.531	0.0009
706.785	-0.0003
707.038	-0.0003
707.291	-0.0004
707.543	-0.0006
707.796	-0.0004
708.049	-0.0004
708.302	-0.0006
708.555	-0.0005
708.807	0.0004
709.06	0.0006
709.312	0.002
709.565	0.0019
709.817	0.0028
710.069	0.0027
710.322	0.0024
710.574	0.0025
710.826	0.0024
711.078	0.0021
711.33	0.0024
711.582	0.0017
711.834	0.0015
712.086	0.0026
712.338	0.0018
712.59	0.0014
712.841	-0.0001
713.093	0.0003
713.344	0.0009
713.596	0.0003
713.847	-0.0013
714.099	-0.0009
714.35	0.0003
714.601	-0.0009
714.853	-0.0019
715.104	-0.0017
715.355	-0.0015
715.606	-0.0007
715.857	0
716.108	0.0004
716.359	0.0011
716.609	0.0004
716.86	0.0011
717.111	0.0012
717.361	0.0008
717.612	0.0006
717.863	0.0008
718.113	0.0019
718.363	0.0018
718.614	0.0021
718.864	0.0017
719.114	0.0008
719.364	0.0004
719.614	0.0002
719.865	-0.0005
720.114	0.0004
720.364	-0
720.614	-0.0004
720.864	-0.0005
721.114	-0.0017
721.364	-0.0011
721.613	-0.0018
721.863	-0.0015
722.112	-0.001
722.362	0.0001
722.611	0.0001
722.86	0.0004
723.11	0.0025
723.359	0.0019
723.608	0.0015
723.857	0.0031
724.106	0.0022
724.355	0.0018
724.604	0.0013
724.853	0.0011
725.102	-0.0013
725.351	-0.0013
725.599	-0.0031
725.848	-0.0021
726.097	-0.0011
726.345	-0.0015
726.594	-0.0014
726.842	-0.0003
727.09	-0.001
727.339	-0.0011
727.587	-0.0021
727.835	-0.0025
728.083	-0.003
728.331	-0.002
728.579	-0.0012
728.827	-0.0016
729.075	-0.0027
729.323	-0.003
729.571	-0.0023
729.818	-0.0027
730.066	-0.0018
730.314	-0.0014
730.561	-0.0018
730.809	-0.003
731.056	-0.0022
731.303	-0.0023
731.551	-0.0021
731.798	-0.0018
732.045	-0.0007
732.292	-0.0021
732.539	-0.0009
732.786	-0.0022
733.033	-0.0021
733.28	-0.0016
733.527	-0.0016
733.774	-0.0022
734.021	-0.0023
734.267	-0.0015
734.514	-0.0025
734.76	-0.0021
735.007	-0.0018
735.253	-0.0007
735.5	0.0009
735.746	0.0018
735.992	0.0013
736.238	0.0018
736.485	0.0015
736.731	0.0018
736.977	0.0009
737.223	-0.0003
737.469	-0.0002
737.715	0
737.96	0.001
738.206	0.0006
738.452	0.0012
738.697	0.0006
738.943	-0.0004
739.189	-0
739.434	-0.0002
739.679	0.0005
739.925	0.0019
740.17	0.002
740.415	0.0015
740.66	0.002
740.906	0.0018
741.151	0.0016
741.396	0.0004
741.641	0
741.886	0.0008
742.13	0.0002
742.375	0.0009
742.62	-0.0004
742.865	-0
743.109	0.0003
743.354	-0.0013
743.598	-0.0015
743.843	-0.0022
744.087	-0.003
744.331	-0.0027
744.576	-0.0022
744.82	-0.0012
745.064	-0.0008
745.308	-0.0004
745.552	-0.0007
745.796	-0.0018
746.04	-0.0006
746.284	-0.0016
746.528	-0.0008
746.771	-0.0012
747.015	-0.0011
747.259	-0.0019
747.502	-0.0016
747.746	-0.0008
747.989	-0.0003
748.233	0.0002
748.476	-0.0001
748.719	0.0002
748.963	0.0011
749.206	0.0006
749.449	0.0007
749.692	-0.0004
749.935	-0.0004
750.178	0.0003
750.421	-0.0007
750.664	0.0002
750.906	0.0003
751.149	0.0004
751.392	0.0003
751.635	0.0008
751.877	0.0004
752.12	0.0003
752.362	0.0001
752.604	0.0008
752.847	0
753.089	0.0006
753.331	-0.0002
753.573	0.0004
753.816	0.0007
754.058	0.0003
754.3	0.0006
754.542	0.0023
754.783	0.002
755.025	0.0023
755.267	0.0021
755.509	0.002
755.75	0.0005
755.992	0.0004
756.234	0.0009
756.475	0.0009
756.716	0.0001
756.958	-0.0007
757.199	-0
757.44	0.0004
757.682	-0.0001
757.923	0.0007
758.164	0.0004
758.405	0.0013
758.646	0.0006
758.887	0.0002
759.128	0.0001
759.369	-0.0004
759.609	-0.0004
759.85	-0
760.091	0.0007
760.331	0.0006
760.572	0.001
760.812	0.0003
761.053	0.0008
761.293	0.0017
761.533	0.0016
761.774	0.0016
762.014	0.0027
762.254	0.0012
762.494	0.0021
762.734	0.0011
762.974	0.0013
763.214	0.0015
763.454	0.0014
763.694	0.0018
763.933	0.0033
764.173	0.0039
764.413	0.0039
764.652	0.0019
764.892	0.0015
765.131	0.0009
765.371	0.0003
765.61	-0.0001
765.849	-0.0011
766.089	-0.0016
766.328	-0.0013
766.567	-0.0028
766.806	-0.003
767.045	-0.0035
767.284	-0.003
767.523	-0.0035
767.762	-0.0033
768.001	-0.002
768.239	-0.0024
768.478	-0.0027
768.717	-0.003
768.955	-0.0031
769.194	-0.0021
769.432	-0.0017
769.671	-0.0014
769.909	-0.0009
770.148	-0.0011
770.386	-0.0016
770.624	-0.0012
770.862	-0.0018
771.1	-0.0012
771.338	-0.0018
771.576	-0.0004
771.814	0.0005
772.052	-0.0008
772.29	0.0012
772.528	-0.0009
772.765	-0.001
773.003	-0.0009
773.24	-0
773.478	-0.0002
773.716	0.0017
773.953	0.0009
774.19	0.0017
774.428	0.002
774.665	0.0029
774.902	0.0035
775.139	0.0022
775.376	0.0017
775.613	0.0018
775.85	0.0016
776.087	0.0017
776.324	0.0011
776.561	-0.0005
776.798	0.0007
777.034	0.0002
777.271	0.0005
777.508	0.0006
777.744	0.0013
777.981	0.0015
778.217	0.0003
778.454	-0
778.69	-0
778.926	0.0003
779.162	-0.0014
779.399	0.0008
779.635	-0.0001
779.871	0.0001
780.107	0.0001
780.343	-0.0011
780.579	-0.0007
780.814	-0.0003
781.05	-0.0009
781.286	-0.0006
781.522	-0.0012
781.757	-0.002
781.993	-0.0009
782.228	-0.0017
782.464	-0.0013
782.699	-0.0003
782.934	-0.0008
783.17	-0.0005
783.405	0.0004
783.64	-0.0001
783.875	-0.0015
784.11	-0.0016
784.345	-0.0014
784.58	-0.0005
784.815	-0.0013
785.05	-0.0021
785.285	-0.0023
785.52	-0.0006
785.754	-0.0008
785.989	-0.0012
786.223	0.001
786.458	0.0006
786.692	0.0023
786.927	0.0036
787.161	0.0033
787.396	0.0028
787.63	0.0024
787.864	0.001
788.098	-0.0002
788.332	-0.0009
788.566	-0.0015
788.8	-0.001
789.034	-0
789.268	-0.001
789.502	-0.0008
789.736	0.0001
789.969	0.0006
790.203	0.0001
790.437	0.0014
790.67	0.0009
790.904	0.0022
791.137	0.0029
791.37	0.0027
791.604	0.0032
791.837	0.0041
792.07	0.0037
792.303	0.004
792.537	0.0052
792.77	0.0038
793.003	0.0036
793.236	0.0029
793.469	0.0023
793.701	0.0018
793.934	0.0022
794.167	0.0005
794.4	0.0006
794.632	-0.0001
794.865	-0.0011
795.097	-0.0011
795.33	-0.0009
795.562	-0.0018
795.795	-0.0008
796.027	-0.0005
796.259	0.0004
796.491	0.0015
796.724	0.0013
796.956	0.0021
797.188	0.0012
797.42	0.0009
797.652	0.0019
797.883	0.002
798.115	0.0023
798.347	0.0029
798.579	0.0027
798.81	0.0023
799.042	0.0029
799.274	0.0032
799.505	0.0021
799.737	0.0025
799.968	0.0024
800.199	0.0017
800.431	0.0028
800.662	0.0018
800.893	0.0016
801.124	0.0027
801.355	0.003
801.586	0.0036
801.817	0.005
802.048	0.004
802.279	0.004
802.51	0.0041
802.741	0.0045
802.971	0.0048
803.202	0.0029
803.433	0.003
803.663	0.0028
803.894	0.0028
804.124	0.0032
804.354	0.0044
804.585	0.0056
804.815	0.0044
805.045	0.0047
805.275	0.005
805.506	-0.014
805.736	-0.0468
805.966	-0.166
806.196	-0.0626
