Data from 03 0.4 mM K2Cr2O7 0.25 M BQDS 1 M H2SO4 5 min_Absorbance_0120.txt Node
Date: Wed Dec 15 03:30:12 EST 2021
User: kwabilab-user
Spectrometer: HDX00518
Trigger mode: 0
Integration Time (sec): 5.000000E-2
Scans to average: 50
Nonlinearity correction enabled: false
Boxcar width: 0
Storing dark spectrum: false
XAxis mode: Wavelengths
Number of Pixels in Spectrum: 2068
>>>>>Begin Spectral Data<<<<<
195.27	-0.0638
195.642	0.0628
196.014	-0.1257
196.386	-0.1963
196.758	-0.0881
197.129	-0.0272
197.501	-0.0349
197.872	0.0005
198.244	0.0007
198.615	0.0152
198.986	0.0207
199.357	0.0168
199.728	0.0393
200.099	0.0233
200.47	0.0041
200.841	-0.0011
201.212	0.014
201.582	0.0164
201.953	0.0204
202.323	0.0157
202.694	0.0069
203.064	0.0012
203.434	0.0021
203.804	0.0071
204.174	0.0095
204.544	0.0248
204.914	-0.0048
205.284	0.0002
205.653	-0.0013
206.023	0.0045
206.393	0.0216
206.762	0.0052
207.131	0.03
207.501	0.0199
207.87	-0.0091
208.239	-0.0093
208.608	0.0171
208.977	0.0022
209.346	0.0072
209.715	0.0017
210.083	0.0017
210.452	0.006
210.82	0.0191
211.189	-0.0009
211.557	0.0179
211.925	0.0027
212.294	0.0116
212.662	0.0092
213.03	0.0045
213.398	0.0025
213.766	0.009
214.133	0.0251
214.501	-0.0003
214.869	-0.0081
215.236	0.0082
215.604	0.0161
215.971	0.0394
216.338	0.0134
216.705	0.0264
217.072	0.0348
217.439	0.0162
217.806	0.0393
218.173	0.0447
218.54	0.0296
218.907	0.07
219.273	0.0558
219.64	0.071
220.006	0.0488
220.373	0.0784
220.739	0.083
221.105	0.1226
221.471	0.1235
221.837	0.1474
222.203	0.1653
222.569	0.1682
222.935	0.1969
223.3	0.2145
223.666	0.233
224.031	0.2658
224.397	0.2828
224.762	0.2853
225.127	0.3265
225.493	0.3363
225.858	0.3764
226.223	0.3924
226.588	0.4095
226.952	0.4136
227.317	0.4674
227.682	0.4698
228.046	0.4774
228.411	0.5001
228.775	0.5171
229.14	0.5279
229.504	0.5468
229.868	0.5572
230.232	0.5681
230.596	0.5756
230.96	0.5874
231.324	0.5798
231.688	0.5862
232.052	0.6095
232.415	0.5987
232.779	0.6205
233.142	0.6077
233.505	0.6255
233.869	0.6055
234.232	0.6128
234.595	0.6034
234.958	0.6232
235.321	0.6214
235.684	0.6025
236.047	0.6073
236.409	0.5993
236.772	0.6068
237.134	0.6064
237.497	0.6015
237.859	0.6086
238.222	0.5992
238.584	0.5952
238.946	0.5966
239.308	0.5932
239.67	0.5842
240.032	0.5847
240.393	0.5761
240.755	0.5869
241.117	0.5887
241.478	0.5728
241.84	0.5738
242.201	0.5713
242.562	0.5678
242.924	0.5602
243.285	0.5545
243.646	0.5572
244.007	0.5517
244.368	0.552
244.728	0.5468
245.089	0.5461
245.45	0.5474
245.81	0.5425
246.171	0.5416
246.531	0.5375
246.891	0.5315
247.252	0.5353
247.612	0.5375
247.972	0.5318
248.332	0.5362
248.692	0.5335
249.051	0.5273
249.411	0.5314
249.771	0.5319
250.13	0.5336
250.49	0.5237
250.849	0.5248
251.208	0.5294
251.568	0.5253
251.927	0.5228
252.286	0.5278
252.645	0.5203
253.004	0.5238
253.363	0.5223
253.721	0.524
254.08	0.5165
254.439	0.5179
254.797	0.5146
255.155	0.5143
255.514	0.5128
255.872	0.5114
256.23	0.5083
256.588	0.5118
256.946	0.5137
257.304	0.5119
257.662	0.5136
258.02	0.5128
258.377	0.5095
258.735	0.5092
259.093	0.5038
259.45	0.5065
259.807	0.5064
260.165	0.5068
260.522	0.5062
260.879	0.4997
261.236	0.502
261.593	0.4963
261.95	0.4994
262.306	0.4984
262.663	0.4973
263.02	0.4952
263.376	0.4924
263.733	0.4885
264.089	0.4867
264.445	0.4862
264.802	0.4864
265.158	0.4851
265.514	0.4858
265.87	0.4804
266.226	0.4788
266.581	0.4759
266.937	0.4814
267.293	0.4735
267.648	0.4708
268.004	0.4715
268.359	0.4734
268.714	0.4609
269.07	0.4604
269.425	0.4606
269.78	0.4575
270.135	0.4568
270.49	0.4552
270.844	0.454
271.199	0.4485
271.554	0.4441
271.908	0.4439
272.263	0.4413
272.617	0.4376
272.972	0.4346
273.326	0.4377
273.68	0.4285
274.034	0.4252
274.388	0.4246
274.742	0.4245
275.096	0.4194
275.45	0.4163
275.803	0.4131
276.157	0.4097
276.51	0.4063
276.864	0.4011
277.217	0.4002
277.571	0.4025
277.924	0.3939
278.277	0.3905
278.63	0.3864
278.983	0.3831
279.336	0.3783
279.688	0.3777
280.041	0.3726
280.394	0.3657
280.746	0.3625
281.099	0.3643
281.451	0.3556
281.803	0.3547
282.156	0.3504
282.508	0.3477
282.86	0.3436
283.212	0.3384
283.564	0.3343
283.916	0.3304
284.267	0.3265
284.619	0.3246
284.971	0.3218
285.322	0.318
285.673	0.3139
286.025	0.31
286.376	0.308
286.727	0.3031
287.078	0.3008
287.429	0.2998
287.78	0.2951
288.131	0.2908
288.482	0.287
288.833	0.2843
289.183	0.2814
289.534	0.2762
289.884	0.2746
290.235	0.2711
290.585	0.268
290.935	0.2645
291.285	0.2611
291.635	0.258
291.985	0.2556
292.335	0.2517
292.685	0.2484
293.035	0.2447
293.384	0.2404
293.734	0.2383
294.083	0.2344
294.433	0.2332
294.782	0.2309
295.131	0.2248
295.48	0.224
295.829	0.2189
296.179	0.2173
296.527	0.2136
296.876	0.2104
297.225	0.2068
297.574	0.2048
297.922	0.2014
298.271	0.199
298.619	0.195
298.968	0.1938
299.316	0.1904
299.664	0.1888
300.012	0.1859
300.36	0.1829
300.708	0.1809
301.056	0.178
301.404	0.1756
301.752	0.1735
302.099	0.1709
302.447	0.1692
302.794	0.1665
303.142	0.1639
303.489	0.1624
303.836	0.1594
304.183	0.158
304.531	0.1575
304.878	0.1549
305.224	0.1532
305.571	0.1517
305.918	0.1499
306.265	0.1474
306.611	0.1469
306.958	0.1456
307.304	0.1446
307.651	0.1428
307.997	0.1417
308.343	0.1402
308.689	0.1398
309.035	0.139
309.381	0.1375
309.727	0.1365
310.073	0.1356
310.419	0.135
310.764	0.1347
311.11	0.1334
311.455	0.133
311.801	0.1325
312.146	0.1312
312.491	0.131
312.837	0.1305
313.182	0.1289
313.527	0.1288
313.872	0.13
314.216	0.1293
314.561	0.1289
314.906	0.128
315.251	0.1291
315.595	0.1292
315.94	0.1286
316.284	0.1294
316.628	0.1288
316.972	0.129
317.317	0.1289
317.661	0.1291
318.005	0.1293
318.348	0.1304
318.692	0.1302
319.036	0.1306
319.38	0.1313
319.723	0.1312
320.067	0.132
320.41	0.1325
320.754	0.1328
321.097	0.1328
321.44	0.1345
321.783	0.1346
322.126	0.136
322.469	0.1369
322.812	0.1374
323.155	0.1386
323.498	0.1393
323.84	0.1392
324.183	0.1401
324.525	0.1413
324.868	0.1434
325.21	0.1436
325.552	0.1444
325.894	0.1456
326.236	0.1459
326.578	0.1471
326.92	0.1481
327.262	0.1486
327.604	0.1495
327.946	0.1503
328.287	0.1513
328.629	0.1531
328.97	0.1538
329.312	0.1547
329.653	0.1562
329.994	0.1571
330.335	0.1587
330.676	0.1595
331.017	0.1609
331.358	0.162
331.699	0.1634
332.04	0.1646
332.38	0.1649
332.721	0.1661
333.061	0.1671
333.402	0.1684
333.742	0.1692
334.083	0.1703
334.423	0.171
334.763	0.1721
335.103	0.174
335.443	0.1743
335.783	0.1757
336.123	0.1755
336.462	0.1769
336.802	0.1772
337.141	0.1788
337.481	0.1801
337.82	0.1808
338.16	0.1815
338.499	0.1831
338.838	0.1828
339.177	0.1841
339.516	0.1845
339.855	0.186
340.194	0.1863
340.533	0.1868
340.872	0.1879
341.21	0.1892
341.549	0.1893
341.887	0.1897
342.226	0.1896
342.564	0.1914
342.902	0.1915
343.24	0.1913
343.578	0.1924
343.916	0.1919
344.254	0.1932
344.592	0.1934
344.93	0.1928
345.268	0.1924
345.605	0.1935
345.943	0.1933
346.28	0.1937
346.618	0.1934
346.955	0.194
347.292	0.1949
347.629	0.1938
347.966	0.1943
348.303	0.1945
348.64	0.1952
348.977	0.1944
349.314	0.1946
349.65	0.1939
349.987	0.1953
350.324	0.194
350.66	0.1944
350.996	0.194
351.333	0.1935
351.669	0.1927
352.005	0.1933
352.341	0.1919
352.677	0.1915
353.013	0.1903
353.349	0.1893
353.685	0.1891
354.02	0.1883
354.356	0.1884
354.691	0.1868
355.027	0.1857
355.362	0.1844
355.697	0.1843
356.033	0.1844
356.368	0.1828
356.703	0.1826
357.038	0.1822
357.373	0.1798
357.707	0.1809
358.042	0.1797
358.377	0.1782
358.711	0.1784
359.046	0.1764
359.38	0.1763
359.715	0.1753
360.049	0.1757
360.383	0.1737
360.717	0.1726
361.051	0.1718
361.385	0.1707
361.719	0.1692
362.053	0.1689
362.387	0.1659
362.72	0.1658
363.054	0.1643
363.387	0.1631
363.721	0.1615
364.054	0.1601
364.387	0.1589
364.721	0.1566
365.054	0.1566
365.387	0.1546
365.72	0.1538
366.053	0.1519
366.385	0.1508
366.718	0.1506
367.051	0.1493
367.383	0.1479
367.716	0.1471
368.048	0.1457
368.381	0.1452
368.713	0.1434
369.045	0.1423
369.377	0.1423
369.709	0.1411
370.041	0.1398
370.373	0.139
370.705	0.1372
371.037	0.1359
371.368	0.1359
371.7	0.1338
372.031	0.1319
372.363	0.1308
372.694	0.1305
373.025	0.1279
373.356	0.1261
373.688	0.1259
374.019	0.1239
374.35	0.1218
374.68	0.1209
375.011	0.1186
375.342	0.1181
375.673	0.1166
376.003	0.1138
376.334	0.1137
376.664	0.1124
376.995	0.1107
377.325	0.1099
377.655	0.108
377.985	0.1071
378.315	0.1058
378.645	0.1049
378.975	0.1044
379.305	0.1026
379.635	0.1026
379.964	0.1009
380.294	0.1
380.623	0.0993
380.953	0.0978
381.282	0.0976
381.611	0.0965
381.941	0.0958
382.27	0.094
382.599	0.0939
382.928	0.0916
383.257	0.0908
383.585	0.09
383.914	0.0884
384.243	0.0872
384.571	0.0861
384.9	0.0853
385.228	0.0832
385.557	0.0823
385.885	0.0809
386.213	0.0802
386.541	0.0786
386.869	0.0771
387.197	0.0761
387.525	0.075
387.853	0.0737
388.181	0.0725
388.508	0.0718
388.836	0.0707
389.164	0.0699
389.491	0.0689
389.818	0.0672
390.146	0.0669
390.473	0.0661
390.8	0.0657
391.127	0.0646
391.454	0.0634
391.781	0.0628
392.108	0.0619
392.435	0.0605
392.761	0.0605
393.088	0.0598
393.415	0.0598
393.741	0.0594
394.067	0.0589
394.394	0.0573
394.72	0.0566
395.046	0.0549
395.372	0.0552
395.698	0.0544
396.024	0.0537
396.35	0.0535
396.676	0.0522
397.001	0.0515
397.327	0.0509
397.653	0.0502
397.978	0.0499
398.303	0.0488
398.629	0.0478
398.954	0.0473
399.279	0.0472
399.604	0.0462
399.929	0.0462
400.254	0.0451
400.579	0.0449
400.904	0.0441
401.229	0.0437
401.553	0.0437
401.878	0.0435
402.202	0.043
402.527	0.0419
402.851	0.0423
403.175	0.0411
403.5	0.0411
403.824	0.0405
404.148	0.0405
404.472	0.0398
404.796	0.04
405.119	0.039
405.443	0.0395
405.767	0.0388
406.09	0.0393
406.414	0.0382
406.737	0.0391
407.061	0.0385
407.384	0.0382
407.707	0.0377
408.03	0.0376
408.353	0.0371
408.676	0.0378
408.999	0.0374
409.322	0.0368
409.645	0.0366
409.968	0.0371
410.29	0.037
410.613	0.0371
410.935	0.0365
411.258	0.0362
411.58	0.0356
411.902	0.0363
412.224	0.0357
412.546	0.0357
412.868	0.0365
413.19	0.036
413.512	0.0356
413.834	0.036
414.156	0.0368
414.477	0.0351
414.799	0.0357
415.121	0.0346
415.442	0.0355
415.763	0.0351
416.085	0.0352
416.406	0.0352
416.727	0.0358
417.048	0.0357
417.369	0.0359
417.69	0.0353
418.011	0.0351
418.331	0.0352
418.652	0.0354
418.973	0.0347
419.293	0.035
419.614	0.0342
419.934	0.0357
420.254	0.0347
420.574	0.0338
420.895	0.0349
421.215	0.035
421.535	0.0344
421.855	0.0342
422.174	0.0336
422.494	0.0344
422.814	0.0347
423.134	0.0348
423.453	0.0349
423.773	0.0354
424.092	0.0351
424.411	0.0348
424.731	0.0352
425.05	0.0351
425.369	0.0348
425.688	0.0345
426.007	0.0352
426.326	0.0355
426.644	0.035
426.963	0.0349
427.282	0.035
427.6	0.0346
427.919	0.0347
428.237	0.0354
428.556	0.0354
428.874	0.0348
429.192	0.0351
429.51	0.0347
429.828	0.0349
430.146	0.035
430.464	0.0343
430.782	0.0346
431.1	0.0338
431.418	0.0341
431.735	0.0343
432.053	0.0344
432.37	0.0343
432.688	0.0344
433.005	0.0338
433.322	0.0353
433.639	0.0348
433.957	0.0345
434.274	0.0347
434.591	0.0351
434.907	0.0343
435.224	0.0358
435.541	0.0348
435.858	0.0353
436.174	0.0353
436.491	0.0349
436.807	0.0345
437.124	0.0339
437.44	0.0344
437.756	0.0346
438.072	0.034
438.388	0.035
438.704	0.0342
439.02	0.0337
439.336	0.0341
439.652	0.0342
439.968	0.0338
440.283	0.0341
440.599	0.0346
440.914	0.0341
441.23	0.0342
441.545	0.0344
441.86	0.0338
442.175	0.0344
442.491	0.0337
442.806	0.0336
443.121	0.0332
443.435	0.0333
443.75	0.0339
444.065	0.0333
444.38	0.0335
444.694	0.0332
445.009	0.0334
445.323	0.0337
445.638	0.0332
445.952	0.033
446.266	0.0326
446.58	0.0321
446.894	0.0328
447.208	0.0326
447.522	0.0319
447.836	0.0323
448.15	0.0326
448.464	0.0322
448.777	0.0325
449.091	0.032
449.404	0.0318
449.718	0.0326
450.031	0.0312
450.345	0.032
450.658	0.0313
450.971	0.0312
451.284	0.0316
451.597	0.0316
451.91	0.0314
452.223	0.0314
452.535	0.031
452.848	0.0309
453.161	0.0309
453.473	0.0307
453.786	0.0309
454.098	0.0306
454.411	0.0306
454.723	0.0309
455.035	0.0297
455.347	0.0296
455.659	0.0305
455.971	0.0308
456.283	0.0309
456.595	0.0306
456.907	0.0306
457.218	0.0302
457.53	0.0295
457.841	0.029
458.153	0.0296
458.464	0.0295
458.776	0.0291
459.087	0.0291
459.398	0.0287
459.709	0.0283
460.02	0.0289
460.331	0.0289
460.642	0.0289
460.953	0.0281
461.263	0.0285
461.574	0.0275
461.885	0.0284
462.195	0.0272
462.506	0.0278
462.816	0.0283
463.126	0.0271
463.437	0.0269
463.747	0.0267
464.057	0.0257
464.367	0.0255
464.677	0.0264
464.987	0.0259
465.296	0.0256
465.606	0.0253
465.916	0.0249
466.225	0.0252
466.535	0.0256
466.844	0.026
467.154	0.0257
467.463	0.0254
467.772	0.0247
468.081	0.0248
468.39	0.0248
468.699	0.0253
469.008	0.0248
469.317	0.024
469.626	0.025
469.935	0.0243
470.243	0.025
470.552	0.0235
470.86	0.0235
471.169	0.0237
471.477	0.0229
471.785	0.0221
472.093	0.0229
472.402	0.0226
472.71	0.0225
473.018	0.0218
473.326	0.0224
473.633	0.0222
473.941	0.0213
474.249	0.0213
474.556	0.0211
474.864	0.022
475.171	0.0225
475.479	0.0211
475.786	0.0218
476.094	0.0211
476.401	0.0214
476.708	0.0209
477.015	0.0205
477.322	0.02
477.629	0.0191
477.936	0.0198
478.242	0.0194
478.549	0.0199
478.856	0.0194
479.162	0.0194
479.469	0.0194
479.775	0.0196
480.081	0.0186
480.388	0.0175
480.694	0.0184
481	0.0181
481.306	0.018
481.612	0.0183
481.918	0.0188
482.224	0.0184
482.53	0.0182
482.835	0.0179
483.141	0.0191
483.446	0.0186
483.752	0.0173
484.057	0.0167
484.363	0.017
484.668	0.0173
484.973	0.0152
485.278	0.0159
485.583	0.0152
485.888	0.0155
486.193	0.0146
486.498	0.0159
486.803	0.0159
487.107	0.015
487.412	0.0137
487.717	0.0147
488.021	0.0157
488.325	0.0147
488.63	0.0155
488.934	0.0148
489.238	0.0145
489.542	0.0142
489.846	0.0139
490.15	0.0144
490.454	0.0144
490.758	0.0135
491.062	0.0143
491.366	0.0136
491.669	0.013
491.973	0.0135
492.276	0.0128
492.58	0.013
492.883	0.0131
493.186	0.0122
493.489	0.0129
493.792	0.0123
494.096	0.0114
494.399	0.0116
494.701	0.0119
495.004	0.0114
495.307	0.0117
495.61	0.0124
495.912	0.0122
496.215	0.0115
496.517	0.0127
496.82	0.011
497.122	0.0113
497.424	0.0113
497.727	0.011
498.029	0.0102
498.331	0.0111
498.633	0.0106
498.935	0.01
499.237	0.0105
499.538	0.0104
499.84	0.0101
500.142	0.0095
500.443	0.0093
500.745	0.0094
501.046	0.0084
501.348	0.0088
501.649	0.0084
501.95	0.0093
502.251	0.0099
502.552	0.0087
502.853	0.0091
503.154	0.0097
503.455	0.0095
503.756	0.0091
504.057	0.0081
504.357	0.008
504.658	0.0085
504.958	0.0071
505.259	0.0083
505.559	0.0073
505.859	0.0075
506.16	0.0068
506.46	0.0077
506.76	0.0071
507.06	0.0064
507.36	0.0069
507.66	0.008
507.96	0.0095
508.259	0.0074
508.559	0.0068
508.859	0.0077
509.158	0.0073
509.457	0.0057
509.757	0.0066
510.056	0.0064
510.355	0.0063
510.655	0.0062
510.954	0.0051
511.253	0.0062
511.552	0.0064
511.851	0.0066
512.149	0.0061
512.448	0.0054
512.747	0.0059
513.045	0.0057
513.344	0.0057
513.642	0.0055
513.941	0.0056
514.239	0.0057
514.537	0.0053
514.836	0.0043
515.134	0.0052
515.432	0.0049
515.73	0.0054
516.028	0.0053
516.326	0.0044
516.623	0.0048
516.921	0.0041
517.219	0.0064
517.516	0.0049
517.814	0.0047
518.111	0.0045
518.409	0.0049
518.706	0.0045
519.003	0.0051
519.3	0.0037
519.597	0.0054
519.894	0.0041
520.191	0.0058
520.488	0.0051
520.785	0.0045
521.082	0.0055
521.378	0.0048
521.675	0.0036
521.971	0.0037
522.268	0.0051
522.564	0.0039
522.861	0.0048
523.157	0.0051
523.453	0.0043
523.749	0.0039
524.045	0.0037
524.341	0.0046
524.637	0.0038
524.933	0.0054
525.229	0.005
525.524	0.0035
525.82	0.0048
526.115	0.0042
526.411	0.0045
526.706	0.0044
527.002	0.0035
527.297	0.002
527.592	0.0047
527.887	0.0028
528.182	0.0026
528.477	0.004
528.772	0.003
529.067	0.0034
529.362	0.0043
529.657	0.0032
529.951	0.0035
530.246	0.003
530.54	0.0027
530.835	0.0037
531.129	0.0037
531.423	0.0031
531.718	0.0032
532.012	0.0026
532.306	0.0034
532.6	0.0015
532.894	0.0028
533.188	0.0028
533.482	0.0026
533.775	0.0025
534.069	0.003
534.363	0.0014
534.656	0.0034
534.95	0.0023
535.243	0.0022
535.536	0.0026
535.83	0.0028
536.123	0.0023
536.416	0.0025
536.709	0.0033
537.002	0.004
537.295	0.0028
537.588	0.0031
537.881	0.0026
538.173	0.0037
538.466	0.0034
538.759	0.0033
539.051	0.0026
539.344	0.0036
539.636	0.0026
539.928	0.0045
540.22	0.0022
540.513	0.0036
540.805	0.0037
541.097	0.0037
541.389	0.0031
541.681	0.0031
541.972	0.0032
542.264	0.0036
542.556	0.0041
542.847	0.0033
543.139	0.0037
543.431	0.0034
543.722	0.0023
544.013	0.0034
544.305	0.0027
544.596	0.0034
544.887	0.0033
545.178	0.0043
545.469	0.0046
545.76	0.0044
546.051	0.0044
546.342	0.0035
546.632	0.0037
546.923	0.0023
547.214	0.0026
547.504	0.0028
547.795	0.0027
548.085	0.0024
548.375	0.0043
548.666	0.004
548.956	0.0029
549.246	0.0043
549.536	0.004
549.826	0.0047
550.116	0.0043
550.406	0.0043
550.695	0.0037
550.985	0.0041
551.275	0.0033
551.564	0.0043
551.854	0.004
552.143	0.0039
552.433	0.0045
552.722	0.0038
553.011	0.0042
553.3	0.0041
553.589	0.004
553.879	0.004
554.167	0.0034
554.456	0.0028
554.745	0.0037
555.034	0.0053
555.323	0.0032
555.611	0.0039
555.9	0.0043
556.188	0.0041
556.477	0.0032
556.765	0.0047
557.053	0.0036
557.342	0.0033
557.63	0.0027
557.918	0.0042
558.206	0.0046
558.494	0.0041
558.782	0.0037
559.069	0.0039
559.357	0.0045
559.645	0.004
559.932	0.0036
560.22	0.0041
560.507	0.0017
560.795	0.0023
561.082	0.0022
561.37	0.0027
561.657	0.0027
561.944	0.0026
562.231	0.0024
562.518	0.0037
562.805	0.0045
563.092	0.0028
563.379	0.0026
563.665	0.0029
563.952	0.0049
564.239	0.0043
564.525	0.0031
564.811	0.0037
565.098	0.0032
565.384	0.0032
565.67	0.0044
565.957	0.0034
566.243	0.0039
566.529	0.0041
566.815	0.0035
567.101	0.0034
567.387	0.0026
567.672	0.0029
567.958	0.0018
568.244	0.0031
568.529	0.0025
568.815	0.0026
569.1	0.0031
569.386	0.0031
569.671	0.0033
569.956	0.0024
570.242	0.0029
570.527	0.0029
570.812	0.0019
571.097	0.0026
571.382	0.0011
571.666	0.0019
571.951	0.0031
572.236	0.0024
572.521	0.0028
572.805	0.0042
573.09	0.0028
573.374	0.0018
573.659	0.0027
573.943	0.0031
574.227	0.0031
574.511	0.0029
574.795	0.0026
575.079	0.003
575.363	0.0028
575.647	0.0024
575.931	0.0031
576.215	0.0029
576.499	0.0023
576.782	0.0022
577.066	0.0022
577.349	0.0033
577.633	0.0028
577.916	0.0026
578.2	0.0036
578.483	0.0033
578.766	0.0042
579.049	0.0029
579.332	0.0035
579.615	0.0029
579.898	0.0017
580.181	0.0027
580.464	0.0028
580.746	0.0033
581.029	0.0026
581.312	0.0016
581.594	0.0012
581.877	0.0026
582.159	0.0037
582.441	0.0022
582.724	0.003
583.006	0.0032
583.288	0.0027
583.57	0.0029
583.852	0.0033
584.134	0.0034
584.416	0.0023
584.697	0.0026
584.979	0.0025
585.261	0.0024
585.542	0.0031
585.824	0.0032
586.105	0.0029
586.387	0.0039
586.668	0.0026
586.949	0.0038
587.231	0.0031
587.512	0.0029
587.793	0.002
588.074	0.0027
588.355	0.0033
588.636	0.0027
588.916	0.0028
589.197	0.0028
589.478	0.0025
589.758	0.0024
590.039	0.0021
590.319	0.0026
590.6	0.0024
590.88	0.0024
591.16	0.0024
591.441	0.0032
591.721	0.0026
592.001	0.002
592.281	0.003
592.561	0.0029
592.841	0.002
593.12	0.0022
593.4	0.0037
593.68	0.0028
593.959	0.0027
594.239	0.0033
594.518	0.0045
594.798	0.0027
595.077	0.0026
595.356	0.0026
595.636	0.0023
595.915	0.0026
596.194	0.0027
596.473	0.0023
596.752	0.0023
597.031	0.0027
597.31	0.001
597.588	0.0015
597.867	0.002
598.146	0.0021
598.424	0.0012
598.703	0.0015
598.981	0.001
599.259	0.0016
599.538	0.003
599.816	0.0032
600.094	0.0029
600.372	0.0025
600.65	0.0034
600.928	0.0029
601.206	0.0026
601.484	0.0039
601.762	0.0043
602.04	0.0035
602.317	0.0032
602.595	0.0037
602.872	0.0033
603.15	0.0038
603.427	0.0013
603.704	0.0025
603.982	0.0023
604.259	0.0015
604.536	0.002
604.813	0.0022
605.09	0.0019
605.367	0.0013
605.644	0.0017
605.921	0.0019
606.197	0.0014
606.474	0.0023
606.751	0.0022
607.027	0.0025
607.304	0.0017
607.58	0.0024
607.856	0.0035
608.133	0.0044
608.409	0.0037
608.685	0.003
608.961	0.0028
609.237	0.003
609.513	0.0036
609.789	0.0026
610.065	0.0021
610.341	0.0018
610.616	0.0023
610.892	0.0024
611.167	0.0032
611.443	0.0028
611.718	0.0034
611.994	0.0032
612.269	0.0023
612.544	0.0032
612.819	0.0022
613.095	0.0026
613.37	0.0015
613.645	0.0016
613.919	0.0018
614.194	0.0016
614.469	0.0026
614.744	0.0017
615.019	0.0015
615.293	0.0021
615.568	0.0019
615.842	0.0014
616.116	0.002
616.391	0.0014
616.665	0.0007
616.939	0.0005
617.213	0.0017
617.488	0.0017
617.762	0.0023
618.035	0.0026
618.309	0.0017
618.583	0.0023
618.857	0.003
619.131	0.0018
619.404	0.0017
619.678	0.0024
619.951	0.0023
620.225	0.0012
620.498	0.0007
620.771	0.0014
621.045	0.0021
621.318	0.0031
621.591	0.002
621.864	0.0017
622.137	0.0011
622.41	0.001
622.683	0.0007
622.956	0.0006
623.228	0.0013
623.501	0.0021
623.774	0.0029
624.046	0.0022
624.319	0.001
624.591	0.0016
624.863	0.0011
625.136	0.0032
625.408	0.0039
625.68	0.002
625.952	0.0025
626.224	0.0028
626.496	0.0029
626.768	0.0022
627.04	0.0017
627.311	0.0014
627.583	0.003
627.855	0.0031
628.126	0.0013
628.398	0.0008
628.669	0.001
628.941	-0.0003
629.212	-0
629.483	0.0013
629.755	0.0004
630.026	0.0022
630.297	0.0007
630.568	0.0013
630.839	0.0011
631.11	0.0018
631.38	0.0027
631.651	0.0015
631.922	0.0032
632.192	0.0019
632.463	0.0025
632.733	0.0012
633.004	0.0016
633.274	0.0013
633.545	0.0004
633.815	0.0024
634.085	0.0023
634.355	0.0016
634.625	0.0014
634.895	0.0028
635.165	0.0012
635.435	0.0025
635.705	0.0023
635.974	0.0019
636.244	0.0007
636.514	0.0006
636.783	0.0004
637.053	0.002
637.322	0.001
637.591	0.0011
637.861	-0.0008
638.13	0.0008
638.399	0.0012
638.668	0.0017
638.937	0.0022
639.206	0.002
639.475	0.0024
639.744	0.0013
640.013	0.0014
640.281	0.0008
640.55	0.0009
640.819	0.0008
641.087	0.001
641.356	0.0014
641.624	0.0015
641.892	0.0014
642.161	0.0008
642.429	0.0015
642.697	0.0015
642.965	0.0007
643.233	-0.0001
643.501	-0.0003
643.769	0.0005
644.037	-0.0002
644.305	-0.001
644.572	0.0001
644.84	-0.0007
645.108	0.0006
645.375	0.0008
645.643	0.0014
645.91	0.0021
646.177	0.0014
646.445	0.0017
646.712	0.0012
646.979	0.0011
647.246	0.0023
647.513	0.0016
647.78	0.0012
648.047	-0.0009
648.314	-0.0003
648.58	-0.0014
648.847	-0.0016
649.114	-0.0025
649.38	-0.0016
649.647	-0.0011
649.913	-0.0015
650.18	0.0005
650.446	0.0006
650.712	0.0015
650.978	0.0014
651.245	0.002
651.511	0.0026
651.777	0.002
652.043	0.0004
652.309	0.0009
652.574	0.0013
652.84	0.0015
653.106	0.0026
653.371	0.0029
653.637	0.0024
653.903	0.0017
654.168	0.0016
654.433	0.0008
654.699	0.0005
654.964	-0.0003
655.229	-0.0007
655.494	0.0002
655.759	-0.0023
656.024	0.0001
656.289	-0
656.554	0.0031
656.819	0.0027
657.084	0.0019
657.349	0.0016
657.613	0.0016
657.878	-0.0002
658.142	-0.0002
658.407	-0.0006
658.671	0.0009
658.936	0.0004
659.2	0.001
659.464	0.0004
659.728	0.0007
659.992	-0.0004
660.256	-0.0016
660.52	-0.0001
660.784	0
661.048	-0.0007
661.312	-0.0001
661.575	-0
661.839	0.0016
662.103	0.0007
662.366	0.0012
662.63	0.002
662.893	0.0004
663.156	0.0012
663.42	0.0019
663.683	0.0017
663.946	0.0023
664.209	0.002
664.472	0.0022
664.735	0.0014
664.998	0.0027
665.261	0.0029
665.524	0.0027
665.786	0.0029
666.049	0.0018
666.312	0.0015
666.574	0.001
666.837	0.003
667.099	0.0024
667.361	0.0034
667.624	0.0024
667.886	0.0021
668.148	0.0019
668.41	0.0023
668.672	0.0023
668.934	0.0028
669.196	0.0022
669.458	0.0011
669.72	0.0008
669.982	0.0003
670.243	0.0004
670.505	0.0009
670.766	0.0009
671.028	0.0018
671.289	0.002
671.551	0.0018
671.812	0.0005
672.073	0.0013
672.334	0.0005
672.596	0.0007
672.857	0.0012
673.118	0.0025
673.379	0.0026
673.639	0.0016
673.9	0.0016
674.161	0.0011
674.422	0.0017
674.682	0.0002
674.943	-0.0008
675.203	0.0002
675.464	0.0007
675.724	-0.0001
675.985	0.0006
676.245	0.0006
676.505	-0.0001
676.765	0.0003
677.025	0.0005
677.285	-0.0006
677.545	-0.0006
677.805	-0.0008
678.065	0.0006
678.325	0.0015
678.585	0.0029
678.844	0.0028
679.104	0.0035
679.363	0.0041
679.623	0.0036
679.882	0.0033
680.142	0.0033
680.401	0.0031
680.66	0.0038
680.919	0.0027
681.178	0.0031
681.437	0.0028
681.696	0.002
681.955	0.0048
682.214	0.0042
682.473	0.0032
682.732	0.0006
682.99	0.0026
683.249	0.0024
683.508	0.0026
683.766	0.002
684.024	0.0024
684.283	0.0006
684.541	0.0004
684.799	0.0007
685.058	-0.0014
685.316	-0.0014
685.574	-0.0021
685.832	-0.0004
686.09	-0.0014
686.348	-0.0022
686.606	-0.0012
686.863	-0.0014
687.121	-0.0009
687.379	-0.002
687.636	-0.0025
687.894	-0.0016
688.151	-0.0013
688.409	-0.0014
688.666	-0.0007
688.923	-0.0002
689.181	-0.0014
689.438	-0.0011
689.695	-0.0013
689.952	-0.0008
690.209	-0.0013
690.466	-0.0011
690.723	-0.001
690.979	-0.002
691.236	-0.0026
691.493	-0.0028
691.75	-0.0012
692.006	-0.0013
692.263	-0.0023
692.519	-0.0025
692.775	-0.0031
693.032	-0.0034
693.288	-0.0041
693.544	-0.0032
693.8	-0.0013
694.056	-0.0013
694.313	-0.0021
694.568	-0.0012
694.824	-0.0012
695.08	-0.0011
695.336	-0.0009
695.592	-0.0011
695.847	0.0011
696.103	0.0011
696.359	0.0017
696.614	0.0009
696.869	-0.0007
697.125	-0.0024
697.38	-0.0009
697.635	-0.0005
697.891	0.0013
698.146	0.0008
698.401	0.0004
698.656	0.0014
698.911	0.0016
699.166	0.0006
699.42	0.0023
699.675	0.0015
699.93	0.0017
700.185	0.0018
700.439	0.0016
700.694	0.0014
700.948	0.0012
701.203	0.0016
701.457	0.0007
701.711	0.0003
701.965	-0.0004
702.22	-0.0006
702.474	-0.0002
702.728	-0.0006
702.982	0.0005
703.236	0.0001
703.49	0.0001
703.743	-0.0007
703.997	-0.0006
704.251	-0.0006
704.504	0.0012
704.758	0.0012
705.012	0.0019
705.265	0.0027
705.518	0.0015
705.772	0.0021
706.025	0.0027
706.278	0.0008
706.531	0.0003
706.785	-0.0016
707.038	-0.0015
707.291	-0.0006
707.543	-0.0013
707.796	-0.0008
708.049	-0.0007
708.302	-0.0007
708.555	-0.0011
708.807	-0.0007
709.06	0.0004
709.312	0.0019
709.565	0.001
709.817	0.002
710.069	0.0009
710.322	0.0023
710.574	0.0013
710.826	0.0011
711.078	0.0013
711.33	0.0012
711.582	0.0012
711.834	0.0002
712.086	0.0011
712.338	0.0008
712.59	-0.0004
712.841	-0.0015
713.093	0.0002
713.344	0.0002
713.596	-0.0009
713.847	-0.0023
714.099	-0.0022
714.35	-0.0015
714.601	-0.0025
714.853	-0.0028
715.104	-0.0021
715.355	-0.0023
715.606	-0.0006
715.857	0.0005
716.108	0.0001
716.359	0.0013
716.609	-0.0002
716.86	0.0005
717.111	0.0003
717.361	-0.0003
717.612	-0.0002
717.863	0.0002
718.113	0.001
718.363	0.0009
718.614	0.0014
718.864	0.0005
719.114	0.0004
719.364	-0.0008
719.614	-0.0004
719.865	-0.0004
720.114	0.0003
720.364	-0.0003
720.614	-0.0012
720.864	-0.0011
721.114	-0.0026
721.364	-0.0019
721.613	-0.0023
721.863	-0.002
722.112	-0.002
722.362	-0.0012
722.611	-0.0007
722.86	-0.0001
723.11	0.0006
723.359	0.0003
723.608	0.0007
723.857	0.0021
724.106	0.0021
724.355	0.0008
724.604	0.0005
724.853	-0.0007
725.102	-0.0017
725.351	-0.0028
725.599	-0.0033
725.848	-0.0023
726.097	-0.001
726.345	-0.0017
726.594	-0.0008
726.842	-0.0007
727.09	-0.001
727.339	-0.0014
727.587	-0.0023
727.835	-0.0025
728.083	-0.0033
728.331	-0.0033
728.579	-0.0014
728.827	-0.0022
729.075	-0.003
729.323	-0.003
729.571	-0.0035
729.818	-0.0039
730.066	-0.0031
730.314	-0.0024
730.561	-0.0024
730.809	-0.0038
731.056	-0.0036
731.303	-0.0022
731.551	-0.0018
731.798	-0.003
732.045	-0.0009
732.292	-0.002
732.539	-0.0027
732.786	-0.0029
733.033	-0.0026
733.28	-0.0023
733.527	-0.0028
733.774	-0.0031
734.021	-0.003
734.267	-0.0023
734.514	-0.0025
734.76	-0.0023
735.007	-0.0019
735.253	-0.0003
735.5	0.0007
735.746	0.0017
735.992	0.002
736.238	0.0022
736.485	0.0009
736.731	0.0008
736.977	-0.0004
737.223	-0.0006
737.469	-0.0011
737.715	-0.0004
737.96	-0.0004
738.206	-0.0002
738.452	-0.0004
738.697	-0.0008
738.943	-0.0017
739.189	-0.0005
739.434	-0.001
739.679	0.0001
739.925	0.0015
740.17	0.0022
740.415	0.001
740.66	0.0018
740.906	0.0015
741.151	0.0014
741.396	0.0001
741.641	-0.0005
741.886	0.001
742.13	0.0005
742.375	0.0011
742.62	-0.0004
742.865	0.0006
743.109	0.0013
743.354	-0.0003
743.598	-0.0004
743.843	-0.0015
744.087	-0.0012
744.331	-0.0018
744.576	-0.0009
744.82	0.0001
745.064	-0.0001
745.308	0.0002
745.552	-0.0002
745.796	-0.001
746.04	-0.0004
746.284	-0.0004
746.528	0.0002
746.771	-0.0011
747.015	-0.0007
747.259	-0.0025
747.502	-0.0019
747.746	-0.0014
747.989	-0.0004
748.233	-0.0001
748.476	0.0002
748.719	0.001
748.963	0.0008
749.206	0.0009
749.449	0.0002
749.692	0
749.935	0.0004
750.178	-0.0005
750.421	-0.0018
750.664	-0.0006
750.906	-0.0002
751.149	-0.0014
751.392	-0.0005
751.635	-0.0004
751.877	-0.0003
752.12	-0.0001
752.362	0.0001
752.604	0.0009
752.847	0.0001
753.089	-0.0002
753.331	0.0008
753.573	-0.0004
753.816	0.0009
754.058	0.0009
754.3	0.0004
754.542	0.001
754.783	0.0012
755.025	0.0009
755.267	0.0014
755.509	0.001
755.75	-0.0004
755.992	0.0009
756.234	0.0009
756.475	0.0022
756.716	0.001
756.958	0.0008
757.199	0.0017
757.44	0.0016
757.682	0.0002
757.923	0.0017
758.164	0.002
758.405	0.0017
758.646	0.0013
758.887	0.0004
759.128	-0.0001
759.369	-0.001
759.609	-0.0008
759.85	-0.0006
760.091	0.0001
760.331	0.0004
760.572	0.0002
760.812	-0.0002
761.053	0.0009
761.293	0.0014
761.533	0.0009
761.774	0.0013
762.014	0.0012
762.254	0.0011
762.494	0.0012
762.734	0.0009
762.974	0.0005
763.214	0.0007
763.454	0.0003
763.694	0.0009
763.933	0.002
764.173	0.0032
764.413	0.0026
764.652	0.0006
764.892	0.0003
765.131	-0.0003
765.371	-0.0002
765.61	-0.0012
765.849	-0.0024
766.089	-0.0025
766.328	-0.0016
766.567	-0.0034
766.806	-0.0033
767.045	-0.0038
767.284	-0.0019
767.523	-0.0025
767.762	-0.0024
768.001	-0.0018
768.239	-0.0019
768.478	-0.0025
768.717	-0.0022
768.955	-0.0023
769.194	-0.0019
769.432	-0.0017
769.671	-0.0018
769.909	-0.0008
770.148	-0.0019
770.386	-0.0015
770.624	-0.0015
770.862	-0.0018
771.1	-0.0022
771.338	-0.0022
771.576	-0.001
771.814	-0.0002
772.052	-0.0007
772.29	0.0009
772.528	-0.0007
772.765	-0.0009
773.003	0.0007
773.24	0.0003
773.478	0.0003
773.716	0.0014
773.953	0.0018
774.19	0.0013
774.428	0.0029
774.665	0.0024
774.902	0.003
775.139	0.0024
775.376	0.0008
775.613	0.0014
775.85	0.0018
776.087	0.0008
776.324	0.0003
776.561	-0.0007
776.798	0.0005
777.034	-0.0003
777.271	0.0006
777.508	0.0006
777.744	0.0016
777.981	0.001
778.217	0
778.454	-0.0004
778.69	-0.0001
778.926	-0.0004
779.162	0
779.399	0.0009
779.635	-0.0001
779.871	0.0002
780.107	-0.0009
780.343	-0.0016
780.579	-0.0013
780.814	-0.0008
781.05	-0.0014
781.286	-0.0017
781.522	-0.0016
781.757	-0.0019
781.993	-0.0009
782.228	-0.0015
782.464	-0.0004
782.699	-0.001
782.934	-0.0009
783.17	-0.0008
783.405	0.0004
783.64	-0.0001
783.875	-0.0008
784.11	-0.0008
784.345	-0.0006
784.58	-0
784.815	-0.0002
785.05	-0.001
785.285	-0.0013
785.52	-0.0008
785.754	-0.0004
785.989	0.0007
786.223	0.0016
786.458	0.0019
786.692	0.0033
786.927	0.0045
787.161	0.0037
787.396	0.0037
787.63	0.0026
787.864	0.0017
788.098	0.0001
788.332	0.0004
788.566	-0.0006
788.8	-0.0008
789.034	-0.0003
789.268	-0.0012
789.502	-0.0012
789.736	-0.0004
789.969	-0.0008
790.203	-0.0006
790.437	0.0006
790.67	0.001
790.904	0.0019
791.137	0.0031
791.37	0.002
791.604	0.0022
791.837	0.0029
792.07	0.0042
792.303	0.0039
792.537	0.0051
792.77	0.0046
793.003	0.0037
793.236	0.0032
793.469	0.0029
793.701	0.0024
793.934	0.0012
794.167	-0.0003
794.4	0.0004
794.632	0.0004
794.865	-0.0006
795.097	-0.0014
795.33	-0.0016
795.562	-0.0011
795.795	-0.0008
796.027	-0.0002
796.259	0.0006
796.491	0.0004
796.724	0.0015
796.956	0.0017
797.188	0.0008
797.42	0.0012
797.652	0.0014
797.883	0.0013
798.115	0.0023
798.347	0.0016
798.579	0.0012
798.81	0.0011
799.042	0.0013
799.274	0.0025
799.505	0.0027
799.737	0.0017
799.968	0.0016
800.199	0.0015
800.431	0.0026
800.662	0.0012
800.893	0.001
801.124	0.0009
801.355	0.002
801.586	0.0027
801.817	0.0038
802.048	0.0036
802.279	0.0037
802.51	0.0037
802.741	0.005
802.971	0.0045
803.202	0.0033
803.433	0.0031
803.663	0.0033
803.894	0.0021
804.124	0.0021
804.354	0.0032
804.585	0.0047
804.815	0.0039
805.045	0.0051
805.275	0.0035
805.506	0.0377
805.736	-0.1275
805.966	-0.1174
806.196	-0.0569
