Data from 03 0.4 mM K2Cr2O7 0.25 M BQDS 1 M H2SO4 5 min_Absorbance_0264.txt Node
Date: Wed Dec 15 15:30:14 EST 2021
User: kwabilab-user
Spectrometer: HDX00518
Trigger mode: 0
Integration Time (sec): 5.000000E-2
Scans to average: 50
Nonlinearity correction enabled: false
Boxcar width: 0
Storing dark spectrum: false
XAxis mode: Wavelengths
Number of Pixels in Spectrum: 2068
>>>>>Begin Spectral Data<<<<<
195.27	-0.2335
195.642	0.1032
196.014	0.13
196.386	-0.0608
196.758	-0.0473
197.129	0.0087
197.501	-0.0094
197.872	0.0149
198.244	0.0067
198.615	0.0356
198.986	0.0194
199.357	0.0168
199.728	0.0224
200.099	0.0247
200.47	0.0159
200.841	0.0238
201.212	0.0063
201.582	0.0268
201.953	0.0207
202.323	0.0297
202.694	0.0263
203.064	0.0385
203.434	0.0143
203.804	0.0131
204.174	0.0112
204.544	0.0364
204.914	0.005
205.284	0.0102
205.653	0.0088
206.023	0.0112
206.393	0.0137
206.762	0.0287
207.131	0.0162
207.501	0.0239
207.87	0.0343
208.239	0.0091
208.608	0.0255
208.977	0.0126
209.346	0.0191
209.715	0.0287
210.083	0.0171
210.452	0.0143
210.82	0.0407
211.189	0.0044
211.557	0.0353
211.925	0.02
212.294	-0.0002
212.662	0.0261
213.03	0.0224
213.398	0.0125
213.766	0.0113
214.133	0.0205
214.501	0.0214
214.869	0.0443
215.236	0.022
215.604	0.0277
215.971	0.0464
216.338	0.0298
216.705	0.0426
217.072	0.028
217.439	0.038
217.806	0.0509
218.173	0.0687
218.54	0.0497
218.907	0.0749
219.273	0.0633
219.64	0.0887
220.006	0.0758
220.373	0.0873
220.739	0.1059
221.105	0.1254
221.471	0.1444
221.837	0.1603
222.203	0.1797
222.569	0.1936
222.935	0.1921
223.3	0.2205
223.666	0.2491
224.031	0.248
224.397	0.3042
224.762	0.2925
225.127	0.3428
225.493	0.3498
225.858	0.3899
226.223	0.4068
226.588	0.4314
226.952	0.4288
227.317	0.4723
227.682	0.4739
228.046	0.4807
228.411	0.5058
228.775	0.5231
229.14	0.5186
229.504	0.5398
229.868	0.5678
230.232	0.546
230.596	0.5673
230.96	0.5786
231.324	0.5648
231.688	0.5762
232.052	0.6008
232.415	0.5843
232.779	0.6035
233.142	0.6101
233.505	0.5993
233.869	0.6075
234.232	0.593
234.595	0.5977
234.958	0.6042
235.321	0.6003
235.684	0.5976
236.047	0.5917
236.409	0.5977
236.772	0.592
237.134	0.5866
237.497	0.5792
237.859	0.5918
238.222	0.5754
238.584	0.5757
238.946	0.5657
239.308	0.5687
239.67	0.5676
240.032	0.5671
240.393	0.5498
240.755	0.5531
241.117	0.555
241.478	0.5526
241.84	0.5491
242.201	0.5377
242.562	0.5309
242.924	0.5341
243.285	0.5288
243.646	0.5254
244.007	0.518
244.368	0.5155
244.728	0.515
245.089	0.5109
245.45	0.5129
245.81	0.5006
246.171	0.4999
246.531	0.5005
246.891	0.4966
247.252	0.504
247.612	0.5028
247.972	0.4975
248.332	0.492
248.692	0.4879
249.051	0.489
249.411	0.4837
249.771	0.484
250.13	0.4825
250.49	0.478
250.849	0.4812
251.208	0.4814
251.568	0.4776
251.927	0.4728
252.286	0.476
252.645	0.4701
253.004	0.4705
253.363	0.4716
253.721	0.4707
254.08	0.4694
254.439	0.468
254.797	0.4559
255.155	0.4651
255.514	0.4606
255.872	0.463
256.23	0.4599
256.588	0.4648
256.946	0.4643
257.304	0.4628
257.662	0.4563
258.02	0.4594
258.377	0.4545
258.735	0.4473
259.093	0.4512
259.45	0.4532
259.807	0.4524
260.165	0.4531
260.522	0.4506
260.879	0.4437
261.236	0.4445
261.593	0.4412
261.95	0.4411
262.306	0.4448
262.663	0.4403
263.02	0.4363
263.376	0.4361
263.733	0.4352
264.089	0.4327
264.445	0.4333
264.802	0.4317
265.158	0.4269
265.514	0.4279
265.87	0.4253
266.226	0.4229
266.581	0.4212
266.937	0.4245
267.293	0.4195
267.648	0.4186
268.004	0.4148
268.359	0.4134
268.714	0.4086
269.07	0.4106
269.425	0.4069
269.78	0.4068
270.135	0.4027
270.49	0.4001
270.844	0.3994
271.199	0.3982
271.554	0.3962
271.908	0.3909
272.263	0.3882
272.617	0.3903
272.972	0.3846
273.326	0.3857
273.68	0.38
274.034	0.3791
274.388	0.3765
274.742	0.379
275.096	0.375
275.45	0.3712
275.803	0.3663
276.157	0.3623
276.51	0.3592
276.864	0.3609
277.217	0.3554
277.571	0.3557
277.924	0.3513
278.277	0.351
278.63	0.3437
278.983	0.3387
279.336	0.3381
279.688	0.3344
280.041	0.3355
280.394	0.3304
280.746	0.3244
281.099	0.322
281.451	0.3196
281.803	0.3178
282.156	0.3138
282.508	0.3095
282.86	0.309
283.212	0.3066
283.564	0.3009
283.916	0.2968
284.267	0.2954
284.619	0.294
284.971	0.2883
285.322	0.2859
285.673	0.2836
286.025	0.2792
286.376	0.2773
286.727	0.2729
287.078	0.2701
287.429	0.2695
287.78	0.2637
288.131	0.2618
288.482	0.2563
288.833	0.2532
289.183	0.2541
289.534	0.2472
289.884	0.2451
290.235	0.2425
290.585	0.2404
290.935	0.2368
291.285	0.2342
291.635	0.2308
291.985	0.2291
292.335	0.2239
292.685	0.222
293.035	0.2183
293.384	0.2159
293.734	0.2122
294.083	0.2107
294.433	0.2078
294.782	0.205
295.131	0.2004
295.48	0.1991
295.829	0.1959
296.179	0.1938
296.527	0.1896
296.876	0.188
297.225	0.1839
297.574	0.183
297.922	0.1799
298.271	0.1754
298.619	0.1731
298.968	0.1722
299.316	0.1691
299.664	0.1673
300.012	0.1641
300.36	0.1614
300.708	0.1598
301.056	0.1574
301.404	0.1553
301.752	0.1523
302.099	0.1503
302.447	0.1492
302.794	0.1465
303.142	0.1443
303.489	0.1426
303.836	0.1407
304.183	0.1389
304.531	0.1372
304.878	0.135
305.224	0.1339
305.571	0.1319
305.918	0.1302
306.265	0.1291
306.611	0.1273
306.958	0.1272
307.304	0.1253
307.651	0.1246
307.997	0.1231
308.343	0.1222
308.689	0.1223
309.035	0.1204
309.381	0.1187
309.727	0.1182
310.073	0.1175
310.419	0.1167
310.764	0.1165
311.11	0.1145
311.455	0.1148
311.801	0.1138
312.146	0.1135
312.491	0.1133
312.837	0.1124
313.182	0.1115
313.527	0.1116
313.872	0.1116
314.216	0.1118
314.561	0.1114
314.906	0.1104
315.251	0.1106
315.595	0.1117
315.94	0.1106
316.284	0.1109
316.628	0.1113
316.972	0.1107
317.317	0.1115
317.661	0.1114
318.005	0.1118
318.348	0.1118
318.692	0.1116
319.036	0.1119
319.38	0.1134
319.723	0.1126
320.067	0.1143
320.41	0.1141
320.754	0.1147
321.097	0.114
321.44	0.1153
321.783	0.1154
322.126	0.1172
322.469	0.1163
322.812	0.1176
323.155	0.1184
323.498	0.1181
323.84	0.119
324.183	0.1209
324.525	0.1215
324.868	0.1222
325.21	0.123
325.552	0.1242
325.894	0.1254
326.236	0.1251
326.578	0.126
326.92	0.1265
327.262	0.1267
327.604	0.128
327.946	0.129
328.287	0.1303
328.629	0.1312
328.97	0.1322
329.312	0.1332
329.653	0.134
329.994	0.1352
330.335	0.1357
330.676	0.1369
331.017	0.1378
331.358	0.1382
331.699	0.1402
332.04	0.1407
332.38	0.1417
332.721	0.1429
333.061	0.1435
333.402	0.145
333.742	0.1452
334.083	0.1463
334.423	0.1471
334.763	0.1491
335.103	0.1495
335.443	0.1504
335.783	0.1519
336.123	0.1513
336.462	0.1525
336.802	0.1533
337.141	0.1543
337.481	0.1548
337.82	0.1563
338.16	0.157
338.499	0.1579
338.838	0.1575
339.177	0.1584
339.516	0.1597
339.855	0.1606
340.194	0.1618
340.533	0.1614
340.872	0.1619
341.21	0.1627
341.549	0.1624
341.887	0.164
342.226	0.1634
342.564	0.1646
342.902	0.1658
343.24	0.1653
343.578	0.166
343.916	0.1657
344.254	0.1665
344.592	0.1668
344.93	0.1663
345.268	0.1663
345.605	0.1673
345.943	0.1672
346.28	0.1678
346.618	0.1675
346.955	0.1675
347.292	0.1682
347.629	0.1678
347.966	0.1677
348.303	0.1681
348.64	0.1689
348.977	0.1684
349.314	0.1689
349.65	0.1683
349.987	0.1687
350.324	0.1679
350.66	0.1684
350.996	0.1678
351.333	0.1675
351.669	0.1674
352.005	0.167
352.341	0.1664
352.677	0.1657
353.013	0.1645
353.349	0.1646
353.685	0.1644
354.02	0.1628
354.356	0.1621
354.691	0.161
355.027	0.1615
355.362	0.1609
355.697	0.1591
356.033	0.1597
356.368	0.1586
356.703	0.158
357.038	0.1577
357.373	0.1566
357.707	0.1567
358.042	0.1558
358.377	0.1549
358.711	0.1552
359.046	0.1538
359.38	0.1531
359.715	0.1523
360.049	0.1518
360.383	0.1496
360.717	0.1494
361.051	0.1489
361.385	0.1473
361.719	0.1469
362.053	0.1463
362.387	0.1446
362.72	0.1444
363.054	0.1424
363.387	0.1416
363.721	0.1404
364.054	0.1391
364.387	0.1382
364.721	0.1369
365.054	0.1358
365.387	0.134
365.72	0.1339
366.053	0.1322
366.385	0.1312
366.718	0.1305
367.051	0.1287
367.383	0.1273
367.716	0.1277
368.048	0.1268
368.381	0.1261
368.713	0.1243
369.045	0.1243
369.377	0.1231
369.709	0.1218
370.041	0.1211
370.373	0.12
370.705	0.1194
371.037	0.1184
371.368	0.1168
371.7	0.1162
372.031	0.1151
372.363	0.1135
372.694	0.1122
373.025	0.1107
373.356	0.1097
373.688	0.1081
374.019	0.1081
374.35	0.1054
374.68	0.1047
375.011	0.1032
375.342	0.1017
375.673	0.1008
376.003	0.0989
376.334	0.0983
376.664	0.0967
376.995	0.0957
377.325	0.0951
377.655	0.0935
377.985	0.0919
378.315	0.0913
378.645	0.0911
378.975	0.0898
379.305	0.0889
379.635	0.0881
379.964	0.0877
380.294	0.0864
380.623	0.0862
380.953	0.0843
381.282	0.0838
381.611	0.0836
381.941	0.0825
382.27	0.0815
382.599	0.0803
382.928	0.0786
383.257	0.0785
383.585	0.0778
383.914	0.0763
384.243	0.0745
384.571	0.0738
384.9	0.0728
385.228	0.072
385.557	0.0709
385.885	0.07
386.213	0.0689
386.541	0.0673
386.869	0.0672
387.197	0.0654
387.525	0.0647
387.853	0.0632
388.181	0.0626
388.508	0.0617
388.836	0.0607
389.164	0.0602
389.491	0.0592
389.818	0.0578
390.146	0.057
390.473	0.0565
390.8	0.0564
391.127	0.0552
391.454	0.0547
391.781	0.0544
392.108	0.0533
392.435	0.0518
392.761	0.0514
393.088	0.0516
393.415	0.0513
393.741	0.0502
394.067	0.0509
394.394	0.0495
394.72	0.0491
395.046	0.0476
395.372	0.0473
395.698	0.0471
396.024	0.0462
396.35	0.0457
396.676	0.0449
397.001	0.0443
397.327	0.0436
397.653	0.0426
397.978	0.0423
398.303	0.0411
398.629	0.0414
398.954	0.0405
399.279	0.0409
399.604	0.0396
399.929	0.0394
400.254	0.0381
400.579	0.0382
400.904	0.0371
401.229	0.0373
401.553	0.037
401.878	0.0374
402.202	0.0369
402.527	0.0358
402.851	0.0365
403.175	0.0352
403.5	0.0354
403.824	0.0345
404.148	0.0345
404.472	0.0344
404.796	0.0344
405.119	0.0339
405.443	0.0341
405.767	0.0332
406.09	0.0333
406.414	0.0322
406.737	0.0332
407.061	0.033
407.384	0.0331
407.707	0.0329
408.03	0.0322
408.353	0.032
408.676	0.0317
408.999	0.032
409.322	0.0315
409.645	0.0316
409.968	0.0325
410.29	0.0319
410.613	0.0327
410.935	0.0313
411.258	0.0312
411.58	0.031
411.902	0.031
412.224	0.0311
412.546	0.0311
412.868	0.0318
413.19	0.0308
413.512	0.031
413.834	0.0309
414.156	0.0315
414.477	0.03
414.799	0.0313
415.121	0.0303
415.442	0.0309
415.763	0.0305
416.085	0.0307
416.406	0.0308
416.727	0.0315
417.048	0.0309
417.369	0.0308
417.69	0.0303
418.011	0.0307
418.331	0.0309
418.652	0.0309
418.973	0.0303
419.293	0.0304
419.614	0.0303
419.934	0.0307
420.254	0.0307
420.574	0.0299
420.895	0.0302
421.215	0.0301
421.535	0.0304
421.855	0.0297
422.174	0.0294
422.494	0.03
422.814	0.0298
423.134	0.0307
423.453	0.0299
423.773	0.0307
424.092	0.0297
424.411	0.03
424.731	0.0299
425.05	0.0305
425.369	0.0301
425.688	0.0304
426.007	0.0301
426.326	0.0306
426.644	0.0304
426.963	0.0303
427.282	0.0302
427.6	0.0306
427.919	0.0303
428.237	0.0309
428.556	0.0309
428.874	0.0299
429.192	0.0309
429.51	0.0302
429.828	0.0303
430.146	0.0302
430.464	0.03
430.782	0.0302
431.1	0.0294
431.418	0.0297
431.735	0.0297
432.053	0.0301
432.37	0.03
432.688	0.03
433.005	0.0298
433.322	0.0303
433.639	0.0305
433.957	0.031
434.274	0.0306
434.591	0.0308
434.907	0.0299
435.224	0.0303
435.541	0.0303
435.858	0.0308
436.174	0.0296
436.491	0.0299
436.807	0.0298
437.124	0.0295
437.44	0.0303
437.756	0.0301
438.072	0.0296
438.388	0.0295
438.704	0.0299
439.02	0.029
439.336	0.0294
439.652	0.0299
439.968	0.0293
440.283	0.0302
440.599	0.0294
440.914	0.03
441.23	0.0295
441.545	0.0302
441.86	0.0293
442.175	0.0298
442.491	0.0291
442.806	0.0285
443.121	0.0285
443.435	0.0289
443.75	0.0289
444.065	0.0288
444.38	0.0289
444.694	0.0284
445.009	0.0286
445.323	0.0291
445.638	0.0285
445.952	0.0285
446.266	0.0275
446.58	0.0268
446.894	0.0276
447.208	0.0276
447.522	0.0272
447.836	0.0282
448.15	0.0274
448.464	0.0268
448.777	0.0281
449.091	0.0271
449.404	0.0267
449.718	0.0272
450.031	0.0277
450.345	0.0276
450.658	0.0265
450.971	0.0273
451.284	0.027
451.597	0.0269
451.91	0.0266
452.223	0.0266
452.535	0.0266
452.848	0.0258
453.161	0.0261
453.473	0.0264
453.786	0.0263
454.098	0.026
454.411	0.0264
454.723	0.0267
455.035	0.0256
455.347	0.0251
455.659	0.0255
455.971	0.0258
456.283	0.0264
456.595	0.0267
456.907	0.0261
457.218	0.0266
457.53	0.025
457.841	0.0248
458.153	0.0246
458.464	0.025
458.776	0.0254
459.087	0.0247
459.398	0.0247
459.709	0.0244
460.02	0.0246
460.331	0.0248
460.642	0.024
460.953	0.0235
461.263	0.0236
461.574	0.0232
461.885	0.0242
462.195	0.0239
462.506	0.0239
462.816	0.024
463.126	0.0238
463.437	0.0238
463.747	0.0224
464.057	0.022
464.367	0.0213
464.677	0.0225
464.987	0.022
465.296	0.0217
465.606	0.0222
465.916	0.0214
466.225	0.0207
466.535	0.0209
466.844	0.022
467.154	0.0222
467.463	0.0218
467.772	0.021
468.081	0.0218
468.39	0.0218
468.699	0.0209
469.008	0.0211
469.317	0.0206
469.626	0.021
469.935	0.0201
470.243	0.021
470.552	0.0204
470.86	0.0209
471.169	0.0202
471.477	0.0194
471.785	0.0196
472.093	0.0188
472.402	0.0192
472.71	0.0185
473.018	0.0182
473.326	0.0195
473.633	0.0197
473.941	0.0185
474.249	0.0187
474.556	0.018
474.864	0.019
475.171	0.0178
475.479	0.0176
475.786	0.0183
476.094	0.0181
476.401	0.0179
476.708	0.0173
477.015	0.0176
477.322	0.0161
477.629	0.0163
477.936	0.0177
478.242	0.0167
478.549	0.0171
478.856	0.0165
479.162	0.0166
479.469	0.0164
479.775	0.0158
480.081	0.0153
480.388	0.0154
480.694	0.0155
481	0.015
481.306	0.0156
481.612	0.016
481.918	0.0163
482.224	0.0152
482.53	0.0151
482.835	0.0151
483.141	0.0153
483.446	0.0151
483.752	0.0142
484.057	0.0138
484.363	0.0135
484.668	0.0145
484.973	0.0132
485.278	0.0132
485.583	0.0123
485.888	0.0126
486.193	0.0118
486.498	0.0132
486.803	0.0127
487.107	0.0117
487.412	0.0119
487.717	0.0122
488.021	0.0126
488.325	0.0119
488.63	0.0128
488.934	0.0118
489.238	0.0112
489.542	0.0114
489.846	0.0117
490.15	0.012
490.454	0.0125
490.758	0.0117
491.062	0.0114
491.366	0.0108
491.669	0.0103
491.973	0.0111
492.276	0.0103
492.58	0.0096
492.883	0.0113
493.186	0.0101
493.489	0.0111
493.792	0.0093
494.096	0.0093
494.399	0.0103
494.701	0.0092
495.004	0.0087
495.307	0.0095
495.61	0.0092
495.912	0.0103
496.215	0.0093
496.517	0.0096
496.82	0.0087
497.122	0.0088
497.424	0.0089
497.727	0.0086
498.029	0.0085
498.331	0.009
498.633	0.0089
498.935	0.0082
499.237	0.0089
499.538	0.0081
499.84	0.0081
500.142	0.0079
500.443	0.0083
500.745	0.0088
501.046	0.0086
501.348	0.0072
501.649	0.0068
501.95	0.0072
502.251	0.0079
502.552	0.0069
502.853	0.0075
503.154	0.0079
503.455	0.0067
503.756	0.0076
504.057	0.0067
504.357	0.0072
504.658	0.0072
504.958	0.0057
505.259	0.0065
505.559	0.0061
505.859	0.0059
506.16	0.0064
506.46	0.006
506.76	0.0064
507.06	0.0054
507.36	0.0055
507.66	0.0075
507.96	0.0075
508.259	0.0056
508.559	0.0052
508.859	0.0061
509.158	0.0062
509.457	0.0049
509.757	0.0053
510.056	0.0056
510.355	0.0064
510.655	0.0054
510.954	0.0049
511.253	0.0055
511.552	0.0065
511.851	0.0057
512.149	0.005
512.448	0.0039
512.747	0.0043
513.045	0.0052
513.344	0.0053
513.642	0.0053
513.941	0.0056
514.239	0.0043
514.537	0.0047
514.836	0.0047
515.134	0.0049
515.432	0.0042
515.73	0.0044
516.028	0.0037
516.326	0.003
516.623	0.0037
516.921	0.0034
517.219	0.0056
517.516	0.0045
517.814	0.0052
518.111	0.0041
518.409	0.0053
518.706	0.0044
519.003	0.0038
519.3	0.0037
519.597	0.0035
519.894	0.0036
520.191	0.0052
520.488	0.0038
520.785	0.0039
521.082	0.0053
521.378	0.0051
521.675	0.0038
521.971	0.0035
522.268	0.0054
522.564	0.0043
522.861	0.0048
523.157	0.0035
523.453	0.0044
523.749	0.0039
524.045	0.0037
524.341	0.0039
524.637	0.0032
524.933	0.0036
525.229	0.0043
525.524	0.0036
525.82	0.0042
526.115	0.0042
526.411	0.0043
526.706	0.0037
527.002	0.0035
527.297	0.0026
527.592	0.0042
527.887	0.0024
528.182	0.0026
528.477	0.0047
528.772	0.0023
529.067	0.0031
529.362	0.004
529.657	0.003
529.951	0.0037
530.246	0.0034
530.54	0.0033
530.835	0.0036
531.129	0.0037
531.423	0.004
531.718	0.0032
532.012	0.0031
532.306	0.0047
532.6	0.0035
532.894	0.0039
533.188	0.0027
533.482	0.0041
533.775	0.0036
534.069	0.0034
534.363	0.0031
534.656	0.0028
534.95	0.0028
535.243	0.003
535.536	0.0024
535.83	0.0023
536.123	0.0027
536.416	0.003
536.709	0.0032
537.002	0.0038
537.295	0.0033
537.588	0.0035
537.881	0.0024
538.173	0.0026
538.466	0.0034
538.759	0.0028
539.051	0.0038
539.344	0.0039
539.636	0.0034
539.928	0.0035
540.22	0.0027
540.513	0.0037
540.805	0.0038
541.097	0.0031
541.389	0.0031
541.681	0.0038
541.972	0.0032
542.264	0.0031
542.556	0.0037
542.847	0.0035
543.139	0.0034
543.431	0.0036
543.722	0.0024
544.013	0.0027
544.305	0.0031
544.596	0.003
544.887	0.0032
545.178	0.0046
545.469	0.004
545.76	0.0034
546.051	0.0032
546.342	0.0034
546.632	0.0047
546.923	0.0027
547.214	0.0029
547.504	0.0038
547.795	0.0037
548.085	0.0037
548.375	0.0046
548.666	0.0043
548.956	0.0032
549.246	0.0058
549.536	0.0048
549.826	0.0051
550.116	0.0047
550.406	0.0045
550.695	0.0046
550.985	0.0045
551.275	0.0043
551.564	0.0057
551.854	0.0054
552.143	0.005
552.433	0.0042
552.722	0.0049
553.011	0.0044
553.3	0.0036
553.589	0.0049
553.879	0.0046
554.167	0.0046
554.456	0.0046
554.745	0.0042
555.034	0.0049
555.323	0.0039
555.611	0.0037
555.9	0.0034
556.188	0.003
556.477	0.0025
556.765	0.0037
557.053	0.0039
557.342	0.0035
557.63	0.0036
557.918	0.0043
558.206	0.0055
558.494	0.0052
558.782	0.0039
559.069	0.0057
559.357	0.0044
559.645	0.0046
559.932	0.0042
560.22	0.0037
560.507	0.0027
560.795	0.0024
561.082	0.0026
561.37	0.0031
561.657	0.0025
561.944	0.0034
562.231	0.0032
562.518	0.0036
562.805	0.005
563.092	0.003
563.379	0.0031
563.665	0.0035
563.952	0.0038
564.239	0.0044
564.525	0.0041
564.811	0.0035
565.098	0.0034
565.384	0.0038
565.67	0.0045
565.957	0.0047
566.243	0.0055
566.529	0.0043
566.815	0.0045
567.101	0.0057
567.387	0.0032
567.672	0.0036
567.958	0.0033
568.244	0.0032
568.529	0.0039
568.815	0.0043
569.1	0.0028
569.386	0.0043
569.671	0.0035
569.956	0.0031
570.242	0.0036
570.527	0.003
570.812	0.0027
571.097	0.002
571.382	0.0015
571.666	0.002
571.951	0.0029
572.236	0.0028
572.521	0.0033
572.805	0.0041
573.09	0.0035
573.374	0.0022
573.659	0.0017
573.943	0.003
574.227	0.0025
574.511	0.0025
574.795	0.0031
575.079	0.0028
575.363	0.0031
575.647	0.0029
575.931	0.0036
576.215	0.0036
576.499	0.0018
576.782	0.0024
577.066	0.0022
577.349	0.0031
577.633	0.0033
577.916	0.0031
578.2	0.0028
578.483	0.0031
578.766	0.0037
579.049	0.0032
579.332	0.0033
579.615	0.0027
579.898	0.0025
580.181	0.0034
580.464	0.0026
580.746	0.003
581.029	0.0032
581.312	0.0022
581.594	0.0015
581.877	0.0023
582.159	0.0036
582.441	0.002
582.724	0.0032
583.006	0.0037
583.288	0.0039
583.57	0.0035
583.852	0.0037
584.134	0.0043
584.416	0.0025
584.697	0.003
584.979	0.0023
585.261	0.0024
585.542	0.0025
585.824	0.0031
586.105	0.0031
586.387	0.0032
586.668	0.0033
586.949	0.0034
587.231	0.0032
587.512	0.0028
587.793	0.003
588.074	0.004
588.355	0.0037
588.636	0.003
588.916	0.0039
589.197	0.0029
589.478	0.0037
589.758	0.0029
590.039	0.0025
590.319	0.0019
590.6	0.003
590.88	0.0026
591.16	0.0031
591.441	0.0036
591.721	0.0026
592.001	0.0025
592.281	0.0029
592.561	0.0031
592.841	0.0025
593.12	0.0025
593.4	0.0024
593.68	0.0032
593.959	0.0026
594.239	0.0038
594.518	0.0042
594.798	0.0043
595.077	0.0027
595.356	0.0029
595.636	0.0029
595.915	0.0031
596.194	0.0034
596.473	0.0035
596.752	0.0028
597.031	0.0029
597.31	0.0027
597.588	0.0025
597.867	0.0027
598.146	0.0019
598.424	0.0016
598.703	0.0019
598.981	0.0018
599.259	0.0017
599.538	0.003
599.816	0.0034
600.094	0.0029
600.372	0.0028
600.65	0.0034
600.928	0.0035
601.206	0.0031
601.484	0.0026
601.762	0.0036
602.04	0.0046
602.317	0.0036
602.595	0.0049
602.872	0.0039
603.15	0.0045
603.427	0.0015
603.704	0.0021
603.982	0.0015
604.259	0.0016
604.536	0.0018
604.813	0.0016
605.09	0.0023
605.367	0.0019
605.644	0.0015
605.921	0.0014
606.197	0.0015
606.474	0.0026
606.751	0.0014
607.027	0.0022
607.304	0.002
607.58	0.0027
607.856	0.003
608.133	0.0036
608.409	0.004
608.685	0.0038
608.961	0.0029
609.237	0.0038
609.513	0.0041
609.789	0.0028
610.065	0.0029
610.341	0.0023
610.616	0.0033
610.892	0.0031
611.167	0.0032
611.443	0.0037
611.718	0.0029
611.994	0.004
612.269	0.0026
612.544	0.0036
612.819	0.002
613.095	0.0017
613.37	0.002
613.645	0.0017
613.919	0.0034
614.194	0.0026
614.469	0.003
614.744	0.0018
615.019	0.0016
615.293	0.0013
615.568	0.0021
615.842	0.0023
616.116	0.002
616.391	0.0009
616.665	0.001
616.939	0.0009
617.213	0.002
617.488	0.0025
617.762	0.0023
618.035	0.003
618.309	0.0035
618.583	0.004
618.857	0.0035
619.131	0.0035
619.404	0.0033
619.678	0.004
619.951	0.0032
620.225	0.0024
620.498	0.0016
620.771	0.0021
621.045	0.0018
621.318	0.0026
621.591	0.0031
621.864	0.0016
622.137	0.0013
622.41	0.0023
622.683	0.0024
622.956	0.0018
623.228	0.0029
623.501	0.0037
623.774	0.0031
624.046	0.0037
624.319	0.0034
624.591	0.0035
624.863	0.0031
625.136	0.0037
625.408	0.0043
625.68	0.0036
625.952	0.0036
626.224	0.0042
626.496	0.0037
626.768	0.0042
627.04	0.0043
627.311	0.0032
627.583	0.0044
627.855	0.005
628.126	0.0034
628.398	0.0033
628.669	0.0038
628.941	0.0013
629.212	0.0021
629.483	0.0033
629.755	0.0026
630.026	0.0035
630.297	0.003
630.568	0.0038
630.839	0.0049
631.11	0.0042
631.38	0.005
631.651	0.0045
631.922	0.0052
632.192	0.0042
632.463	0.0042
632.733	0.0041
633.004	0.0037
633.274	0.0042
633.545	0.0041
633.815	0.0057
634.085	0.0054
634.355	0.0045
634.625	0.0045
634.895	0.004
635.165	0.0036
635.435	0.0042
635.705	0.0023
635.974	0.0035
636.244	0.0029
636.514	0.0019
636.783	0.0021
637.053	0.0028
637.322	0.0023
637.591	0.0029
637.861	0.0012
638.13	0.0019
638.399	0.0032
638.668	0.0031
638.937	0.0042
639.206	0.0047
639.475	0.0051
639.744	0.0049
640.013	0.0036
640.281	0.003
640.55	0.0036
640.819	0.0037
641.087	0.0034
641.356	0.0035
641.624	0.0036
641.892	0.0042
642.161	0.0051
642.429	0.0053
642.697	0.0053
642.965	0.0038
643.233	0.0033
643.501	0.0029
643.769	0.0027
644.037	0.0031
644.305	0.0027
644.572	0.0027
644.84	0.0018
645.108	0.0028
645.375	0.003
645.643	0.0035
645.91	0.0029
646.177	0.0032
646.445	0.0019
646.712	0.0032
646.979	0.0028
647.246	0.0035
647.513	0.0031
647.78	0.0031
648.047	0.0017
648.314	0.0017
648.58	0.0007
648.847	-0.0007
649.114	-0.0011
649.38	-0.0005
649.647	-0.0003
649.913	0.0008
650.18	0.0024
650.446	0.0034
650.712	0.0035
650.978	0.0039
651.245	0.0044
651.511	0.0038
651.777	0.0045
652.043	0.0033
652.309	0.0031
652.574	0.003
652.84	0.0042
653.106	0.0042
653.371	0.0043
653.637	0.0053
653.903	0.0052
654.168	0.0052
654.433	0.0047
654.699	0.0038
654.964	0.0031
655.229	0.0027
655.494	0.0034
655.759	0.0001
656.024	0.0001
656.289	-0
656.554	0.0007
656.819	0.004
657.084	0.0046
657.349	0.0057
657.613	0.0045
657.878	0.0033
658.142	0.0027
658.407	0.0027
658.671	0.0032
658.936	0.0029
659.2	0.0034
659.464	0.0031
659.728	0.0036
659.992	0.0023
660.256	0.0009
660.52	0.0022
660.784	0.003
661.048	0.0029
661.312	0.0026
661.575	0.0042
661.839	0.0054
662.103	0.0042
662.366	0.0036
662.63	0.0044
662.893	0.0025
663.156	0.0036
663.42	0.0043
663.683	0.0043
663.946	0.0056
664.209	0.0057
664.472	0.0053
664.735	0.005
664.998	0.0062
665.261	0.006
665.524	0.0055
665.786	0.0052
666.049	0.0056
666.312	0.0052
666.574	0.0045
666.837	0.0053
667.099	0.0045
667.361	0.0054
667.624	0.0046
667.886	0.0046
668.148	0.0055
668.41	0.0047
668.672	0.0059
668.934	0.0057
669.196	0.0042
669.458	0.0037
669.72	0.0032
669.982	0.0039
670.243	0.0026
670.505	0.0031
670.766	0.0023
671.028	0.0032
671.289	0.0036
671.551	0.0041
671.812	0.0023
672.073	0.0033
672.334	0.0038
672.596	0.0027
672.857	0.0036
673.118	0.0039
673.379	0.0059
673.639	0.0051
673.9	0.0048
674.161	0.0048
674.422	0.0059
674.682	0.0051
674.943	0.0035
675.203	0.0045
675.464	0.0041
675.724	0.0038
675.985	0.0036
676.245	0.0034
676.505	0.0024
676.765	0.0022
677.025	0.0035
677.285	0.0023
677.545	0.0029
677.805	0.003
678.065	0.0029
678.325	0.0038
678.585	0.0046
678.844	0.0048
679.104	0.0055
679.363	0.006
679.623	0.0056
679.882	0.0052
680.142	0.0057
680.401	0.0056
680.66	0.0067
680.919	0.0047
681.178	0.0059
681.437	0.0047
681.696	0.0033
681.955	0.0063
682.214	0.0057
682.473	0.0057
682.732	0.0036
682.99	0.0065
683.249	0.0064
683.508	0.0056
683.766	0.0056
684.024	0.0047
684.283	0.0043
684.541	0.0029
684.799	0.0029
685.058	0.0004
685.316	-0.0002
685.574	-0.0002
685.832	0.0004
686.09	0.0011
686.348	0.001
686.606	0.0016
686.863	0.0019
687.121	0.0026
687.379	0.0023
687.636	0.0012
687.894	0.0017
688.151	0.0016
688.409	0.0026
688.666	0.0026
688.923	0.0026
689.181	0.0029
689.438	0.002
689.695	0.0021
689.952	0.0019
690.209	0.0014
690.466	0.0012
690.723	0.0017
690.979	0.0023
691.236	0.0017
691.493	-0.0008
691.75	0.0002
692.006	0.0007
692.263	-0.0002
692.519	0.0001
692.775	-0.0011
693.032	-0.0007
693.288	-0.001
693.544	-0.0014
693.8	0.0007
694.056	0.0016
694.313	0.0006
694.568	0.0019
694.824	0.0017
695.08	0.0006
695.336	0.0018
695.592	0.0009
695.847	0.0019
696.103	0.0029
696.359	0.0039
696.614	0.0035
696.869	0.0018
697.125	0.0001
697.38	-0.0002
697.635	0.0014
697.891	0.0033
698.146	0.0024
698.401	0.0029
698.656	0.0015
698.911	0.0027
699.166	0.0017
699.42	0.0036
699.675	0.0047
699.93	0.0044
700.185	0.0042
700.439	0.0037
700.694	0.0035
700.948	0.0025
701.203	0.0032
701.457	0.0027
701.711	0.003
701.965	0.0016
702.22	0.0011
702.474	0.0007
702.728	0.0012
702.982	0.0015
703.236	0.003
703.49	0.0033
703.743	0.0024
703.997	0.0023
704.251	0.0022
704.504	0.0017
704.758	0.0014
705.012	0.0009
705.265	0.0029
705.518	0.0029
705.772	0.0034
706.025	0.0028
706.278	0.0029
706.531	0.0026
706.785	0.001
707.038	0.0002
707.291	0.0008
707.543	0.0001
707.796	0.0009
708.049	0.001
708.302	0.0003
708.555	0.0005
708.807	0.0013
709.06	0.0023
709.312	0.0033
709.565	0.0033
709.817	0.0053
710.069	0.0036
710.322	0.0041
710.574	0.0035
710.826	0.0033
711.078	0.0017
711.33	0.0013
711.582	0.0017
711.834	0.0011
712.086	0.0019
712.338	0.0011
712.59	0.0005
712.841	-0.0005
713.093	-0.0005
713.344	0.0002
713.596	-0.0002
713.847	-0.0011
714.099	0.0003
714.35	0.0006
714.601	-0.0001
714.853	-0
715.104	0.0002
715.355	0.0001
715.606	0.0013
715.857	0.0018
716.108	0.0027
716.359	0.0035
716.609	0.0019
716.86	0.0039
717.111	0.0029
717.361	0.0027
717.612	0.0029
717.863	0.0028
718.113	0.0037
718.363	0.002
718.614	0.0028
718.864	0.0035
719.114	0.0024
719.364	0.0027
719.614	0.002
719.865	0.0031
720.114	0.0039
720.364	0.0037
720.614	0.0031
720.864	0.0033
721.114	0.001
721.364	0.0012
721.613	0.0013
721.863	0.0004
722.112	0.0008
722.362	0.0012
722.611	0.0023
722.86	0.0029
723.11	0.0033
723.359	0.0033
723.608	0.0024
723.857	0.0029
724.106	0.0023
724.355	0.0014
724.604	0.0019
724.853	0.0008
725.102	0.0001
725.351	-0.0017
725.599	-0.0019
725.848	-0.0008
726.097	-0.0003
726.345	-0.0002
726.594	0.0009
726.842	0.0017
727.09	0.0001
727.339	0.0003
727.587	-0.0001
727.835	-0.0005
728.083	-0.0003
728.331	0.0004
728.579	0.0014
728.827	0.0006
729.075	-0.0005
729.323	-0.0015
729.571	-0.0015
729.818	-0.0017
730.066	-0.0018
730.314	-0.0009
730.561	-0.0013
730.809	-0.0016
731.056	-0.0015
731.303	-0.0027
731.551	-0.0019
731.798	-0.0022
732.045	-0.0008
732.292	-0.0003
732.539	-0.0005
732.786	-0.0013
733.033	-0.0015
733.28	-0.0007
733.527	-0.0011
733.774	-0.0018
734.021	-0.0024
734.267	-0.0004
734.514	-0.0013
734.76	-0.001
735.007	-0.0005
735.253	0.0003
735.5	0.0021
735.746	0.0025
735.992	0.0014
736.238	0.002
736.485	0.0013
736.731	0.0029
736.977	0.002
737.223	0.0009
737.469	0.0011
737.715	0.0023
737.96	0.0029
738.206	0.0025
738.452	0.0033
738.697	0.0031
738.943	0.0012
739.189	0.0017
739.434	0.0003
739.679	0.0015
739.925	0.003
740.17	0.0039
740.415	0.003
740.66	0.0029
740.906	0.0024
741.151	0.0031
741.396	0.0018
741.641	0.0016
741.886	0.0008
742.13	0.0008
742.375	0.0016
742.62	0.0004
742.865	-0.0001
743.109	0.0006
743.354	0.0001
743.598	0.0002
743.843	-0.0008
744.087	-0.0011
744.331	-0.0005
744.576	0.0003
744.82	0.0016
745.064	0.0019
745.308	0.0021
745.552	0.0019
745.796	0.0009
746.04	0.0012
746.284	-0.0002
746.528	0.001
746.771	0.0016
747.015	0.0019
747.259	0.001
747.502	0.0016
747.746	0.0009
747.989	0.0025
748.233	0.0038
748.476	0.0026
748.719	0.0032
748.963	0.0025
749.206	0.0016
749.449	0.0008
749.692	0.0006
749.935	0.0011
750.178	0.0016
750.421	0.0011
750.664	0.0019
750.906	0.0021
751.149	0.0006
751.392	0.0016
751.635	0.0014
751.877	0.0016
752.12	0.0027
752.362	0.0029
752.604	0.0023
752.847	0.0014
753.089	0.0012
753.331	0.0018
753.573	0.0022
753.816	0.0027
754.058	0.0026
754.3	0.003
754.542	0.0046
754.783	0.0034
755.025	0.0038
755.267	0.003
755.509	0.0034
755.75	0.0015
755.992	0.002
756.234	0.0021
756.475	0.0031
756.716	0.0033
756.958	0.0021
757.199	0.0027
757.44	0.0026
757.682	0.0029
757.923	0.0026
758.164	0.004
758.405	0.004
758.646	0.0046
758.887	0.0035
759.128	0.0047
759.369	0.0034
759.609	0.0024
759.85	0.0032
760.091	0.0024
760.331	0.0033
760.572	0.003
760.812	0.0016
761.053	0.0019
761.293	0.0029
761.533	0.0037
761.774	0.0044
762.014	0.0042
762.254	0.0036
762.494	0.0035
762.734	0.0025
762.974	0.0031
763.214	0.0028
763.454	0.0029
763.694	0.0033
763.933	0.0042
764.173	0.0052
764.413	0.0043
764.652	0.0019
764.892	0.0011
765.131	0.0011
765.371	0.0006
765.61	0.0005
765.849	-0.0005
766.089	-0.0001
766.328	0.0008
766.567	-0.0004
766.806	-0.0013
767.045	-0.0009
767.284	0.0006
767.523	0.0001
767.762	0.0007
768.001	0.0002
768.239	0.0004
768.478	-0.0008
768.717	-0.0009
768.955	-0.0006
769.194	0.0003
769.432	0.0014
769.671	0.0008
769.909	0.0012
770.148	0.0012
770.386	0.001
770.624	0.0003
770.862	-0.0007
771.1	-0.0009
771.338	-0.0007
771.576	-0.0003
771.814	0.0006
772.052	0.0003
772.29	0.0019
772.528	0.0015
772.765	0.0015
773.003	0.0018
773.24	0.0018
773.478	0.0022
773.716	0.003
773.953	0.0034
774.19	0.0024
774.428	0.0041
774.665	0.0039
774.902	0.0044
775.139	0.0034
775.376	0.0031
775.613	0.0044
775.85	0.0061
776.087	0.006
776.324	0.0052
776.561	0.0051
776.798	0.0046
777.034	0.0041
777.271	0.0038
777.508	0.0027
777.744	0.0044
777.981	0.0048
778.217	0.0039
778.454	0.0039
778.69	0.0042
778.926	0.0034
779.162	0.0041
779.399	0.004
779.635	0.0034
779.871	0.0034
780.107	0.0024
780.343	0.0019
780.579	0.0032
780.814	0.0035
781.05	0.0038
781.286	0.0023
781.522	0.0012
781.757	0.0008
781.993	0.0014
782.228	0.0015
782.464	0.0025
782.699	0.0025
782.934	0.001
783.17	0.0015
783.405	0.0024
783.64	0.0023
783.875	0.002
784.11	0.0013
784.345	0.002
784.58	0.0032
784.815	0.0029
785.05	0.0023
785.285	0.0017
785.52	0.0021
785.754	0.0016
785.989	0.0038
786.223	0.0038
786.458	0.0046
786.692	0.0052
786.927	0.006
787.161	0.0052
787.396	0.0055
787.63	0.0045
787.864	0.0039
788.098	0.0025
788.332	0.0029
788.566	0.0019
788.8	0.0029
789.034	0.0025
789.268	0.002
789.502	0.0027
789.736	0.0031
789.969	0.0029
790.203	0.0028
790.437	0.0037
790.67	0.004
790.904	0.006
791.137	0.0063
791.37	0.0067
791.604	0.0061
791.837	0.0063
792.07	0.0076
792.303	0.0084
792.537	0.0081
792.77	0.0073
793.003	0.0064
793.236	0.0055
793.469	0.0049
793.701	0.0037
793.934	0.0034
794.167	0.0021
794.4	0.0011
794.632	0.0009
794.865	0.0006
795.097	0.001
795.33	0.0011
795.562	0.0009
795.795	0.0009
796.027	0.002
796.259	0.0027
796.491	0.002
796.724	0.0021
796.956	0.002
797.188	0.002
797.42	0.0019
797.652	0.0027
797.883	0.0024
798.115	0.003
798.347	0.0032
798.579	0.0028
798.81	0.003
799.042	0.0023
799.274	0.0042
799.505	0.0028
799.737	0.0024
799.968	0.0014
800.199	0.0014
800.431	0.0024
800.662	0.0008
800.893	0.0017
801.124	0.0023
801.355	0.0025
801.586	0.0039
801.817	0.0057
802.048	0.0063
802.279	0.0057
802.51	0.0073
802.741	0.0069
802.971	0.0067
803.202	0.0054
803.433	0.0042
803.663	0.0042
803.894	0.0035
804.124	0.0028
804.354	0.0041
804.585	0.0048
804.815	0.0049
805.045	0.0055
805.275	0.0043
805.506	-0.0093
805.736	-0.0254
805.966	-0.1424
806.196	0.0731
