Data from 03 0.4 mM K2Cr2O7 0.25 M BQDS 1 M H2SO4 5 min_Absorbance_0175.txt Node
Date: Wed Dec 15 08:05:13 EST 2021
User: kwabilab-user
Spectrometer: HDX00518
Trigger mode: 0
Integration Time (sec): 5.000000E-2
Scans to average: 50
Nonlinearity correction enabled: false
Boxcar width: 0
Storing dark spectrum: false
XAxis mode: Wavelengths
Number of Pixels in Spectrum: 2068
>>>>>Begin Spectral Data<<<<<
195.27	-0.1678
195.642	-0.0028
196.014	-0.2026
196.386	-0.141
196.758	-0.1069
197.129	-0.019
197.501	-0.0223
197.872	0.0039
198.244	0.0055
198.615	0.0332
198.986	0.0206
199.357	0.0023
199.728	0.0374
200.099	0.0094
200.47	0.008
200.841	0.0202
201.212	0.0079
201.582	0.0158
201.953	0.0315
202.323	0.0199
202.694	0.0097
203.064	0.0156
203.434	0.0049
203.804	-0.0041
204.174	0.0108
204.544	0.0427
204.914	0.0149
205.284	0.0119
205.653	0.0111
206.023	0.0151
206.393	0.0311
206.762	0.0078
207.131	0.027
207.501	0.0158
207.87	0.0137
208.239	0.0086
208.608	-0.0036
208.977	0.0075
209.346	-0.0095
209.715	0.0242
210.083	0.0139
210.452	0.0108
210.82	0.028
211.189	0.0044
211.557	0.0182
211.925	0.0214
212.294	0.0276
212.662	0.0066
213.03	0.0145
213.398	0.0144
213.766	0.016
214.133	0.0321
214.501	0.0022
214.869	0.0071
215.236	0.0176
215.604	0.0366
215.971	0.0404
216.338	0.0496
216.705	0.0368
217.072	0.0238
217.439	0.0424
217.806	0.035
218.173	0.0405
218.54	0.0397
218.907	0.0517
219.273	0.0542
219.64	0.0673
220.006	0.0738
220.373	0.0707
220.739	0.1069
221.105	0.1266
221.471	0.1401
221.837	0.1482
222.203	0.1875
222.569	0.1631
222.935	0.1821
223.3	0.2143
223.666	0.2524
224.031	0.263
224.397	0.293
224.762	0.2996
225.127	0.328
225.493	0.3613
225.858	0.3823
226.223	0.3953
226.588	0.4086
226.952	0.4339
227.317	0.4663
227.682	0.4678
228.046	0.4735
228.411	0.502
228.775	0.5094
229.14	0.5247
229.504	0.5434
229.868	0.5529
230.232	0.5508
230.596	0.5728
230.96	0.58
231.324	0.5693
231.688	0.5871
232.052	0.5992
232.415	0.6035
232.779	0.6108
233.142	0.6111
233.505	0.6063
233.869	0.6191
234.232	0.6101
234.595	0.6121
234.958	0.6081
235.321	0.6088
235.684	0.6072
236.047	0.6031
236.409	0.5967
236.772	0.5864
237.134	0.6026
237.497	0.5954
237.859	0.5955
238.222	0.5966
238.584	0.5862
238.946	0.5862
239.308	0.5806
239.67	0.574
240.032	0.5796
240.393	0.5625
240.755	0.5766
241.117	0.5662
241.478	0.5614
241.84	0.5634
242.201	0.5535
242.562	0.5431
242.924	0.5404
243.285	0.537
243.646	0.5384
244.007	0.5413
244.368	0.5367
244.728	0.5368
245.089	0.531
245.45	0.5291
245.81	0.521
246.171	0.5254
246.531	0.5188
246.891	0.5194
247.252	0.521
247.612	0.5176
247.972	0.5155
248.332	0.5113
248.692	0.5113
249.051	0.5103
249.411	0.5064
249.771	0.5042
250.13	0.5056
250.49	0.4995
250.849	0.5012
251.208	0.501
251.568	0.5006
251.927	0.4942
252.286	0.5003
252.645	0.4989
253.004	0.5001
253.363	0.4963
253.721	0.499
254.08	0.4967
254.439	0.4916
254.797	0.4951
255.155	0.4942
255.514	0.4874
255.872	0.4945
256.23	0.4848
256.588	0.4911
256.946	0.4936
257.304	0.4911
257.662	0.4909
258.02	0.4922
258.377	0.4862
258.735	0.4826
259.093	0.4814
259.45	0.484
259.807	0.4781
260.165	0.4806
260.522	0.4781
260.879	0.4787
261.236	0.4747
261.593	0.4766
261.95	0.4737
262.306	0.4726
262.663	0.4733
263.02	0.4723
263.376	0.4663
263.733	0.4603
264.089	0.466
264.445	0.4657
264.802	0.459
265.158	0.4599
265.514	0.4606
265.87	0.4585
266.226	0.4537
266.581	0.4578
266.937	0.452
267.293	0.4497
267.648	0.4459
268.004	0.4491
268.359	0.444
268.714	0.4365
269.07	0.4417
269.425	0.4358
269.78	0.4314
270.135	0.4326
270.49	0.4303
270.844	0.4324
271.199	0.4276
271.554	0.4212
271.908	0.4195
272.263	0.4193
272.617	0.4182
272.972	0.4111
273.326	0.4134
273.68	0.4062
274.034	0.4087
274.388	0.4026
274.742	0.4027
275.096	0.3963
275.45	0.3931
275.803	0.3914
276.157	0.3884
276.51	0.3832
276.864	0.3831
277.217	0.3808
277.571	0.3798
277.924	0.3714
278.277	0.3703
278.63	0.3673
278.983	0.3626
279.336	0.3593
279.688	0.356
280.041	0.3511
280.394	0.3495
280.746	0.3477
281.099	0.3442
281.451	0.3389
281.803	0.3364
282.156	0.3331
282.508	0.3286
282.86	0.3241
283.212	0.3228
283.564	0.3206
283.916	0.3151
284.267	0.312
284.619	0.3102
284.971	0.3057
285.322	0.305
285.673	0.2995
286.025	0.2948
286.376	0.2936
286.727	0.2884
287.078	0.2877
287.429	0.2849
287.78	0.28
288.131	0.2745
288.482	0.2727
288.833	0.2698
289.183	0.2659
289.534	0.2635
289.884	0.2614
290.235	0.256
290.585	0.2524
290.935	0.2505
291.285	0.2469
291.635	0.2451
291.985	0.2411
292.335	0.2383
292.685	0.2358
293.035	0.2309
293.384	0.2288
293.734	0.2266
294.083	0.2236
294.433	0.2211
294.782	0.2178
295.131	0.214
295.48	0.2109
295.829	0.2077
296.179	0.2056
296.527	0.2013
296.876	0.1985
297.225	0.195
297.574	0.1922
297.922	0.19
298.271	0.1864
298.619	0.1838
298.968	0.182
299.316	0.1802
299.664	0.1779
300.012	0.1741
300.36	0.1722
300.708	0.1697
301.056	0.167
301.404	0.1656
301.752	0.1631
302.099	0.1603
302.447	0.1583
302.794	0.1565
303.142	0.1537
303.489	0.1526
303.836	0.1503
304.183	0.1483
304.531	0.1473
304.878	0.1446
305.224	0.1426
305.571	0.1417
305.918	0.1403
306.265	0.1376
306.611	0.1367
306.958	0.1366
307.304	0.1349
307.651	0.1333
307.997	0.1323
308.343	0.1308
308.689	0.1299
309.035	0.1293
309.381	0.1281
309.727	0.1269
310.073	0.1268
310.419	0.1255
310.764	0.1252
311.11	0.1239
311.455	0.1243
311.801	0.1229
312.146	0.1221
312.491	0.1221
312.837	0.1216
313.182	0.1206
313.527	0.1209
313.872	0.1203
314.216	0.1203
314.561	0.1192
314.906	0.1199
315.251	0.1208
315.595	0.1204
315.94	0.1197
316.284	0.1202
316.628	0.1197
316.972	0.1208
317.317	0.1204
317.661	0.1207
318.005	0.1207
318.348	0.1206
318.692	0.1212
319.036	0.122
319.38	0.1223
319.723	0.1218
320.067	0.1232
320.41	0.1235
320.754	0.1234
321.097	0.1239
321.44	0.1252
321.783	0.1257
322.126	0.1262
322.469	0.1266
322.812	0.1276
323.155	0.1278
323.498	0.1291
323.84	0.1295
324.183	0.1301
324.525	0.1312
324.868	0.1332
325.21	0.1332
325.552	0.1339
325.894	0.135
326.236	0.1358
326.578	0.137
326.92	0.1376
327.262	0.1386
327.604	0.139
327.946	0.1407
328.287	0.1416
328.629	0.1424
328.97	0.1438
329.312	0.144
329.653	0.1456
329.994	0.147
330.335	0.1473
330.676	0.1491
331.017	0.1495
331.358	0.1509
331.699	0.1518
332.04	0.1531
332.38	0.1538
332.721	0.1555
333.061	0.1554
333.402	0.1572
333.742	0.1584
334.083	0.1587
334.423	0.1599
334.763	0.1613
335.103	0.1615
335.443	0.163
335.783	0.164
336.123	0.1643
336.462	0.1657
336.802	0.1665
337.141	0.1672
337.481	0.1676
337.82	0.1694
338.16	0.1698
338.499	0.1706
338.838	0.1724
339.177	0.1728
339.516	0.1729
339.855	0.1743
340.194	0.1751
340.533	0.1753
340.872	0.1752
341.21	0.1769
341.549	0.1771
341.887	0.178
342.226	0.177
342.564	0.1794
342.902	0.1793
343.24	0.1793
343.578	0.1797
343.916	0.1794
344.254	0.1808
344.592	0.1812
344.93	0.1816
345.268	0.1805
345.605	0.1815
345.943	0.1807
346.28	0.1817
346.618	0.1814
346.955	0.1813
347.292	0.1824
347.629	0.1819
347.966	0.1821
348.303	0.1818
348.64	0.1825
348.977	0.182
349.314	0.1826
349.65	0.1817
349.987	0.1824
350.324	0.1818
350.66	0.1827
350.996	0.1814
351.333	0.1815
351.669	0.1815
352.005	0.1808
352.341	0.1798
352.677	0.1791
353.013	0.1784
353.349	0.178
353.685	0.1775
354.02	0.1763
354.356	0.1761
354.691	0.175
355.027	0.1744
355.362	0.173
355.697	0.1726
356.033	0.1716
356.368	0.1715
356.703	0.1711
357.038	0.1706
357.373	0.1691
357.707	0.1687
358.042	0.1678
358.377	0.1673
358.711	0.1671
359.046	0.166
359.38	0.1647
359.715	0.1644
360.049	0.1632
360.383	0.1627
360.717	0.1609
361.051	0.1611
361.385	0.1599
361.719	0.1583
362.053	0.1583
362.387	0.1558
362.72	0.1556
363.054	0.1543
363.387	0.1527
363.721	0.1515
364.054	0.1504
364.387	0.1485
364.721	0.1471
365.054	0.146
365.387	0.1453
365.72	0.144
366.053	0.1428
366.385	0.1415
366.718	0.1404
367.051	0.1392
367.383	0.139
367.716	0.1377
368.048	0.1365
368.381	0.1366
368.713	0.1344
369.045	0.1339
369.377	0.132
369.709	0.1316
370.041	0.1304
370.373	0.1299
370.705	0.1281
371.037	0.1268
371.368	0.1268
371.7	0.1251
372.031	0.1238
372.363	0.1222
372.694	0.1214
373.025	0.12
373.356	0.1187
373.688	0.1175
374.019	0.1158
374.35	0.1147
374.68	0.1124
375.011	0.1111
375.342	0.1097
375.673	0.1085
376.003	0.1069
376.334	0.1068
376.664	0.105
376.995	0.1042
377.325	0.1026
377.655	0.1009
377.985	0.0992
378.315	0.0989
378.645	0.0978
378.975	0.0974
379.305	0.096
379.635	0.0954
379.964	0.0944
380.294	0.0941
380.623	0.0928
380.953	0.0908
381.282	0.0912
381.611	0.0901
381.941	0.0889
382.27	0.0874
382.599	0.0874
382.928	0.0858
383.257	0.0853
383.585	0.0839
383.914	0.0819
384.243	0.0812
384.571	0.0797
384.9	0.0788
385.228	0.0774
385.557	0.0763
385.885	0.075
386.213	0.0745
386.541	0.0732
386.869	0.0721
387.197	0.0709
387.525	0.0696
387.853	0.0684
388.181	0.0677
388.508	0.0666
388.836	0.0655
389.164	0.0642
389.491	0.0638
389.818	0.0618
390.146	0.0617
390.473	0.0609
390.8	0.0607
391.127	0.0591
391.454	0.0588
391.781	0.0583
392.108	0.0575
392.435	0.0561
392.761	0.0562
393.088	0.0553
393.415	0.0544
393.741	0.055
394.067	0.0544
394.394	0.0535
394.72	0.0524
395.046	0.0516
395.372	0.0509
395.698	0.0506
396.024	0.0496
396.35	0.0492
396.676	0.0482
397.001	0.047
397.327	0.047
397.653	0.046
397.978	0.0459
398.303	0.0449
398.629	0.0443
398.954	0.0436
399.279	0.0439
399.604	0.043
399.929	0.0425
400.254	0.0416
400.579	0.0415
400.904	0.0411
401.229	0.0403
401.553	0.0396
401.878	0.0396
402.202	0.0395
402.527	0.039
402.851	0.039
403.175	0.0378
403.5	0.0378
403.824	0.0373
404.148	0.0374
404.472	0.0367
404.796	0.037
405.119	0.0365
405.443	0.0361
405.767	0.036
406.09	0.0364
406.414	0.0355
406.737	0.036
407.061	0.0352
407.384	0.0357
407.707	0.0348
408.03	0.0346
408.353	0.0342
408.676	0.0348
408.999	0.0342
409.322	0.0342
409.645	0.0336
409.968	0.0339
410.29	0.0334
410.613	0.034
410.935	0.0338
411.258	0.0341
411.58	0.0332
411.902	0.0334
412.224	0.0335
412.546	0.0332
412.868	0.0339
413.19	0.0331
413.512	0.0328
413.834	0.033
414.156	0.0335
414.477	0.0325
414.799	0.0333
415.121	0.0324
415.442	0.0327
415.763	0.0324
416.085	0.0327
416.406	0.0325
416.727	0.0333
417.048	0.0333
417.369	0.0332
417.69	0.0323
418.011	0.0326
418.331	0.0326
418.652	0.0323
418.973	0.0324
419.293	0.0327
419.614	0.0324
419.934	0.0333
420.254	0.0327
420.574	0.0322
420.895	0.0322
421.215	0.0322
421.535	0.0324
421.855	0.0316
422.174	0.0312
422.494	0.0318
422.814	0.0321
423.134	0.0322
423.453	0.0325
423.773	0.0327
424.092	0.0328
424.411	0.0328
424.731	0.0324
425.05	0.0325
425.369	0.0321
425.688	0.0321
426.007	0.0326
426.326	0.0327
426.644	0.0322
426.963	0.0321
427.282	0.0322
427.6	0.0327
427.919	0.0323
428.237	0.0328
428.556	0.0322
428.874	0.0324
429.192	0.0322
429.51	0.0322
429.828	0.0326
430.146	0.0325
430.464	0.0326
430.782	0.032
431.1	0.0317
431.418	0.0317
431.735	0.0321
432.053	0.0319
432.37	0.032
432.688	0.0315
433.005	0.0312
433.322	0.0321
433.639	0.0321
433.957	0.0322
434.274	0.0325
434.591	0.0329
434.907	0.032
435.224	0.0327
435.541	0.0323
435.858	0.0335
436.174	0.033
436.491	0.0324
436.807	0.0317
437.124	0.032
437.44	0.0318
437.756	0.033
438.072	0.0314
438.388	0.032
438.704	0.0316
439.02	0.0321
439.336	0.0316
439.652	0.0318
439.968	0.0312
440.283	0.0314
440.599	0.0314
440.914	0.0318
441.23	0.0315
441.545	0.0314
441.86	0.0311
442.175	0.0322
442.491	0.0309
442.806	0.0312
443.121	0.0309
443.435	0.0309
443.75	0.0307
444.065	0.0308
444.38	0.0309
444.694	0.0303
445.009	0.0307
445.323	0.0306
445.638	0.0305
445.952	0.0304
446.266	0.0302
446.58	0.0292
446.894	0.0307
447.208	0.0302
447.522	0.0292
447.836	0.0298
448.15	0.0293
448.464	0.0293
448.777	0.0301
449.091	0.0293
449.404	0.0288
449.718	0.0294
450.031	0.0285
450.345	0.0294
450.658	0.0289
450.971	0.0286
451.284	0.0292
451.597	0.0289
451.91	0.0284
452.223	0.0288
452.535	0.0286
452.848	0.0288
453.161	0.0283
453.473	0.0287
453.786	0.0284
454.098	0.0279
454.411	0.0282
454.723	0.0288
455.035	0.0273
455.347	0.0275
455.659	0.0274
455.971	0.028
456.283	0.028
456.595	0.0281
456.907	0.028
457.218	0.0277
457.53	0.0274
457.841	0.0269
458.153	0.0268
458.464	0.0264
458.776	0.0266
459.087	0.0264
459.398	0.0267
459.709	0.0257
460.02	0.0266
460.331	0.0265
460.642	0.0259
460.953	0.0262
461.263	0.0261
461.574	0.0252
461.885	0.0263
462.195	0.0252
462.506	0.0253
462.816	0.0261
463.126	0.0253
463.437	0.0249
463.747	0.0249
464.057	0.0234
464.367	0.0229
464.677	0.0239
464.987	0.0238
465.296	0.0237
465.606	0.0234
465.916	0.0227
466.225	0.0226
466.535	0.023
466.844	0.0235
467.154	0.0236
467.463	0.023
467.772	0.0231
468.081	0.023
468.39	0.0231
468.699	0.0228
469.008	0.0231
469.317	0.023
469.626	0.0229
469.935	0.0217
470.243	0.0224
470.552	0.0219
470.86	0.0227
471.169	0.0214
471.477	0.021
471.785	0.0206
472.093	0.0204
472.402	0.0212
472.71	0.0207
473.018	0.02
473.326	0.0206
473.633	0.0206
473.941	0.02
474.249	0.0203
474.556	0.0197
474.864	0.0199
475.171	0.0197
475.479	0.019
475.786	0.0202
476.094	0.0189
476.401	0.0189
476.708	0.0188
477.015	0.0187
477.322	0.0172
477.629	0.0185
477.936	0.0184
478.242	0.0184
478.549	0.0184
478.856	0.0177
479.162	0.0178
479.469	0.0176
479.775	0.0175
480.081	0.0163
480.388	0.0162
480.694	0.0169
481	0.0165
481.306	0.0163
481.612	0.0168
481.918	0.0173
482.224	0.0167
482.53	0.0166
482.835	0.0158
483.141	0.016
483.446	0.0164
483.752	0.0158
484.057	0.0149
484.363	0.0155
484.668	0.0153
484.973	0.0142
485.278	0.0136
485.583	0.0133
485.888	0.0143
486.193	0.0129
486.498	0.0135
486.803	0.0143
487.107	0.0124
487.412	0.0124
487.717	0.0132
488.021	0.0137
488.325	0.0126
488.63	0.0133
488.934	0.0125
489.238	0.0126
489.542	0.0127
489.846	0.0122
490.15	0.0126
490.454	0.0136
490.758	0.0126
491.062	0.0117
491.366	0.0123
491.669	0.0121
491.973	0.0116
492.276	0.0115
492.58	0.0111
492.883	0.0116
493.186	0.0117
493.489	0.0118
493.792	0.0098
494.096	0.0102
494.399	0.0115
494.701	0.0106
495.004	0.0101
495.307	0.0107
495.61	0.0104
495.912	0.0107
496.215	0.0096
496.517	0.0105
496.82	0.0101
497.122	0.0094
497.424	0.01
497.727	0.0097
498.029	0.0091
498.331	0.0092
498.633	0.0091
498.935	0.0087
499.237	0.0092
499.538	0.0089
499.84	0.009
500.142	0.0088
500.443	0.0091
500.745	0.0095
501.046	0.0085
501.348	0.0073
501.649	0.0078
501.95	0.0082
502.251	0.0086
502.552	0.0065
502.853	0.0089
503.154	0.0084
503.455	0.0079
503.756	0.0084
504.057	0.0071
504.357	0.0077
504.658	0.0075
504.958	0.0067
505.259	0.0074
505.559	0.0067
505.859	0.0066
506.16	0.0061
506.46	0.0062
506.76	0.0065
507.06	0.006
507.36	0.0054
507.66	0.0063
507.96	0.0084
508.259	0.0059
508.559	0.0057
508.859	0.0063
509.158	0.0061
509.457	0.005
509.757	0.0054
510.056	0.005
510.355	0.005
510.655	0.0049
510.954	0.0053
511.253	0.0044
511.552	0.0049
511.851	0.0053
512.149	0.0051
512.448	0.0046
512.747	0.0041
513.045	0.005
513.344	0.0043
513.642	0.0048
513.941	0.0051
514.239	0.0039
514.537	0.0049
514.836	0.0053
515.134	0.005
515.432	0.0048
515.73	0.005
516.028	0.0041
516.326	0.0042
516.623	0.0028
516.921	0.0041
517.219	0.0049
517.516	0.0037
517.814	0.0047
518.111	0.005
518.409	0.0048
518.706	0.0049
519.003	0.0041
519.3	0.0032
519.597	0.004
519.894	0.0043
520.191	0.0051
520.488	0.0054
520.785	0.0038
521.082	0.0055
521.378	0.005
521.675	0.003
521.971	0.0036
522.268	0.0045
522.564	0.0049
522.861	0.0057
523.157	0.0044
523.453	0.0048
523.749	0.0028
524.045	0.0038
524.341	0.0034
524.637	0.0031
524.933	0.004
525.229	0.0038
525.524	0.0037
525.82	0.0036
526.115	0.0035
526.411	0.0034
526.706	0.0031
527.002	0.0038
527.297	0.0018
527.592	0.0042
527.887	0.0024
528.182	0.0028
528.477	0.003
528.772	0.003
529.067	0.0033
529.362	0.0035
529.657	0.0037
529.951	0.0033
530.246	0.0034
530.54	0.0026
530.835	0.0033
531.129	0.0031
531.423	0.0025
531.718	0.0029
532.012	0.0025
532.306	0.0036
532.6	0.0027
532.894	0.0029
533.188	0.003
533.482	0.0036
533.775	0.0024
534.069	0.0027
534.363	0.0025
534.656	0.0028
534.95	0.0031
535.243	0.0027
535.536	0.0027
535.83	0.0029
536.123	0.0013
536.416	0.0018
536.709	0.0033
537.002	0.0032
537.295	0.0033
537.588	0.0034
537.881	0.003
538.173	0.0028
538.466	0.0028
538.759	0.0031
539.051	0.0026
539.344	0.0037
539.636	0.003
539.928	0.0047
540.22	0.0024
540.513	0.0031
540.805	0.004
541.097	0.0029
541.389	0.0024
541.681	0.004
541.972	0.0024
542.264	0.0047
542.556	0.004
542.847	0.0037
543.139	0.0033
543.431	0.0031
543.722	0.0027
544.013	0.003
544.305	0.0036
544.596	0.0035
544.887	0.0032
545.178	0.0043
545.469	0.0051
545.76	0.0043
546.051	0.0039
546.342	0.0035
546.632	0.0038
546.923	0.0032
547.214	0.0027
547.504	0.0037
547.795	0.0027
548.085	0.0028
548.375	0.0029
548.666	0.004
548.956	0.0034
549.246	0.0052
549.536	0.0044
549.826	0.0048
550.116	0.0042
550.406	0.0035
550.695	0.0039
550.985	0.0037
551.275	0.0039
551.564	0.0054
551.854	0.0039
552.143	0.0041
552.433	0.0048
552.722	0.0034
553.011	0.0038
553.3	0.0042
553.589	0.0036
553.879	0.0036
554.167	0.0038
554.456	0.0031
554.745	0.0032
555.034	0.0042
555.323	0.0037
555.611	0.0036
555.9	0.0032
556.188	0.0034
556.477	0.0024
556.765	0.0047
557.053	0.0045
557.342	0.0031
557.63	0.0037
557.918	0.0038
558.206	0.0052
558.494	0.0042
558.782	0.0046
559.069	0.0045
559.357	0.0044
559.645	0.0039
559.932	0.0042
560.22	0.0035
560.507	0.0016
560.795	0.0026
561.082	0.0019
561.37	0.003
561.657	0.0029
561.944	0.0027
562.231	0.0022
562.518	0.0035
562.805	0.0035
563.092	0.0033
563.379	0.0037
563.665	0.0028
563.952	0.0046
564.239	0.0038
564.525	0.0043
564.811	0.0038
565.098	0.0047
565.384	0.0031
565.67	0.0038
565.957	0.0037
566.243	0.0048
566.529	0.004
566.815	0.0046
567.101	0.0034
567.387	0.0039
567.672	0.0034
567.958	0.002
568.244	0.0023
568.529	0.0026
568.815	0.0028
569.1	0.0034
569.386	0.0037
569.671	0.0033
569.956	0.003
570.242	0.0024
570.527	0.003
570.812	0.0023
571.097	0.0022
571.382	0.0018
571.666	0.0021
571.951	0.0027
572.236	0.0026
572.521	0.0027
572.805	0.0032
573.09	0.0033
573.374	0.0023
573.659	0.0024
573.943	0.0024
574.227	0.0026
574.511	0.0029
574.795	0.003
575.079	0.0032
575.363	0.0022
575.647	0.0029
575.931	0.0035
576.215	0.0033
576.499	0.0027
576.782	0.0022
577.066	0.002
577.349	0.0031
577.633	0.003
577.916	0.0026
578.2	0.0028
578.483	0.0024
578.766	0.0039
579.049	0.0029
579.332	0.0026
579.615	0.0027
579.898	0.002
580.181	0.0025
580.464	0.0029
580.746	0.0024
581.029	0.0031
581.312	0.0019
581.594	0.0015
581.877	0.0022
582.159	0.0029
582.441	0.0016
582.724	0.003
583.006	0.0027
583.288	0.0032
583.57	0.0023
583.852	0.0035
584.134	0.0034
584.416	0.0027
584.697	0.0028
584.979	0.002
585.261	0.0021
585.542	0.0024
585.824	0.003
586.105	0.0025
586.387	0.0033
586.668	0.0032
586.949	0.0037
587.231	0.0032
587.512	0.0033
587.793	0.0025
588.074	0.0029
588.355	0.0033
588.636	0.0027
588.916	0.0029
589.197	0.0024
589.478	0.0035
589.758	0.0025
590.039	0.0026
590.319	0.0018
590.6	0.0019
590.88	0.0021
591.16	0.0021
591.441	0.0034
591.721	0.0023
592.001	0.0022
592.281	0.0022
592.561	0.0031
592.841	0.0021
593.12	0.0021
593.4	0.003
593.68	0.0022
593.959	0.0027
594.239	0.0036
594.518	0.0035
594.798	0.0042
595.077	0.0033
595.356	0.0032
595.636	0.0028
595.915	0.0024
596.194	0.002
596.473	0.0035
596.752	0.003
597.031	0.0027
597.31	0.002
597.588	0.0021
597.867	0.0019
598.146	0.0017
598.424	0.0016
598.703	0.0023
598.981	0.0014
599.259	0.0015
599.538	0.002
599.816	0.0022
600.094	0.0032
600.372	0.0021
600.65	0.0029
600.928	0.0031
601.206	0.0026
601.484	0.0027
601.762	0.0031
602.04	0.0036
602.317	0.003
602.595	0.0043
602.872	0.003
603.15	0.0029
603.427	0.0018
603.704	0.0017
603.982	0.001
604.259	0.0019
604.536	0.0024
604.813	0.0025
605.09	0.0026
605.367	0.0016
605.644	0.0013
605.921	0.0012
606.197	0.0015
606.474	0.0021
606.751	0.0019
607.027	0.0024
607.304	0.0019
607.58	0.0024
607.856	0.003
608.133	0.0038
608.409	0.0036
608.685	0.0041
608.961	0.0036
609.237	0.0038
609.513	0.0044
609.789	0.0029
610.065	0.0029
610.341	0.0026
610.616	0.003
610.892	0.0033
611.167	0.0032
611.443	0.004
611.718	0.0033
611.994	0.0032
612.269	0.0027
612.544	0.0028
612.819	0.0027
613.095	0.0024
613.37	0.0018
613.645	0.0021
613.919	0.0034
614.194	0.0029
614.469	0.0036
614.744	0.0021
615.019	0.0017
615.293	0.0024
615.568	0.0019
615.842	0.0012
616.116	0.0015
616.391	0.0008
616.665	0.0009
616.939	0.0009
617.213	0.0009
617.488	0.0021
617.762	0.0017
618.035	0.003
618.309	0.0015
618.583	0.0024
618.857	0.0032
619.131	0.0026
619.404	0.0025
619.678	0.0035
619.951	0.0025
620.225	0.0014
620.498	0.0011
620.771	0.0013
621.045	0.0024
621.318	0.0034
621.591	0.0029
621.864	0.002
622.137	0.0013
622.41	0.0019
622.683	0.0019
622.956	0.0015
623.228	0.0019
623.501	0.0025
623.774	0.0035
624.046	0.0026
624.319	0.0028
624.591	0.0022
624.863	0.0016
625.136	0.0032
625.408	0.0045
625.68	0.0044
625.952	0.0032
626.224	0.0039
626.496	0.0032
626.768	0.0032
627.04	0.0041
627.311	0.0034
627.583	0.0042
627.855	0.0037
628.126	0.0026
628.398	0.002
628.669	0.0027
628.941	0.0023
629.212	0.0006
629.483	0.0018
629.755	0.0018
630.026	0.0021
630.297	0.0022
630.568	0.0024
630.839	0.0028
631.11	0.0037
631.38	0.0028
631.651	0.003
631.922	0.0033
632.192	0.0027
632.463	0.0032
632.733	0.0019
633.004	0.002
633.274	0.0014
633.545	0.0014
633.815	0.0024
634.085	0.0026
634.355	0.0026
634.625	0.0026
634.895	0.0027
635.165	0.003
635.435	0.0033
635.705	0.0031
635.974	0.0024
636.244	0.002
636.514	0.0017
636.783	0.0028
637.053	0.0029
637.322	0.002
637.591	0.0033
637.861	0.0023
638.13	0.002
638.399	0.0038
638.668	0.003
638.937	0.0029
639.206	0.0035
639.475	0.0041
639.744	0.0035
640.013	0.0037
640.281	0.0031
640.55	0.0033
640.819	0.0035
641.087	0.0029
641.356	0.0035
641.624	0.0033
641.892	0.0039
642.161	0.0039
642.429	0.004
642.697	0.0036
642.965	0.0038
643.233	0.002
643.501	0.0027
643.769	0.0028
644.037	0.0023
644.305	0.0024
644.572	0.0024
644.84	0.0022
645.108	0.0034
645.375	0.0031
645.643	0.0031
645.91	0.0029
646.177	0.0022
646.445	0.0023
646.712	0.0027
646.979	0.0025
647.246	0.0052
647.513	0.0036
647.78	0.0034
648.047	0.0014
648.314	0.0017
648.58	0.0004
648.847	0.0002
649.114	-0
649.38	-0.0007
649.647	-0.0005
649.913	0.0005
650.18	0.0019
650.446	0.003
650.712	0.0035
650.978	0.0033
651.245	0.0044
651.511	0.005
651.777	0.0042
652.043	0.0038
652.309	0.0036
652.574	0.0023
652.84	0.0032
653.106	0.0044
653.371	0.0048
653.637	0.004
653.903	0.0046
654.168	0.0042
654.433	0.0032
654.699	0.0032
654.964	0.0018
655.229	0.0015
655.494	0.0026
655.759	0.0001
656.024	0.0001
656.289	-0
656.554	-0.0004
656.819	0.0024
657.084	0.0039
657.349	0.005
657.613	0.0042
657.878	0.0027
658.142	0.0025
658.407	0.0012
658.671	0.0022
658.936	0.0027
659.2	0.0032
659.464	0.0027
659.728	0.0034
659.992	0.0011
660.256	0.0002
660.52	0.0016
660.784	0.0025
661.048	0.0015
661.312	0.0025
661.575	0.0023
661.839	0.003
662.103	0.0026
662.366	0.0022
662.63	0.0019
662.893	0.0024
663.156	0.0029
663.42	0.0035
663.683	0.003
663.946	0.0046
664.209	0.0044
664.472	0.0047
664.735	0.0044
664.998	0.0045
665.261	0.0047
665.524	0.0039
665.786	0.0042
666.049	0.0041
666.312	0.0033
666.574	0.0029
666.837	0.0043
667.099	0.0039
667.361	0.0041
667.624	0.0037
667.886	0.0037
668.148	0.0034
668.41	0.0041
668.672	0.0029
668.934	0.0033
669.196	0.0032
669.458	0.0026
669.72	0.0019
669.982	0.002
670.243	0.0026
670.505	0.0029
670.766	0.0023
671.028	0.0024
671.289	0.0037
671.551	0.0032
671.812	0.0014
672.073	0.0018
672.334	0.003
672.596	0.0022
672.857	0.0024
673.118	0.0033
673.379	0.004
673.639	0.0044
673.9	0.0035
674.161	0.0034
674.422	0.0041
674.682	0.0036
674.943	0.0028
675.203	0.004
675.464	0.0033
675.724	0.0028
675.985	0.0031
676.245	0.0017
676.505	0.0012
676.765	0.002
677.025	0.0021
677.285	0.0003
677.545	0.0016
677.805	0.0019
678.065	0.0018
678.325	0.0022
678.585	0.0036
678.844	0.0035
679.104	0.0052
679.363	0.0058
679.623	0.0058
679.882	0.0055
680.142	0.0053
680.401	0.006
680.66	0.0062
680.919	0.0045
681.178	0.0049
681.437	0.0047
681.696	0.0031
681.955	0.0059
682.214	0.0056
682.473	0.0057
682.732	0.0035
682.99	0.0055
683.249	0.0066
683.508	0.0055
683.766	0.0056
684.024	0.0044
684.283	0.0034
684.541	0.0027
684.799	0.0021
685.058	-0
685.316	0.0008
685.574	-0.0002
685.832	0.0004
686.09	0.0004
686.348	0.0005
686.606	0.0008
686.863	0.0009
687.121	0.0009
687.379	0.0006
687.636	-0.0012
687.894	0.0001
688.151	-0.0007
688.409	0.0009
688.666	0.0011
688.923	0.0011
689.181	0.0013
689.438	0.0013
689.695	0.0013
689.952	0.0003
690.209	0.0008
690.466	0.0001
690.723	0.0006
690.979	0.0005
691.236	0.0002
691.493	-0.0011
691.75	-0.0003
692.006	-0
692.263	-0.0006
692.519	-0.0005
692.775	-0.0013
693.032	-0.0007
693.288	-0.0019
693.544	-0.0013
693.8	0.0003
694.056	-0.0003
694.313	-0.0002
694.568	0.0002
694.824	0.0009
695.08	0.0008
695.336	0.0011
695.592	0.0008
695.847	0.0025
696.103	0.0041
696.359	0.0045
696.614	0.004
696.869	0.0024
697.125	0.0004
697.38	-0.0003
697.635	0.0016
697.891	0.0023
698.146	0.0014
698.401	0.0022
698.656	0.0009
698.911	0.0021
699.166	0.0013
699.42	0.0033
699.675	0.0036
699.93	0.0038
700.185	0.0035
700.439	0.0042
700.694	0.0033
700.948	0.003
701.203	0.0024
701.457	0.0027
701.711	0.0027
701.965	0.0012
702.22	0.0007
702.474	0.0006
702.728	0.0005
702.982	0.0007
703.236	0.0012
703.49	0.0012
703.743	0.0005
703.997	0.0018
704.251	0.0005
704.504	0.0023
704.758	0.0016
705.012	0.0026
705.265	0.0028
705.518	0.0024
705.772	0.0026
706.025	0.0035
706.278	0.0029
706.531	0.0028
706.785	0.0008
707.038	-0.0001
707.291	-0.0001
707.543	-0.0001
707.796	0.0003
708.049	0.0003
708.302	-0.0001
708.555	0.0003
708.807	0.0014
709.06	0.0019
709.312	0.0028
709.565	0.0035
709.817	0.0041
710.069	0.0037
710.322	0.0029
710.574	0.0036
710.826	0.0023
711.078	0.0028
711.33	0.0023
711.582	0.002
711.834	0.0015
712.086	0.0027
712.338	0.0025
712.59	0.0013
712.841	-0.0003
713.093	-0.0003
713.344	0.0016
713.596	0.0002
713.847	-0.0001
714.099	-0
714.35	0.0017
714.601	0.0003
714.853	-0.0005
715.104	0.0003
715.355	-0.0004
715.606	0.0009
715.857	0.0017
716.108	0.0023
716.359	0.0029
716.609	0.0013
716.86	0.0038
717.111	0.0025
717.361	0.0024
717.612	0.0026
717.863	0.0034
718.113	0.0033
718.363	0.0028
718.614	0.0025
718.864	0.0027
719.114	0.002
719.364	0.001
719.614	0.0011
719.865	0.0007
720.114	0.0023
720.364	0.0015
720.614	0.0007
720.864	0.0007
721.114	-0.0003
721.364	0.0001
721.613	-0.0001
721.863	-0.0003
722.112	0.0012
722.362	0.0008
722.611	0.0022
722.86	0.002
723.11	0.0034
723.359	0.004
723.608	0.0036
723.857	0.0041
724.106	0.0032
724.355	0.004
724.604	0.0034
724.853	0.0025
725.102	0.0012
725.351	-0.0006
725.599	-0.0019
725.848	-0.0005
726.097	0.0005
726.345	-0.0003
726.594	0.0004
726.842	0.0003
727.09	-0.0004
727.339	0.0006
727.587	-0.0003
727.835	-0.0002
728.083	-0.0006
728.331	-0.0006
728.579	0.0003
728.827	-0.0009
729.075	-0.0014
729.323	-0.0014
729.571	-0.0015
729.818	-0.0016
730.066	-0.0015
730.314	-0.0001
730.561	-0.0005
730.809	-0.002
731.056	-0.0024
731.303	-0.002
731.551	-0.001
731.798	-0.001
732.045	-0.0001
732.292	-0.0003
732.539	0.0007
732.786	-0.0012
733.033	-0.0016
733.28	-0.0004
733.527	-0.0015
733.774	-0.0019
734.021	-0.0021
734.267	-0.0013
734.514	-0.002
734.76	-0.0023
735.007	-0.0014
735.253	-0.001
735.5	0.001
735.746	0.0018
735.992	0.0013
736.238	0.0013
736.485	0.0013
736.731	0.0026
736.977	0.0009
737.223	-0
737.469	0.0004
737.715	0.001
737.96	0.0019
738.206	0.0017
738.452	0.0019
738.697	0.0022
738.943	0.001
739.189	0.0007
739.434	0.0001
739.679	0.0014
739.925	0.0033
740.17	0.0039
740.415	0.0033
740.66	0.0031
740.906	0.0029
741.151	0.0026
741.396	0.0018
741.641	0.0014
741.886	0.0015
742.13	0.0007
742.375	0.0014
742.62	0.0001
742.865	-0.0003
743.109	0.0001
743.354	-0.0012
743.598	-0.0014
743.843	-0.0027
744.087	-0.0033
744.331	-0.0029
744.576	-0.0018
744.82	-0.0008
745.064	-0.0006
745.308	0.0002
745.552	-0
745.796	-0.0008
746.04	-0.0008
746.284	-0.0012
746.528	-0.0001
746.771	0.0002
747.015	0.0002
747.259	-0.0012
747.502	-0.0008
747.746	0
747.989	0.0006
748.233	0.0018
748.476	0.0016
748.719	0.0016
748.963	0.001
749.206	0.0014
749.449	0.0011
749.692	0.0008
749.935	0.0007
750.178	0.001
750.421	0.0011
750.664	0.0013
750.906	0.0018
751.149	0.0008
751.392	0.0021
751.635	0.0019
751.877	0.0016
752.12	0.0014
752.362	0.0023
752.604	0.0022
752.847	0.0017
753.089	0.0011
753.331	0.0018
753.573	0.001
753.816	0.0014
754.058	0.0016
754.3	0.0025
754.542	0.0029
754.783	0.0032
755.025	0.0037
755.267	0.003
755.509	0.0024
755.75	0.001
755.992	0.0014
756.234	0.0016
756.475	0.0018
756.716	0.0007
756.958	-0.0003
757.199	-0.0004
757.44	0.0011
757.682	0.0006
757.923	0.0008
758.164	0.0021
758.405	0.0021
758.646	0.0024
758.887	0.0009
759.128	0.001
759.369	0.0004
759.609	0.0006
759.85	0.0003
760.091	0.0011
760.331	0.0011
760.572	0.0016
760.812	0.0003
761.053	0.0006
761.293	0.0017
761.533	0.0027
761.774	0.0023
762.014	0.0033
762.254	0.003
762.494	0.0022
762.734	0.0022
762.974	0.0024
763.214	0.0015
763.454	0.0026
763.694	0.0023
763.933	0.0042
764.173	0.0049
764.413	0.0057
764.652	0.0022
764.892	0.0018
765.131	0.0016
765.371	0.0016
765.61	0.0009
765.849	0.0001
766.089	-0.0008
766.328	0.0007
766.567	-0.0011
766.806	-0.0009
767.045	-0.002
767.284	-0.0001
767.523	-0.0011
767.762	-0.0012
768.001	-0.0015
768.239	-0.0009
768.478	-0.0024
768.717	-0.0015
768.955	-0.0014
769.194	-0.0011
769.432	0.0002
769.671	0.0003
769.909	-0.0002
770.148	0.0005
770.386	0.0002
770.624	0.0005
770.862	-0.0005
771.1	-0.0008
771.338	-0.0009
771.576	0.0003
771.814	0.0013
772.052	0.0012
772.29	0.0021
772.528	0.0013
772.765	0.0002
773.003	0.0006
773.24	0.0002
773.478	0.0006
773.716	0.0018
773.953	0.0015
774.19	0.0023
774.428	0.0025
774.665	0.0038
774.902	0.0037
775.139	0.0041
775.376	0.0023
775.613	0.0031
775.85	0.0029
776.087	0.0028
776.324	0.0029
776.561	0.0017
776.798	0.0016
777.034	0.0013
777.271	0.0023
777.508	0.0018
777.744	0.0027
777.981	0.0031
778.217	0.0027
778.454	0.0023
778.69	0.0015
778.926	0.0013
779.162	0.0013
779.399	0.0024
779.635	0.0016
779.871	0.0015
780.107	0.0012
780.343	0.0004
780.579	0.0013
780.814	0.0016
781.05	0.0016
781.286	0.001
781.522	-0.0002
781.757	-0.0008
781.993	-0.0004
782.228	-0.0006
782.464	0.0005
782.699	0.0008
782.934	0.0001
783.17	0.0005
783.405	0.0015
783.64	0.0008
783.875	0
784.11	-0.0001
784.345	0.0005
784.58	0.0008
784.815	0.0012
785.05	0.0006
785.285	0.0003
785.52	-0.0004
785.754	0.0002
785.989	0.0005
786.223	0.0018
786.458	0.0025
786.692	0.0031
786.927	0.0051
787.161	0.0032
787.396	0.005
787.63	0.0037
787.864	0.0033
788.098	0.0013
788.332	0.001
788.566	0.0008
788.8	-0
789.034	0.0005
789.268	0.0004
789.502	0.0014
789.736	0.002
789.969	0.0018
790.203	0.0023
790.437	0.0029
790.67	0.0026
790.904	0.0044
791.137	0.0048
791.37	0.0043
791.604	0.0045
791.837	0.006
792.07	0.0058
792.303	0.006
792.537	0.0062
792.77	0.0057
793.003	0.0042
793.236	0.0037
793.469	0.0033
793.701	0.0024
793.934	0.0025
794.167	0.0018
794.4	0.0007
794.632	0.0004
794.865	-0
795.097	-0.0007
795.33	-0.0001
795.562	-0.001
795.795	-0.0003
796.027	-0
796.259	0.001
796.491	0.0006
796.724	0.0021
796.956	0.0016
797.188	0.0015
797.42	0.0017
797.652	0.0017
797.883	0.0017
798.115	0.0023
798.347	0.0024
798.579	0.0024
798.81	0.0031
799.042	0.0033
799.274	0.0044
799.505	0.0033
799.737	0.0032
799.968	0.0026
800.199	0.0021
800.431	0.0025
800.662	0.002
800.893	0.0018
801.124	0.0033
801.355	0.0031
801.586	0.0048
801.817	0.0056
802.048	0.0056
802.279	0.005
802.51	0.0047
802.741	0.0067
802.971	0.0062
803.202	0.0041
803.433	0.0037
803.663	0.0039
803.894	0.0036
804.124	0.0032
804.354	0.0047
804.585	0.0057
804.815	0.006
805.045	0.0048
805.275	0.0043
805.506	0.014
805.736	-0.1527
805.966	-0.2473
806.196	-0.1553
