Data from 03 0.4 mM K2Cr2O7 0.25 M BQDS 1 M H2SO4 5 min_Absorbance_0069.txt Node
Date: Tue Dec 14 23:15:13 EST 2021
User: kwabilab-user
Spectrometer: HDX00518
Trigger mode: 0
Integration Time (sec): 5.000000E-2
Scans to average: 50
Nonlinearity correction enabled: false
Boxcar width: 0
Storing dark spectrum: false
XAxis mode: Wavelengths
Number of Pixels in Spectrum: 2068
>>>>>Begin Spectral Data<<<<<
195.27	-0.1428
195.642	0.0859
196.014	-0.1811
196.386	-0.148
196.758	-0.0712
197.129	0.0055
197.501	-0.0269
197.872	0.0208
198.244	0.01
198.615	0.0332
198.986	0.021
199.357	0.0301
199.728	0.0255
200.099	0.0271
200.47	0.0387
200.841	0.0294
201.212	0.0265
201.582	0.028
201.953	0.0275
202.323	0.0384
202.694	0.022
203.064	0.0226
203.434	0.0311
203.804	0.0136
204.174	0.0186
204.544	0.0561
204.914	0.0218
205.284	0.0197
205.653	0.0179
206.023	0.0201
206.393	0.0301
206.762	0.0063
207.131	0.0195
207.501	0.0379
207.87	0.0404
208.239	0.0205
208.608	0.0315
208.977	0.0149
209.346	0.0133
209.715	0.0316
210.083	0.0322
210.452	0.0197
210.82	0.0427
211.189	0.0082
211.557	0.0339
211.925	0.0448
212.294	0.0138
212.662	0.0363
213.03	0.0178
213.398	0.0391
213.766	0.0213
214.133	0.0284
214.501	0.0281
214.869	0.0159
215.236	0.0123
215.604	0.0362
215.971	0.0609
216.338	0.0231
216.705	0.0429
217.072	0.0369
217.439	0.0375
217.806	0.0366
218.173	0.0556
218.54	0.0395
218.907	0.073
219.273	0.0647
219.64	0.0784
220.006	0.0837
220.373	0.0879
220.739	0.1096
221.105	0.1492
221.471	0.1398
221.837	0.176
222.203	0.1887
222.569	0.1782
222.935	0.188
223.3	0.2282
223.666	0.2523
224.031	0.2747
224.397	0.2824
224.762	0.3086
225.127	0.3578
225.493	0.3646
225.858	0.4086
226.223	0.4119
226.588	0.4423
226.952	0.4352
227.317	0.5006
227.682	0.4961
228.046	0.507
228.411	0.5269
228.775	0.5456
229.14	0.5379
229.504	0.5486
229.868	0.5609
230.232	0.5844
230.596	0.598
230.96	0.6105
231.324	0.5996
231.688	0.6193
232.052	0.6198
232.415	0.6184
232.779	0.618
233.142	0.631
233.505	0.6464
233.869	0.632
234.232	0.6392
234.595	0.6363
234.958	0.6465
235.321	0.6404
235.684	0.6379
236.047	0.6317
236.409	0.6279
236.772	0.6364
237.134	0.6399
237.497	0.6265
237.859	0.6348
238.222	0.6299
238.584	0.624
238.946	0.6174
239.308	0.6204
239.67	0.6174
240.032	0.6193
240.393	0.6113
240.755	0.5942
241.117	0.6031
241.478	0.6044
241.84	0.601
242.201	0.6003
242.562	0.5959
242.924	0.5878
243.285	0.5874
243.646	0.5854
244.007	0.5897
244.368	0.5973
244.728	0.5859
245.089	0.5845
245.45	0.576
245.81	0.5749
246.171	0.5775
246.531	0.5729
246.891	0.575
247.252	0.5665
247.612	0.5684
247.972	0.5689
248.332	0.5671
248.692	0.569
249.051	0.5629
249.411	0.5618
249.771	0.5631
250.13	0.5605
250.49	0.561
250.849	0.5606
251.208	0.5603
251.568	0.5551
251.927	0.5581
252.286	0.5614
252.645	0.5604
253.004	0.5618
253.363	0.5533
253.721	0.5618
254.08	0.5567
254.439	0.5525
254.797	0.5547
255.155	0.5575
255.514	0.5524
255.872	0.5518
256.23	0.5523
256.588	0.5571
256.946	0.5512
257.304	0.549
257.662	0.5592
258.02	0.5544
258.377	0.548
258.735	0.5473
259.093	0.5457
259.45	0.5472
259.807	0.5476
260.165	0.5476
260.522	0.5463
260.879	0.5365
261.236	0.5387
261.593	0.5364
261.95	0.5395
262.306	0.5383
262.663	0.5345
263.02	0.542
263.376	0.5364
263.733	0.5281
264.089	0.5303
264.445	0.525
264.802	0.5242
265.158	0.5271
265.514	0.5244
265.87	0.5187
266.226	0.522
266.581	0.5188
266.937	0.5206
267.293	0.516
267.648	0.5139
268.004	0.5081
268.359	0.5065
268.714	0.5006
269.07	0.5036
269.425	0.4994
269.78	0.4971
270.135	0.496
270.49	0.4918
270.844	0.4847
271.199	0.4857
271.554	0.4828
271.908	0.479
272.263	0.4827
272.617	0.4752
272.972	0.4691
273.326	0.4701
273.68	0.4634
274.034	0.4671
274.388	0.4595
274.742	0.4597
275.096	0.4569
275.45	0.4476
275.803	0.4469
276.157	0.4465
276.51	0.4407
276.864	0.44
277.217	0.4384
277.571	0.4319
277.924	0.4236
278.277	0.424
278.63	0.4204
278.983	0.416
279.336	0.4131
279.688	0.409
280.041	0.4031
280.394	0.3989
280.746	0.3941
281.099	0.3942
281.451	0.3894
281.803	0.3829
282.156	0.3821
282.508	0.3757
282.86	0.3722
283.212	0.3692
283.564	0.3651
283.916	0.3594
284.267	0.356
284.619	0.3576
284.971	0.35
285.322	0.346
285.673	0.3425
286.025	0.3389
286.376	0.3358
286.727	0.3309
287.078	0.3267
287.429	0.3242
287.78	0.3212
288.131	0.3181
288.482	0.3124
288.833	0.3102
289.183	0.3056
289.534	0.3009
289.884	0.2996
290.235	0.2948
290.585	0.2925
290.935	0.289
291.285	0.2849
291.635	0.2818
291.985	0.2791
292.335	0.275
292.685	0.2705
293.035	0.2678
293.384	0.263
293.734	0.2593
294.083	0.2575
294.433	0.2545
294.782	0.2516
295.131	0.2468
295.48	0.2456
295.829	0.241
296.179	0.2382
296.527	0.2338
296.876	0.2314
297.225	0.2263
297.574	0.2239
297.922	0.2216
298.271	0.2189
298.619	0.215
298.968	0.2136
299.316	0.2099
299.664	0.2073
300.012	0.2048
300.36	0.2007
300.708	0.1985
301.056	0.196
301.404	0.1935
301.752	0.1913
302.099	0.1888
302.447	0.1858
302.794	0.184
303.142	0.181
303.489	0.1797
303.836	0.1771
304.183	0.175
304.531	0.1743
304.878	0.1711
305.224	0.1694
305.571	0.1678
305.918	0.1662
306.265	0.163
306.611	0.1622
306.958	0.1615
307.304	0.1596
307.651	0.1585
307.997	0.156
308.343	0.1552
308.689	0.155
309.035	0.1534
309.381	0.1524
309.727	0.1512
310.073	0.1508
310.419	0.1497
310.764	0.1494
311.11	0.1477
311.455	0.1471
311.801	0.1465
312.146	0.1458
312.491	0.1454
312.837	0.1448
313.182	0.1439
313.527	0.1431
313.872	0.1428
314.216	0.1432
314.561	0.1427
314.906	0.1424
315.251	0.143
315.595	0.143
315.94	0.1428
316.284	0.1428
316.628	0.1425
316.972	0.1431
317.317	0.1432
317.661	0.1431
318.005	0.1433
318.348	0.144
318.692	0.1439
319.036	0.1444
319.38	0.1453
319.723	0.145
320.067	0.1457
320.41	0.1462
320.754	0.1472
321.097	0.1465
321.44	0.1484
321.783	0.1487
322.126	0.1494
322.469	0.15
322.812	0.151
323.155	0.1519
323.498	0.1528
323.84	0.1535
324.183	0.1547
324.525	0.1552
324.868	0.1569
325.21	0.157
325.552	0.1585
325.894	0.1595
326.236	0.1595
326.578	0.1609
326.92	0.1619
327.262	0.1629
327.604	0.1638
327.946	0.1651
328.287	0.166
328.629	0.1668
328.97	0.1675
329.312	0.1691
329.653	0.1706
329.994	0.1717
330.335	0.1731
330.676	0.1744
331.017	0.1757
331.358	0.1762
331.699	0.1778
332.04	0.1782
332.38	0.1799
332.721	0.1808
333.061	0.1822
333.402	0.183
333.742	0.184
334.083	0.186
334.423	0.1861
334.763	0.1878
335.103	0.1881
335.443	0.1895
335.783	0.1913
336.123	0.1912
336.462	0.1924
336.802	0.1936
337.141	0.1946
337.481	0.1948
337.82	0.1964
338.16	0.1974
338.499	0.1984
338.838	0.1998
339.177	0.2
339.516	0.2006
339.855	0.202
340.194	0.2029
340.533	0.2027
340.872	0.2039
341.21	0.2052
341.549	0.2053
341.887	0.2056
342.226	0.2062
342.564	0.2068
342.902	0.2076
343.24	0.207
343.578	0.2085
343.916	0.2082
344.254	0.2089
344.592	0.2088
344.93	0.2095
345.268	0.2086
345.605	0.2093
345.943	0.2096
346.28	0.21
346.618	0.2094
346.955	0.2101
347.292	0.2106
347.629	0.2103
347.966	0.2099
348.303	0.2106
348.64	0.2103
348.977	0.2105
349.314	0.2104
349.65	0.2096
349.987	0.2111
350.324	0.21
350.66	0.2107
350.996	0.2093
351.333	0.2093
351.669	0.2081
352.005	0.2087
352.341	0.2075
352.677	0.2068
353.013	0.206
353.349	0.2052
353.685	0.2036
354.02	0.2033
354.356	0.2026
354.691	0.2019
355.027	0.201
355.362	0.1996
355.697	0.1986
356.033	0.1985
356.368	0.1974
356.703	0.1967
357.038	0.1969
357.373	0.1952
357.707	0.1948
358.042	0.1937
358.377	0.1925
358.711	0.193
359.046	0.1907
359.38	0.1908
359.715	0.1893
360.049	0.1884
360.383	0.1865
360.717	0.1862
361.051	0.1853
361.385	0.1845
361.719	0.1824
362.053	0.1825
362.387	0.1799
362.72	0.1788
363.054	0.1773
363.387	0.1764
363.721	0.1736
364.054	0.1723
364.387	0.1709
364.721	0.1698
365.054	0.1684
365.387	0.1666
365.72	0.1661
366.053	0.1645
366.385	0.1623
366.718	0.1623
367.051	0.1604
367.383	0.1596
367.716	0.1588
368.048	0.1575
368.381	0.1567
368.713	0.1547
369.045	0.1537
369.377	0.1535
369.709	0.1519
370.041	0.1505
370.373	0.1496
370.705	0.1489
371.037	0.1466
371.368	0.1456
371.7	0.1444
372.031	0.1428
372.363	0.1409
372.694	0.1405
373.025	0.1382
373.356	0.1371
373.688	0.1349
374.019	0.1344
374.35	0.1317
374.68	0.1301
375.011	0.1286
375.342	0.1278
375.673	0.1257
376.003	0.1234
376.334	0.1231
376.664	0.1217
376.995	0.1202
377.325	0.1183
377.655	0.1166
377.985	0.1159
378.315	0.1147
378.645	0.1135
378.975	0.1124
379.305	0.1102
379.635	0.1104
379.964	0.1095
380.294	0.1084
380.623	0.1073
380.953	0.1061
381.282	0.1054
381.611	0.1041
381.941	0.1036
382.27	0.1019
382.599	0.1011
382.928	0.0989
383.257	0.0981
383.585	0.0972
383.914	0.0954
384.243	0.0941
384.571	0.0935
384.9	0.0919
385.228	0.0899
385.557	0.0894
385.885	0.0877
386.213	0.087
386.541	0.0846
386.869	0.0838
387.197	0.082
387.525	0.0813
387.853	0.0799
388.181	0.0788
388.508	0.0778
388.836	0.0767
389.164	0.0758
389.491	0.0741
389.818	0.0731
390.146	0.0721
390.473	0.0711
390.8	0.0715
391.127	0.0691
391.454	0.0682
391.781	0.0684
392.108	0.0668
392.435	0.0658
392.761	0.0654
393.088	0.0651
393.415	0.0643
393.741	0.0643
394.067	0.0634
394.394	0.0623
394.72	0.0615
395.046	0.0603
395.372	0.0598
395.698	0.059
396.024	0.0577
396.35	0.0574
396.676	0.057
397.001	0.0558
397.327	0.0551
397.653	0.0542
397.978	0.0535
398.303	0.0529
398.629	0.0523
398.954	0.0519
399.279	0.0512
399.604	0.0506
399.929	0.0504
400.254	0.0493
400.579	0.0482
400.904	0.0479
401.229	0.0474
401.553	0.0465
401.878	0.0468
402.202	0.0465
402.527	0.0459
402.851	0.0456
403.175	0.0447
403.5	0.0447
403.824	0.0438
404.148	0.0438
404.472	0.0437
404.796	0.043
405.119	0.0425
405.443	0.0427
405.767	0.0419
406.09	0.0426
406.414	0.0416
406.737	0.0416
407.061	0.0412
407.384	0.041
407.707	0.0407
408.03	0.04
408.353	0.0402
408.676	0.0407
408.999	0.0404
409.322	0.0399
409.645	0.0393
409.968	0.0396
410.29	0.0396
410.613	0.0402
410.935	0.0384
411.258	0.0388
411.58	0.0382
411.902	0.0382
412.224	0.0386
412.546	0.0388
412.868	0.0393
413.19	0.0385
413.512	0.0391
413.834	0.0389
414.156	0.039
414.477	0.0378
414.799	0.039
415.121	0.0381
415.442	0.0377
415.763	0.038
416.085	0.0386
416.406	0.0376
416.727	0.0386
417.048	0.0388
417.369	0.038
417.69	0.0375
418.011	0.038
418.331	0.0384
418.652	0.0383
418.973	0.0372
419.293	0.0382
419.614	0.0372
419.934	0.0386
420.254	0.038
420.574	0.0365
420.895	0.0372
421.215	0.037
421.535	0.0375
421.855	0.0372
422.174	0.0369
422.494	0.0371
422.814	0.0373
423.134	0.0375
423.453	0.0381
423.773	0.0382
424.092	0.0383
424.411	0.0377
424.731	0.0382
425.05	0.0375
425.369	0.0375
425.688	0.0375
426.007	0.0374
426.326	0.0381
426.644	0.0374
426.963	0.037
427.282	0.0372
427.6	0.0379
427.919	0.0375
428.237	0.0381
428.556	0.0376
428.874	0.0374
429.192	0.0373
429.51	0.0374
429.828	0.0375
430.146	0.0377
430.464	0.0372
430.782	0.0373
431.1	0.0369
431.418	0.0374
431.735	0.0368
432.053	0.0377
432.37	0.0378
432.688	0.0368
433.005	0.0365
433.322	0.0381
433.639	0.0378
433.957	0.0369
434.274	0.0379
434.591	0.0373
434.907	0.0365
435.224	0.0375
435.541	0.0373
435.858	0.038
436.174	0.0376
436.491	0.0372
436.807	0.0369
437.124	0.0373
437.44	0.0367
437.756	0.0373
438.072	0.0369
438.388	0.0373
438.704	0.0367
439.02	0.0364
439.336	0.0368
439.652	0.0374
439.968	0.0362
440.283	0.0366
440.599	0.0366
440.914	0.0363
441.23	0.0368
441.545	0.0367
441.86	0.0365
442.175	0.0366
442.491	0.0363
442.806	0.0362
443.121	0.0357
443.435	0.0356
443.75	0.0358
444.065	0.0361
444.38	0.0359
444.694	0.0357
445.009	0.0356
445.323	0.0365
445.638	0.0353
445.952	0.0359
446.266	0.0353
446.58	0.034
446.894	0.0357
447.208	0.0351
447.522	0.0347
447.836	0.0358
448.15	0.0347
448.464	0.0342
448.777	0.0348
449.091	0.0353
449.404	0.0343
449.718	0.0346
450.031	0.0343
450.345	0.0345
450.658	0.0343
450.971	0.0342
451.284	0.0338
451.597	0.0342
451.91	0.0338
452.223	0.034
452.535	0.0335
452.848	0.0336
453.161	0.0335
453.473	0.0335
453.786	0.0329
454.098	0.0329
454.411	0.0325
454.723	0.0332
455.035	0.0326
455.347	0.0323
455.659	0.0327
455.971	0.0329
456.283	0.0333
456.595	0.0331
456.907	0.0329
457.218	0.0331
457.53	0.0325
457.841	0.0312
458.153	0.0322
458.464	0.0313
458.776	0.0316
459.087	0.0313
459.398	0.0317
459.709	0.0311
460.02	0.0313
460.331	0.0314
460.642	0.0312
460.953	0.0304
461.263	0.0311
461.574	0.0296
461.885	0.031
462.195	0.0296
462.506	0.03
462.816	0.0309
463.126	0.03
463.437	0.0299
463.747	0.0284
464.057	0.0282
464.367	0.0275
464.677	0.0283
464.987	0.0281
465.296	0.0283
465.606	0.0283
465.916	0.0274
466.225	0.0274
466.535	0.0278
466.844	0.0282
467.154	0.0279
467.463	0.0269
467.772	0.0268
468.081	0.0265
468.39	0.0275
468.699	0.0269
469.008	0.027
469.317	0.0266
469.626	0.0272
469.935	0.0253
470.243	0.0266
470.552	0.0256
470.86	0.026
471.169	0.0255
471.477	0.0248
471.785	0.0244
472.093	0.0248
472.402	0.0243
472.71	0.0235
473.018	0.0234
473.326	0.025
473.633	0.0253
473.941	0.0242
474.249	0.0243
474.556	0.0229
474.864	0.024
475.171	0.0235
475.479	0.0229
475.786	0.0241
476.094	0.0227
476.401	0.0222
476.708	0.0225
477.015	0.0225
477.322	0.0214
477.629	0.021
477.936	0.0212
478.242	0.0217
478.549	0.0217
478.856	0.0209
479.162	0.0211
479.469	0.0207
479.775	0.0205
480.081	0.0203
480.388	0.0203
480.694	0.0199
481	0.0199
481.306	0.0192
481.612	0.0197
481.918	0.0211
482.224	0.0201
482.53	0.0193
482.835	0.0193
483.141	0.02
483.446	0.0196
483.752	0.0183
484.057	0.0187
484.363	0.0183
484.668	0.0186
484.973	0.0169
485.278	0.0174
485.583	0.0169
485.888	0.0171
486.193	0.0158
486.498	0.0169
486.803	0.0173
487.107	0.0164
487.412	0.0156
487.717	0.0159
488.021	0.0163
488.325	0.0157
488.63	0.0159
488.934	0.0158
489.238	0.0153
489.542	0.0152
489.846	0.0149
490.15	0.0153
490.454	0.0156
490.758	0.015
491.062	0.0149
491.366	0.0151
491.669	0.0152
491.973	0.014
492.276	0.0141
492.58	0.0137
492.883	0.0147
493.186	0.0133
493.489	0.014
493.792	0.0135
494.096	0.0126
494.399	0.0131
494.701	0.0128
495.004	0.0115
495.307	0.0133
495.61	0.0128
495.912	0.0129
496.215	0.0123
496.517	0.0136
496.82	0.0115
497.122	0.012
497.424	0.0118
497.727	0.0114
498.029	0.0115
498.331	0.0125
498.633	0.0109
498.935	0.0102
499.237	0.0116
499.538	0.0106
499.84	0.011
500.142	0.0108
500.443	0.0107
500.745	0.0106
501.046	0.0108
501.348	0.0096
501.649	0.0099
501.95	0.0096
502.251	0.0102
502.552	0.0091
502.853	0.0101
503.154	0.0104
503.455	0.0089
503.756	0.0097
504.057	0.009
504.357	0.0092
504.658	0.0094
504.958	0.0089
505.259	0.0086
505.559	0.0084
505.859	0.0081
506.16	0.007
506.46	0.0081
506.76	0.0081
507.06	0.0072
507.36	0.0077
507.66	0.0082
507.96	0.0094
508.259	0.008
508.559	0.0075
508.859	0.0084
509.158	0.0074
509.457	0.0067
509.757	0.0078
510.056	0.007
510.355	0.0076
510.655	0.0061
510.954	0.0066
511.253	0.006
511.552	0.0071
511.851	0.0067
512.149	0.0068
512.448	0.0058
512.747	0.0065
513.045	0.0068
513.344	0.0073
513.642	0.0064
513.941	0.0067
514.239	0.0063
514.537	0.0062
514.836	0.0057
515.134	0.0066
515.432	0.0062
515.73	0.006
516.028	0.0049
516.326	0.0052
516.623	0.005
516.921	0.0056
517.219	0.0064
517.516	0.005
517.814	0.0054
518.111	0.005
518.409	0.0053
518.706	0.0058
519.003	0.0049
519.3	0.0053
519.597	0.0053
519.894	0.0051
520.191	0.006
520.488	0.0059
520.785	0.0048
521.082	0.0058
521.378	0.0056
521.675	0.0041
521.971	0.005
522.268	0.0052
522.564	0.0045
522.861	0.006
523.157	0.0048
523.453	0.0051
523.749	0.0043
524.045	0.0047
524.341	0.0049
524.637	0.0037
524.933	0.005
525.229	0.0045
525.524	0.0036
525.82	0.0051
526.115	0.0052
526.411	0.0042
526.706	0.0043
527.002	0.0044
527.297	0.0034
527.592	0.0045
527.887	0.0033
528.182	0.0029
528.477	0.0038
528.772	0.0027
529.067	0.004
529.362	0.0044
529.657	0.0037
529.951	0.0045
530.246	0.0023
530.54	0.0035
530.835	0.004
531.129	0.0038
531.423	0.0039
531.718	0.0041
532.012	0.0037
532.306	0.0033
532.6	0.0032
532.894	0.003
533.188	0.0033
533.482	0.0031
533.775	0.0026
534.069	0.0024
534.363	0.0032
534.656	0.003
534.95	0.0027
535.243	0.0023
535.536	0.0031
535.83	0.0034
536.123	0.0029
536.416	0.0027
536.709	0.0039
537.002	0.0035
537.295	0.0024
537.588	0.0036
537.881	0.0025
538.173	0.0028
538.466	0.0036
538.759	0.0029
539.051	0.0034
539.344	0.0033
539.636	0.003
539.928	0.005
540.22	0.0024
540.513	0.0035
540.805	0.0037
541.097	0.0033
541.389	0.003
541.681	0.0032
541.972	0.0018
542.264	0.0034
542.556	0.0027
542.847	0.0021
543.139	0.0038
543.431	0.0024
543.722	0.0013
544.013	0.0025
544.305	0.0028
544.596	0.0028
544.887	0.0035
545.178	0.0042
545.469	0.0027
545.76	0.0027
546.051	0.0034
546.342	0.0025
546.632	0.0024
546.923	0.0029
547.214	0.002
547.504	0.0044
547.795	0.0028
548.085	0.0032
548.375	0.0036
548.666	0.0037
548.956	0.0026
549.246	0.0035
549.536	0.0036
549.826	0.0042
550.116	0.0038
550.406	0.0039
550.695	0.0041
550.985	0.0031
551.275	0.0032
551.564	0.0052
551.854	0.0041
552.143	0.004
552.433	0.0038
552.722	0.0041
553.011	0.0036
553.3	0.003
553.589	0.0043
553.879	0.0036
554.167	0.0035
554.456	0.0034
554.745	0.0045
555.034	0.0052
555.323	0.004
555.611	0.0039
555.9	0.0038
556.188	0.0031
556.477	0.0025
556.765	0.0038
557.053	0.0039
557.342	0.0046
557.63	0.0027
557.918	0.0035
558.206	0.0043
558.494	0.0039
558.782	0.004
559.069	0.0044
559.357	0.0033
559.645	0.0047
559.932	0.0042
560.22	0.0038
560.507	0.0021
560.795	0.0025
561.082	0.0016
561.37	0.0028
561.657	0.0025
561.944	0.0026
562.231	0.0034
562.518	0.0031
562.805	0.0036
563.092	0.0033
563.379	0.0032
563.665	0.0038
563.952	0.0046
564.239	0.0048
564.525	0.0042
564.811	0.004
565.098	0.0037
565.384	0.004
565.67	0.0036
565.957	0.0036
566.243	0.0038
566.529	0.0029
566.815	0.0032
567.101	0.0041
567.387	0.0033
567.672	0.0032
567.958	0.0027
568.244	0.0009
568.529	0.0031
568.815	0.0028
569.1	0.0027
569.386	0.003
569.671	0.0033
569.956	0.0033
570.242	0.0023
570.527	0.003
570.812	0.0025
571.097	0.0016
571.382	0.0021
571.666	0.0013
571.951	0.0035
572.236	0.003
572.521	0.0032
572.805	0.0036
573.09	0.0034
573.374	0.0028
573.659	0.0024
573.943	0.0021
574.227	0.0029
574.511	0.0032
574.795	0.0035
575.079	0.0031
575.363	0.003
575.647	0.0025
575.931	0.003
576.215	0.0038
576.499	0.0019
576.782	0.0024
577.066	0.0029
577.349	0.0025
577.633	0.003
577.916	0.0028
578.2	0.0033
578.483	0.0038
578.766	0.0042
579.049	0.0027
579.332	0.0034
579.615	0.0019
579.898	0.0024
580.181	0.0032
580.464	0.0022
580.746	0.0032
581.029	0.0031
581.312	0.0019
581.594	0.0019
581.877	0.0024
582.159	0.0041
582.441	0.0022
582.724	0.0029
583.006	0.0038
583.288	0.0033
583.57	0.0032
583.852	0.003
584.134	0.0032
584.416	0.0024
584.697	0.0024
584.979	0.0022
585.261	0.003
585.542	0.0033
585.824	0.0035
586.105	0.0032
586.387	0.0035
586.668	0.0027
586.949	0.0035
587.231	0.0032
587.512	0.003
587.793	0.0026
588.074	0.0025
588.355	0.0032
588.636	0.0025
588.916	0.0032
589.197	0.0016
589.478	0.0029
589.758	0.0024
590.039	0.002
590.319	0.0012
590.6	0.0024
590.88	0.0018
591.16	0.0025
591.441	0.003
591.721	0.0021
592.001	0.0014
592.281	0.0019
592.561	0.0023
592.841	0.0024
593.12	0.0026
593.4	0.0032
593.68	0.0026
593.959	0.003
594.239	0.0035
594.518	0.0037
594.798	0.004
595.077	0.0024
595.356	0.0024
595.636	0.0033
595.915	0.0026
596.194	0.0029
596.473	0.0026
596.752	0.0029
597.031	0.0032
597.31	0.0019
597.588	0.0023
597.867	0.0023
598.146	0.0022
598.424	0.0009
598.703	0.0016
598.981	0.002
599.259	0.0015
599.538	0.0028
599.816	0.0029
600.094	0.0023
600.372	0.0031
600.65	0.0033
600.928	0.0031
601.206	0.003
601.484	0.0033
601.762	0.0037
602.04	0.0038
602.317	0.0037
602.595	0.0039
602.872	0.0025
603.15	0.0035
603.427	0.0013
603.704	0.0024
603.982	0.0018
604.259	0.0018
604.536	0.0027
604.813	0.0023
605.09	0.0024
605.367	0.0017
605.644	0.002
605.921	0.0013
606.197	0.0014
606.474	0.0028
606.751	0.0019
607.027	0.0025
607.304	0.002
607.58	0.0029
607.856	0.0033
608.133	0.0038
608.409	0.0036
608.685	0.0037
608.961	0.0032
609.237	0.0032
609.513	0.0042
609.789	0.0026
610.065	0.0024
610.341	0.0017
610.616	0.0018
610.892	0.0021
611.167	0.0021
611.443	0.0026
611.718	0.0024
611.994	0.0023
612.269	0.002
612.544	0.0027
612.819	0.0019
613.095	0.0031
613.37	0.0015
613.645	0.0021
613.919	0.0026
614.194	0.0024
614.469	0.0025
614.744	0.0013
615.019	0.0019
615.293	0.0022
615.568	0.0027
615.842	0.0018
616.116	0.0016
616.391	0.0011
616.665	0.0007
616.939	0.001
617.213	0.002
617.488	0.002
617.762	0.0016
618.035	0.0029
618.309	0.0028
618.583	0.002
618.857	0.0022
619.131	0.003
619.404	0.0023
619.678	0.0033
619.951	0.0028
620.225	0.0013
620.498	0.0013
620.771	0.0019
621.045	0.0018
621.318	0.0027
621.591	0.0019
621.864	0.0018
622.137	0.0014
622.41	0.0018
622.683	0.0017
622.956	0.0008
623.228	0.0016
623.501	0.0024
623.774	0.0021
624.046	0.0023
624.319	0.0017
624.591	0.0015
624.863	0.002
625.136	0.0032
625.408	0.0039
625.68	0.002
625.952	0.0025
626.224	0.0031
626.496	0.0026
626.768	0.0034
627.04	0.0026
627.311	0.0033
627.583	0.0033
627.855	0.0028
628.126	0.0022
628.398	0.0012
628.669	0.0008
628.941	0.0004
629.212	0.001
629.483	0.0015
629.755	0.0003
630.026	0.0011
630.297	0.0005
630.568	0.0016
630.839	0.002
631.11	0.0021
631.38	0.0024
631.651	0.0016
631.922	0.0022
632.192	0.0021
632.463	0.0018
632.733	0.0008
633.004	0.0011
633.274	0.0004
633.545	0.0006
633.815	0.002
634.085	0.0016
634.355	0.0009
634.625	0.0022
634.895	0.0012
635.165	0.0015
635.435	0.0022
635.705	0.0009
635.974	0.0007
636.244	0.0008
636.514	0.0006
636.783	0.0011
637.053	0.002
637.322	0.0012
637.591	0.0007
637.861	0.0003
638.13	-0
638.399	0.0019
638.668	0.0007
638.937	0.0024
639.206	0.0009
639.475	0.002
639.744	0.0015
640.013	0.0011
640.281	0.0012
640.55	0.002
640.819	0.0013
641.087	0.0009
641.356	0.0016
641.624	0.0007
641.892	0.0022
642.161	0.0011
642.429	0.0008
642.697	0.0011
642.965	0.0007
643.233	-0.0005
643.501	0.0003
643.769	0.0006
644.037	0.0001
644.305	0.0008
644.572	0.0001
644.84	0.0003
645.108	0.0004
645.375	0.001
645.643	0.0016
645.91	0.0012
646.177	0.0024
646.445	0.0009
646.712	0.0014
646.979	0.001
647.246	0.0027
647.513	0.0021
647.78	0.0021
648.047	0.0003
648.314	0.0005
648.58	-0.0007
648.847	-0.001
649.114	-0.0014
649.38	-0.0015
649.647	-0.0009
649.913	-0.0005
650.18	0.0005
650.446	0.0019
650.712	0.0015
650.978	0.0023
651.245	0.0023
651.511	0.0037
651.777	0.0033
652.043	0.0016
652.309	0.002
652.574	0.0016
652.84	0.0027
653.106	0.0017
653.371	0.0037
653.637	0.0032
653.903	0.0022
654.168	0.0024
654.433	0.0021
654.699	0.0011
654.964	-0.0001
655.229	0.0001
655.494	0.0008
655.759	-0.0014
656.024	0.0001
656.289	-0
656.554	0.0021
656.819	0.0027
657.084	0.0024
657.349	0.0018
657.613	0.0011
657.878	0.0001
658.142	-0.0002
658.407	0.0001
658.671	0.0002
658.936	0.0007
659.2	0.002
659.464	0.0015
659.728	0.0009
659.992	-0.0006
660.256	-0.0014
660.52	-0.0006
660.784	0.0001
661.048	0.0005
661.312	0.0002
661.575	0.0003
661.839	0.0009
662.103	0.0003
662.366	0.0005
662.63	0.0007
662.893	0
663.156	0.0007
663.42	0.0016
663.683	0.0009
663.946	0.0022
664.209	0.0026
664.472	0.0015
664.735	0.0021
664.998	0.0025
665.261	0.0034
665.524	0.0022
665.786	0.0025
666.049	0.0016
666.312	0.0015
666.574	0.0018
666.837	0.0039
667.099	0.0026
667.361	0.0033
667.624	0.0021
667.886	0.0029
668.148	0.0032
668.41	0.0023
668.672	0.003
668.934	0.0032
669.196	0.0018
669.458	0.0014
669.72	0.001
669.982	-0.0002
670.243	0.0001
670.505	0.0008
670.766	0.0011
671.028	0.0009
671.289	0.0012
671.551	0.002
671.812	0.0005
672.073	0.0008
672.334	0.0009
672.596	0.0007
672.857	0.0011
673.118	0.002
673.379	0.0028
673.639	0.002
673.9	0.0015
674.161	0.0016
674.422	0.0016
674.682	0.0009
674.943	0.0005
675.203	0.0005
675.464	0.0015
675.724	0.0012
675.985	0.0013
676.245	0.0014
676.505	0.0005
676.765	-0.0005
677.025	0.0008
677.285	-0.0004
677.545	0.0004
677.805	0.0001
678.065	0.0005
678.325	0.0016
678.585	0.0033
678.844	0.003
679.104	0.0037
679.363	0.0037
679.623	0.0037
679.882	0.004
680.142	0.0036
680.401	0.0038
680.66	0.0045
680.919	0.0027
681.178	0.0035
681.437	0.0024
681.696	0.0012
681.955	0.0041
682.214	0.0039
682.473	0.0041
682.732	0.0028
682.99	0.0037
683.249	0.004
683.508	0.0032
683.766	0.0039
684.024	0.0034
684.283	0.0017
684.541	0.001
684.799	0.0005
685.058	-0.0005
685.316	-0.0009
685.574	-0.0013
685.832	-0.0004
686.09	0.0001
686.348	-0.0005
686.606	-0.0009
686.863	-0.001
687.121	-0.0015
687.379	-0.0022
687.636	-0.0023
687.894	-0.0021
688.151	-0.0019
688.409	-0.002
688.666	-0.0008
688.923	-0.0015
689.181	-0.0007
689.438	-0.0012
689.695	-0.0009
689.952	-0.0003
690.209	-0.0006
690.466	-0.0007
690.723	-0.0004
690.979	-0.0012
691.236	-0.0017
691.493	-0.0022
691.75	-0.0014
692.006	-0.0018
692.263	-0.002
692.519	-0.0012
692.775	-0.0028
693.032	-0.0026
693.288	-0.0031
693.544	-0.0025
693.8	-0.0004
694.056	-0.0019
694.313	-0.002
694.568	-0.0012
694.824	-0.0013
695.08	-0.0011
695.336	-0.0002
695.592	-0.0006
695.847	0.0008
696.103	0.0019
696.359	0.0022
696.614	0.002
696.869	0.0005
697.125	-0.0017
697.38	-0.0006
697.635	0.0003
697.891	0.0012
698.146	0.0005
698.401	-0
698.656	-0.0001
698.911	0.001
699.166	0.0002
699.42	0.0019
699.675	0.0013
699.93	0.0021
700.185	0.0025
700.439	0.0019
700.694	0.0018
700.948	0.0019
701.203	0.0018
701.457	0.0011
701.711	0.0012
701.965	-0.0008
702.22	0
702.474	-0.0002
702.728	-0.0001
702.982	0.0007
703.236	-0.0002
703.49	-0.0005
703.743	-0.0002
703.997	-0.0003
704.251	-0.0002
704.504	0.0013
704.758	0.0008
705.012	0.0013
705.265	0.0017
705.518	0.0009
705.772	0.0018
706.025	0.0021
706.278	0.0014
706.531	0.0007
706.785	-0.0009
707.038	-0.0006
707.291	-0.0004
707.543	-0.001
707.796	-0.0003
708.049	-0.0003
708.302	-0.0004
708.555	-0.0009
708.807	0.0002
709.06	0
709.312	0.0014
709.565	0.0008
709.817	0.0026
710.069	0.0015
710.322	0.0021
710.574	0.0029
710.826	0.0019
711.078	0.0015
711.33	0.0018
711.582	0.0014
711.834	0.0003
712.086	0.0018
712.338	0.0023
712.59	0.0008
712.841	-0.0011
713.093	0.0006
713.344	0.0009
713.596	0.0002
713.847	-0.0016
714.099	-0.0014
714.35	-0.0008
714.601	-0.0019
714.853	-0.0022
715.104	-0.0012
715.355	-0.0018
715.606	0.0001
715.857	0.0004
716.108	0.0007
716.359	0.001
716.609	-0.0008
716.86	0.0006
717.111	0.0003
717.361	0.0009
717.612	0.0004
717.863	0.0009
718.113	0.0019
718.363	0.0014
718.614	0.0021
718.864	0.0013
719.114	0.0008
719.364	0.0002
719.614	-0.0002
719.865	0
720.114	0.0003
720.364	-0.0001
720.614	-0.0009
720.864	-0.0006
721.114	-0.002
721.364	-0.0015
721.613	-0.0013
721.863	-0.0014
722.112	-0.0009
722.362	-0.0007
722.611	-0
722.86	0.0005
723.11	0.0014
723.359	0.0013
723.608	0.0008
723.857	0.0034
724.106	0.0016
724.355	0.0015
724.604	0.0014
724.853	0.0003
725.102	-0.0014
725.351	-0.0018
725.599	-0.0031
725.848	-0.0023
726.097	-0.0012
726.345	-0.0016
726.594	-0.0014
726.842	-0.0004
727.09	-0.0009
727.339	-0.0012
727.587	-0.0021
727.835	-0.0027
728.083	-0.0034
728.331	-0.0025
728.579	-0.0011
728.827	-0.0021
729.075	-0.003
729.323	-0.0029
729.571	-0.0032
729.818	-0.003
730.066	-0.0024
730.314	-0.0016
730.561	-0.0022
730.809	-0.003
731.056	-0.0033
731.303	-0.0023
731.551	-0.0021
731.798	-0.0027
732.045	-0.0007
732.292	-0.002
732.539	-0.0018
732.786	-0.0026
733.033	-0.0025
733.28	-0.0017
733.527	-0.0017
733.774	-0.0027
734.021	-0.0029
734.267	-0.0017
734.514	-0.0025
734.76	-0.0019
735.007	-0.0019
735.253	-0.0015
735.5	0.0009
735.746	0.0017
735.992	0.002
736.238	0.0018
736.485	0.0012
736.731	0.0012
736.977	0.0001
737.223	-0.0004
737.469	-0.0007
737.715	-0.0003
737.96	0.0004
738.206	0.0002
738.452	-0.0002
738.697	-0.0005
738.943	-0.0013
739.189	-0.0007
739.434	-0.0013
739.679	-0
739.925	0.0015
740.17	0.0019
740.415	0.0007
740.66	0.0012
740.906	0.0017
741.151	0.0007
741.396	0.0003
741.641	-0.0003
741.886	0.0002
742.13	0.0003
742.375	0.0013
742.62	-0.0002
742.865	-0.0002
743.109	0.0005
743.354	-0.0011
743.598	-0.0008
743.843	-0.0023
744.087	-0.0032
744.331	-0.0024
744.576	-0.0012
744.82	-0.0012
745.064	-0.0007
745.308	-0.0002
745.552	-0.0009
745.796	-0.0012
746.04	-0.0011
746.284	-0.0015
746.528	-0.0006
746.771	-0.0007
747.015	-0.0005
747.259	-0.0019
747.502	-0.0021
747.746	-0.0019
747.989	-0.0015
748.233	0.0002
748.476	-0.0001
748.719	0.0004
748.963	0.0002
749.206	0.0001
749.449	-0.0001
749.692	0.0003
749.935	-0.0002
750.178	-0.0004
750.421	-0.0008
750.664	-0.0001
750.906	-0
751.149	-0.0008
751.392	-0.0001
751.635	-0.0002
751.877	0.0003
752.12	-0.0004
752.362	0.0001
752.604	0.0003
752.847	0.0004
753.089	0.0003
753.331	-0.0006
753.573	-0.0012
753.816	0.0004
754.058	0.0006
754.3	0.0007
754.542	0.0016
754.783	0.001
755.025	0.0022
755.267	0.0017
755.509	0.001
755.75	0.0001
755.992	0.0007
756.234	0.0009
756.475	0.0017
756.716	-0.0002
756.958	-0.0005
757.199	0.0005
757.44	0.0002
757.682	0.0001
757.923	0.0008
758.164	0.0013
758.405	0.0011
758.646	0.0011
758.887	0.0001
759.128	-0.0004
759.369	-0.0013
759.609	-0.0003
759.85	-0.0003
760.091	0.0004
760.331	0.0011
760.572	0.0005
760.812	-0.0005
761.053	0.0003
761.293	0.0014
761.533	0.0022
761.774	0.0018
762.014	0.0014
762.254	0.0018
762.494	0.0012
762.734	0.0015
762.974	0.0015
763.214	0.0008
763.454	0.0013
763.694	0.0013
763.933	0.0026
764.173	0.0035
764.413	0.0027
764.652	0.0007
764.892	0.0014
765.131	0.0008
765.371	0.0005
765.61	-0.0004
765.849	-0.0018
766.089	-0.0023
766.328	-0.0011
766.567	-0.0034
766.806	-0.0034
767.045	-0.004
767.284	-0.0032
767.523	-0.0028
767.762	-0.0034
768.001	-0.0023
768.239	-0.0028
768.478	-0.0026
768.717	-0.0028
768.955	-0.0027
769.194	-0.0024
769.432	-0.0017
769.671	-0.0013
769.909	-0.002
770.148	-0.0015
770.386	-0.0018
770.624	-0.0017
770.862	-0.002
771.1	-0.0015
771.338	-0.0023
771.576	-0.0017
771.814	0.0002
772.052	-0.0002
772.29	0.0008
772.528	-0.0004
772.765	-0.0016
773.003	-0.0014
773.24	-0.0005
773.478	-0.0007
773.716	0.0016
773.953	0.0013
774.19	0.002
774.428	0.0021
774.665	0.0035
774.902	0.0033
775.139	0.0023
775.376	0.0026
775.613	0.001
775.85	0.0017
776.087	0.002
776.324	0.0006
776.561	-0.001
776.798	-0.0002
777.034	-0.0003
777.271	0.0003
777.508	-0.0001
777.744	0.0015
777.981	0.0006
778.217	-0.0003
778.454	-0.0008
778.69	-0.0005
778.926	-0.0006
779.162	-0.0009
779.399	0.0008
779.635	-0.0002
779.871	-0
780.107	-0.0006
780.343	-0.002
780.579	-0.0009
780.814	-0.0008
781.05	-0.0009
781.286	-0.0015
781.522	-0.002
781.757	-0.002
781.993	-0.0014
782.228	-0.0017
782.464	-0.0008
782.699	-0.0007
782.934	-0.0011
783.17	-0.0006
783.405	0.0004
783.64	-0.0005
783.875	-0.0016
784.11	-0.0013
784.345	-0.0009
784.58	-0.0015
784.815	-0.0012
785.05	-0.0016
785.285	-0.0017
785.52	-0.0006
785.754	-0.0015
785.989	-0.0001
786.223	0.0001
786.458	0.0019
786.692	0.0026
786.927	0.004
787.161	0.0034
787.396	0.0029
787.63	0.0029
787.864	0.0014
788.098	-0.0003
788.332	-0.0001
788.566	-0.0011
788.8	-0.001
789.034	0
789.268	-0.0009
789.502	-0.0005
789.736	-0.0002
789.969	-0.0001
790.203	0.0004
790.437	0.0004
790.67	0.001
790.904	0.0028
791.137	0.0027
791.37	0.0026
791.604	0.0026
791.837	0.0032
792.07	0.0037
792.303	0.0046
792.537	0.0046
792.77	0.0041
793.003	0.0033
793.236	0.0023
793.469	0.0033
793.701	0.0022
793.934	0.0012
794.167	0.0007
794.4	-0.0001
794.632	0.0003
794.865	-0.0005
795.097	-0.0016
795.33	-0.0012
795.562	-0.0007
795.795	-0.001
796.027	-0.0004
796.259	0.0003
796.491	0.0002
796.724	0.0022
796.956	0.0014
797.188	0.0012
797.42	0.001
797.652	0.0015
797.883	0.0019
798.115	0.0027
798.347	0.002
798.579	0.0017
798.81	0.0016
799.042	0.0018
799.274	0.0032
799.505	0.0033
799.737	0.0022
799.968	0.0018
800.199	0.0023
800.431	0.0024
800.662	0.0013
800.893	0.0021
801.124	0.0021
801.355	0.0017
801.586	0.0029
801.817	0.0048
802.048	0.0034
802.279	0.0033
802.51	0.0039
802.741	0.0047
802.971	0.0038
803.202	0.0031
803.433	0.0025
803.663	0.0028
803.894	0.0033
804.124	0.0025
804.354	0.0037
804.585	0.0052
804.815	0.0045
805.045	0.0059
805.275	0.005
805.506	0.0267
805.736	-0.0672
805.966	-0.1811
806.196	-0.1206
