Data from 03 0.4 mM K2Cr2O7 0.25 M BQDS 1 M H2SO4 5 min_Absorbance_0190.txt Node
Date: Wed Dec 15 09:20:12 EST 2021
User: kwabilab-user
Spectrometer: HDX00518
Trigger mode: 0
Integration Time (sec): 5.000000E-2
Scans to average: 50
Nonlinearity correction enabled: false
Boxcar width: 0
Storing dark spectrum: false
XAxis mode: Wavelengths
Number of Pixels in Spectrum: 2068
>>>>>Begin Spectral Data<<<<<
195.27	-0.2002
195.642	0.3802
196.014	-0.0621
196.386	0.0904
196.758	-0.1117
197.129	-0.0234
197.501	-0.0313
197.872	0.0019
198.244	0.0082
198.615	0.0247
198.986	0.0129
199.357	0.0034
199.728	0.0357
200.099	0.0288
200.47	0.0223
200.841	0.0045
201.212	0.0043
201.582	0.0104
201.953	0.023
202.323	0.0079
202.694	0.0238
203.064	-0.0064
203.434	-0.0006
203.804	-0.0002
204.174	0.0057
204.544	0.0184
204.914	-0.0011
205.284	-0.0025
205.653	-0.0202
206.023	0.0046
206.393	0.0231
206.762	0.014
207.131	0.037
207.501	-0.0017
207.87	0.0056
208.239	0.0044
208.608	0.0032
208.977	-0.0163
209.346	0.0004
209.715	0.0161
210.083	0.0067
210.452	-0.0107
210.82	0.0071
211.189	-0.0025
211.557	0.0205
211.925	-0.0212
212.294	0.0034
212.662	0.0104
213.03	-0.0126
213.398	-0.0081
213.766	0.0197
214.133	0.0074
214.501	-0.0065
214.869	-0.0005
215.236	0.0048
215.604	0.0109
215.971	0.0498
216.338	0.0101
216.705	0.0222
217.072	0.0366
217.439	0.0261
217.806	0.0263
218.173	0.0491
218.54	0.0273
218.907	0.0558
219.273	0.0446
219.64	0.0621
220.006	0.0562
220.373	0.0768
220.739	0.0926
221.105	0.1188
221.471	0.1147
221.837	0.147
222.203	0.1681
222.569	0.1614
222.935	0.1934
223.3	0.2173
223.666	0.2206
224.031	0.246
224.397	0.2839
224.762	0.3003
225.127	0.3054
225.493	0.3468
225.858	0.3733
226.223	0.3922
226.588	0.4082
226.952	0.4191
227.317	0.4613
227.682	0.4716
228.046	0.4557
228.411	0.4984
228.775	0.5072
229.14	0.5146
229.504	0.5299
229.868	0.5372
230.232	0.542
230.596	0.5517
230.96	0.568
231.324	0.5718
231.688	0.5614
232.052	0.5894
232.415	0.5849
232.779	0.5824
233.142	0.6056
233.505	0.6014
233.869	0.6036
234.232	0.61
234.595	0.5953
234.958	0.6053
235.321	0.5994
235.684	0.5967
236.047	0.5923
236.409	0.5872
236.772	0.5829
237.134	0.585
237.497	0.5767
237.859	0.5887
238.222	0.5889
238.584	0.5778
238.946	0.5701
239.308	0.5626
239.67	0.5707
240.032	0.566
240.393	0.5678
240.755	0.5559
241.117	0.556
241.478	0.5582
241.84	0.5505
242.201	0.5501
242.562	0.5359
242.924	0.5346
243.285	0.5312
243.646	0.5339
244.007	0.5286
244.368	0.5259
244.728	0.5294
245.089	0.5254
245.45	0.5166
245.81	0.5174
246.171	0.515
246.531	0.5146
246.891	0.5188
247.252	0.5058
247.612	0.5143
247.972	0.4981
248.332	0.5032
248.692	0.4999
249.051	0.4983
249.411	0.5013
249.771	0.5043
250.13	0.4956
250.49	0.4953
250.849	0.4905
251.208	0.4926
251.568	0.4914
251.927	0.4876
252.286	0.4906
252.645	0.4919
253.004	0.4934
253.363	0.485
253.721	0.4902
254.08	0.4869
254.439	0.4864
254.797	0.4859
255.155	0.4872
255.514	0.484
255.872	0.4804
256.23	0.4803
256.588	0.48
256.946	0.48
257.304	0.4821
257.662	0.479
258.02	0.479
258.377	0.4757
258.735	0.4759
259.093	0.473
259.45	0.4741
259.807	0.4747
260.165	0.4746
260.522	0.4731
260.879	0.4685
261.236	0.4665
261.593	0.4664
261.95	0.4617
262.306	0.4651
262.663	0.4637
263.02	0.4616
263.376	0.456
263.733	0.4548
264.089	0.4572
264.445	0.4513
264.802	0.4512
265.158	0.4506
265.514	0.4523
265.87	0.4493
266.226	0.4468
266.581	0.4491
266.937	0.4455
267.293	0.4403
267.648	0.4413
268.004	0.4383
268.359	0.4397
268.714	0.4305
269.07	0.4333
269.425	0.426
269.78	0.4245
270.135	0.4258
270.49	0.4183
270.844	0.4196
271.199	0.4217
271.554	0.4153
271.908	0.4139
272.263	0.4143
272.617	0.409
272.972	0.41
273.326	0.4007
273.68	0.3974
274.034	0.3975
274.388	0.3992
274.742	0.3935
275.096	0.3898
275.45	0.3867
275.803	0.3833
276.157	0.3843
276.51	0.3789
276.864	0.3782
277.217	0.3754
277.571	0.375
277.924	0.3696
278.277	0.3646
278.63	0.3627
278.983	0.3568
279.336	0.352
279.688	0.35
280.041	0.3468
280.394	0.343
280.746	0.3424
281.099	0.3403
281.451	0.3348
281.803	0.3316
282.156	0.327
282.508	0.3251
282.86	0.322
283.212	0.3178
283.564	0.313
283.916	0.309
284.267	0.3079
284.619	0.3057
284.971	0.3024
285.322	0.3003
285.673	0.2948
286.025	0.2907
286.376	0.2909
286.727	0.2863
287.078	0.2817
287.429	0.2794
287.78	0.2749
288.131	0.2721
288.482	0.2687
288.833	0.2664
289.183	0.263
289.534	0.2586
289.884	0.2559
290.235	0.2524
290.585	0.2501
290.935	0.2465
291.285	0.244
291.635	0.2414
291.985	0.2381
292.335	0.2344
292.685	0.2328
293.035	0.2276
293.384	0.2248
293.734	0.2218
294.083	0.2193
294.433	0.2166
294.782	0.2151
295.131	0.209
295.48	0.2087
295.829	0.2063
296.179	0.2024
296.527	0.1995
296.876	0.1961
297.225	0.1926
297.574	0.1902
297.922	0.187
298.271	0.1846
298.619	0.1823
298.968	0.1804
299.316	0.1779
299.664	0.1751
300.012	0.1716
300.36	0.1694
300.708	0.1677
301.056	0.1657
301.404	0.1636
301.752	0.1607
302.099	0.1585
302.447	0.157
302.794	0.1548
303.142	0.1523
303.489	0.149
303.836	0.1482
304.183	0.1478
304.531	0.1448
304.878	0.1423
305.224	0.1411
305.571	0.1399
305.918	0.1377
306.265	0.1361
306.611	0.1345
306.958	0.1343
307.304	0.1325
307.651	0.1316
307.997	0.1302
308.343	0.1286
308.689	0.128
309.035	0.127
309.381	0.1254
309.727	0.1255
310.073	0.1245
310.419	0.1235
310.764	0.1236
311.11	0.1226
311.455	0.122
311.801	0.1211
312.146	0.1197
312.491	0.1203
312.837	0.1196
313.182	0.1185
313.527	0.1183
313.872	0.118
314.216	0.1181
314.561	0.1177
314.906	0.118
315.251	0.1183
315.595	0.1184
315.94	0.1172
316.284	0.1174
316.628	0.1176
316.972	0.1184
317.317	0.1178
317.661	0.1187
318.005	0.1188
318.348	0.119
318.692	0.1189
319.036	0.1197
319.38	0.1206
319.723	0.12
320.067	0.1211
320.41	0.1213
320.754	0.1216
321.097	0.1221
321.44	0.1228
321.783	0.1241
322.126	0.1242
322.469	0.1246
322.812	0.1262
323.155	0.1263
323.498	0.1271
323.84	0.1274
324.183	0.1291
324.525	0.1293
324.868	0.131
325.21	0.1317
325.552	0.1317
325.894	0.1332
326.236	0.1332
326.578	0.135
326.92	0.1355
327.262	0.1356
327.604	0.1374
327.946	0.1379
328.287	0.1387
328.629	0.1403
328.97	0.1411
329.312	0.1416
329.653	0.1437
329.994	0.1442
330.335	0.145
330.676	0.1468
331.017	0.1476
331.358	0.1478
331.699	0.15
332.04	0.1499
332.38	0.1513
332.721	0.1533
333.061	0.1537
333.402	0.155
333.742	0.1557
334.083	0.156
334.423	0.1571
334.763	0.1583
335.103	0.1584
335.443	0.161
335.783	0.161
336.123	0.1617
336.462	0.1631
336.802	0.1636
337.141	0.1648
337.481	0.1655
337.82	0.1662
338.16	0.1671
338.499	0.1681
338.838	0.1694
339.177	0.1697
339.516	0.1708
339.855	0.1713
340.194	0.1721
340.533	0.1719
340.872	0.1734
341.21	0.1744
341.549	0.1741
341.887	0.1754
342.226	0.1746
342.564	0.1759
342.902	0.1769
343.24	0.1757
343.578	0.1772
343.916	0.1772
344.254	0.1779
344.592	0.1782
344.93	0.1783
345.268	0.1779
345.605	0.1788
345.943	0.1784
346.28	0.179
346.618	0.1783
346.955	0.1785
347.292	0.179
347.629	0.1791
347.966	0.1791
348.303	0.1796
348.64	0.1797
348.977	0.1792
349.314	0.1796
349.65	0.1795
349.987	0.1801
350.324	0.1789
350.66	0.1799
350.996	0.1789
351.333	0.1785
351.669	0.1774
352.005	0.1786
352.341	0.1768
352.677	0.1761
353.013	0.1755
353.349	0.1754
353.685	0.174
354.02	0.1737
354.356	0.1736
354.691	0.1719
355.027	0.172
355.362	0.171
355.697	0.1699
356.033	0.1697
356.368	0.1686
356.703	0.1685
357.038	0.1676
357.373	0.1663
357.707	0.1669
358.042	0.1655
358.377	0.1647
358.711	0.1642
359.046	0.1635
359.38	0.163
359.715	0.1628
360.049	0.1612
360.383	0.1601
360.717	0.1587
361.051	0.1586
361.385	0.1585
361.719	0.1564
362.053	0.1557
362.387	0.1532
362.72	0.1535
363.054	0.1517
363.387	0.1504
363.721	0.1497
364.054	0.1481
364.387	0.146
364.721	0.1451
365.054	0.1447
365.387	0.1426
365.72	0.1422
366.053	0.1411
366.385	0.1389
366.718	0.1383
367.051	0.1369
367.383	0.1368
367.716	0.1364
368.048	0.1348
368.381	0.1339
368.713	0.1326
369.045	0.132
369.377	0.1307
369.709	0.1301
370.041	0.1287
370.373	0.1281
370.705	0.1268
371.037	0.1253
371.368	0.124
371.7	0.1237
372.031	0.1222
372.363	0.1209
372.694	0.1201
373.025	0.1181
373.356	0.1177
373.688	0.116
374.019	0.1143
374.35	0.1122
374.68	0.111
375.011	0.1098
375.342	0.1084
375.673	0.107
376.003	0.1053
376.334	0.1048
376.664	0.1032
376.995	0.1027
377.325	0.1003
377.655	0.0992
377.985	0.0985
378.315	0.0976
378.645	0.0965
378.975	0.0962
379.305	0.0941
379.635	0.0939
379.964	0.093
380.294	0.0924
380.623	0.0902
380.953	0.0895
381.282	0.0896
381.611	0.0889
381.941	0.0877
382.27	0.0866
382.599	0.0862
382.928	0.0846
383.257	0.0836
383.585	0.0825
383.914	0.0804
384.243	0.0795
384.571	0.079
384.9	0.0774
385.228	0.0761
385.557	0.0756
385.885	0.0737
386.213	0.0733
386.541	0.0718
386.869	0.071
387.197	0.0698
387.525	0.0689
387.853	0.0677
388.181	0.0663
388.508	0.0659
388.836	0.0642
389.164	0.0638
389.491	0.0631
389.818	0.0615
390.146	0.0613
390.473	0.0606
390.8	0.06
391.127	0.0582
391.454	0.0576
391.781	0.0571
392.108	0.0565
392.435	0.0548
392.761	0.055
393.088	0.0542
393.415	0.0534
393.741	0.0541
394.067	0.054
394.394	0.0526
394.72	0.0517
395.046	0.0505
395.372	0.0502
395.698	0.0495
396.024	0.0488
396.35	0.0484
396.676	0.0477
397.001	0.0465
397.327	0.0462
397.653	0.0451
397.978	0.045
398.303	0.0438
398.629	0.0438
398.954	0.043
399.279	0.0432
399.604	0.0417
399.929	0.0418
400.254	0.0409
400.579	0.0406
400.904	0.0401
401.229	0.0395
401.553	0.0398
401.878	0.0392
402.202	0.0387
402.527	0.0381
402.851	0.0387
403.175	0.0372
403.5	0.0372
403.824	0.0362
404.148	0.0364
404.472	0.0361
404.796	0.0362
405.119	0.036
405.443	0.0354
405.767	0.0351
406.09	0.0354
406.414	0.0349
406.737	0.0355
407.061	0.0354
407.384	0.0349
407.707	0.0337
408.03	0.0339
408.353	0.0336
408.676	0.0339
408.999	0.0339
409.322	0.0332
409.645	0.0339
409.968	0.0336
410.29	0.0335
410.613	0.0343
410.935	0.0329
411.258	0.0333
411.58	0.0317
411.902	0.0327
412.224	0.0324
412.546	0.0326
412.868	0.0333
413.19	0.0322
413.512	0.0326
413.834	0.0323
414.156	0.0332
414.477	0.0315
414.799	0.0326
415.121	0.032
415.442	0.0319
415.763	0.032
416.085	0.0327
416.406	0.0318
416.727	0.0326
417.048	0.0324
417.369	0.0322
417.69	0.0322
418.011	0.0321
418.331	0.0324
418.652	0.0325
418.973	0.0318
419.293	0.0317
419.614	0.0316
419.934	0.0326
420.254	0.0322
420.574	0.0312
420.895	0.0318
421.215	0.0318
421.535	0.0318
421.855	0.031
422.174	0.031
422.494	0.0312
422.814	0.0314
423.134	0.032
423.453	0.0316
423.773	0.0321
424.092	0.0322
424.411	0.0315
424.731	0.0317
425.05	0.0318
425.369	0.0318
425.688	0.0319
426.007	0.0317
426.326	0.0319
426.644	0.0315
426.963	0.0314
427.282	0.0314
427.6	0.0313
427.919	0.0315
428.237	0.0324
428.556	0.0321
428.874	0.0317
429.192	0.032
429.51	0.0314
429.828	0.0317
430.146	0.0322
430.464	0.032
430.782	0.0318
431.1	0.031
431.418	0.032
431.735	0.0309
432.053	0.0317
432.37	0.0315
432.688	0.0312
433.005	0.0313
433.322	0.0322
433.639	0.032
433.957	0.0314
434.274	0.0325
434.591	0.0322
434.907	0.0309
435.224	0.0317
435.541	0.0323
435.858	0.0325
436.174	0.0325
436.491	0.031
436.807	0.031
437.124	0.0316
437.44	0.0311
437.756	0.0313
438.072	0.0309
438.388	0.031
438.704	0.0306
439.02	0.0311
439.336	0.0306
439.652	0.0314
439.968	0.031
440.283	0.0317
440.599	0.0315
440.914	0.0306
441.23	0.0311
441.545	0.031
441.86	0.0314
442.175	0.0311
442.491	0.0303
442.806	0.0303
443.121	0.03
443.435	0.0296
443.75	0.0301
444.065	0.0305
444.38	0.0308
444.694	0.0298
445.009	0.0305
445.323	0.0305
445.638	0.0307
445.952	0.0299
446.266	0.0293
446.58	0.0289
446.894	0.0297
447.208	0.0293
447.522	0.029
447.836	0.0301
448.15	0.0288
448.464	0.0289
448.777	0.0293
449.091	0.0291
449.404	0.0284
449.718	0.0292
450.031	0.0284
450.345	0.0287
450.658	0.0285
450.971	0.0285
451.284	0.0286
451.597	0.0292
451.91	0.0281
452.223	0.0283
452.535	0.0286
452.848	0.0278
453.161	0.0279
453.473	0.0281
453.786	0.028
454.098	0.0273
454.411	0.0275
454.723	0.0284
455.035	0.0268
455.347	0.0269
455.659	0.0278
455.971	0.0274
456.283	0.0273
456.595	0.0276
456.907	0.0274
457.218	0.0273
457.53	0.0264
457.841	0.0265
458.153	0.0262
458.464	0.0261
458.776	0.0263
459.087	0.026
459.398	0.0261
459.709	0.0252
460.02	0.0262
460.331	0.026
460.642	0.0253
460.953	0.0254
461.263	0.0253
461.574	0.025
461.885	0.0262
462.195	0.0243
462.506	0.0252
462.816	0.0252
463.126	0.0248
463.437	0.0245
463.747	0.0234
464.057	0.023
464.367	0.0228
464.677	0.023
464.987	0.0227
465.296	0.0231
465.606	0.0232
465.916	0.022
466.225	0.0223
466.535	0.0229
466.844	0.0234
467.154	0.0232
467.463	0.0228
467.772	0.0221
468.081	0.0224
468.39	0.0222
468.699	0.022
469.008	0.0228
469.317	0.0219
469.626	0.0218
469.935	0.0209
470.243	0.0221
470.552	0.0218
470.86	0.0216
471.169	0.0207
471.477	0.0204
471.785	0.0204
472.093	0.0203
472.402	0.0197
472.71	0.0197
473.018	0.0189
473.326	0.0197
473.633	0.0198
473.941	0.019
474.249	0.0199
474.556	0.0196
474.864	0.0196
475.171	0.0185
475.479	0.019
475.786	0.0197
476.094	0.019
476.401	0.0191
476.708	0.0186
477.015	0.0183
477.322	0.0173
477.629	0.0175
477.936	0.0185
478.242	0.0175
478.549	0.0176
478.856	0.0177
479.162	0.0179
479.469	0.0168
479.775	0.0173
480.081	0.0156
480.388	0.0157
480.694	0.0167
481	0.0167
481.306	0.0163
481.612	0.0164
481.918	0.0165
482.224	0.0166
482.53	0.0158
482.835	0.0155
483.141	0.016
483.446	0.0154
483.752	0.0153
484.057	0.0144
484.363	0.015
484.668	0.0148
484.973	0.0143
485.278	0.0136
485.583	0.0122
485.888	0.0132
486.193	0.0124
486.498	0.014
486.803	0.014
487.107	0.0128
487.412	0.0119
487.717	0.0129
488.021	0.0132
488.325	0.0123
488.63	0.012
488.934	0.013
489.238	0.0126
489.542	0.0118
489.846	0.0122
490.15	0.0121
490.454	0.0131
490.758	0.0124
491.062	0.0125
491.366	0.0115
491.669	0.0112
491.973	0.0117
492.276	0.0115
492.58	0.0094
492.883	0.0121
493.186	0.0103
493.489	0.0113
493.792	0.0099
494.096	0.0099
494.399	0.0104
494.701	0.0098
495.004	0.0085
495.307	0.0097
495.61	0.01
495.912	0.0105
496.215	0.0099
496.517	0.0106
496.82	0.0089
497.122	0.0093
497.424	0.0102
497.727	0.0088
498.029	0.009
498.331	0.0088
498.633	0.0083
498.935	0.0084
499.237	0.0095
499.538	0.0078
499.84	0.0084
500.142	0.0077
500.443	0.0081
500.745	0.0078
501.046	0.0086
501.348	0.0074
501.649	0.0073
501.95	0.0071
502.251	0.0084
502.552	0.007
502.853	0.0083
503.154	0.0082
503.455	0.0072
503.756	0.0077
504.057	0.0072
504.357	0.0076
504.658	0.0074
504.958	0.0063
505.259	0.0075
505.559	0.0063
505.859	0.0063
506.16	0.0058
506.46	0.0059
506.76	0.0062
507.06	0.0058
507.36	0.0055
507.66	0.006
507.96	0.0066
508.259	0.0056
508.559	0.0055
508.859	0.006
509.158	0.0062
509.457	0.0055
509.757	0.0055
510.056	0.0056
510.355	0.0061
510.655	0.0045
510.954	0.0046
511.253	0.0047
511.552	0.0055
511.851	0.0051
512.149	0.0045
512.448	0.0039
512.747	0.0053
513.045	0.0042
513.344	0.0049
513.642	0.0043
513.941	0.0047
514.239	0.0045
514.537	0.0044
514.836	0.005
515.134	0.0049
515.432	0.0046
515.73	0.0026
516.028	0.0042
516.326	0.0031
516.623	0.0027
516.921	0.0036
517.219	0.0056
517.516	0.0037
517.814	0.0043
518.111	0.0042
518.409	0.0039
518.706	0.004
519.003	0.0033
519.3	0.0031
519.597	0.0037
519.894	0.0035
520.191	0.005
520.488	0.0044
520.785	0.003
521.082	0.0038
521.378	0.0043
521.675	0.0032
521.971	0.0037
522.268	0.0042
522.564	0.0039
522.861	0.0045
523.157	0.0035
523.453	0.0037
523.749	0.0037
524.045	0.0028
524.341	0.0032
524.637	0.0027
524.933	0.0039
525.229	0.0035
525.524	0.0032
525.82	0.0029
526.115	0.0039
526.411	0.0031
526.706	0.003
527.002	0.0039
527.297	0.0027
527.592	0.0037
527.887	0.0022
528.182	0.0022
528.477	0.0028
528.772	0.0016
529.067	0.0023
529.362	0.0035
529.657	0.0031
529.951	0.0025
530.246	0.002
530.54	0.002
530.835	0.0025
531.129	0.0041
531.423	0.0027
531.718	0.0028
532.012	0.0032
532.306	0.0036
532.6	0.0028
532.894	0.0023
533.188	0.0017
533.482	0.0025
533.775	0.0032
534.069	0.0027
534.363	0.0025
534.656	0.0023
534.95	0.0027
535.243	0.0023
535.536	0.0022
535.83	0.0022
536.123	0.0011
536.416	0.0021
536.709	0.0028
537.002	0.0035
537.295	0.0032
537.588	0.0028
537.881	0.002
538.173	0.0024
538.466	0.0029
538.759	0.0022
539.051	0.0036
539.344	0.0029
539.636	0.0029
539.928	0.0042
540.22	0.0022
540.513	0.0036
540.805	0.0032
541.097	0.0028
541.389	0.003
541.681	0.0029
541.972	0.0015
542.264	0.0041
542.556	0.0031
542.847	0.0029
543.139	0.0035
543.431	0.0021
543.722	0.0027
544.013	0.0029
544.305	0.003
544.596	0.0029
544.887	0.0028
545.178	0.0042
545.469	0.0035
545.76	0.0033
546.051	0.0043
546.342	0.003
546.632	0.0029
546.923	0.0032
547.214	0.0029
547.504	0.0039
547.795	0.0026
548.085	0.0024
548.375	0.004
548.666	0.0047
548.956	0.003
549.246	0.0036
549.536	0.0043
549.826	0.004
550.116	0.0034
550.406	0.0038
550.695	0.0035
550.985	0.0036
551.275	0.0046
551.564	0.0045
551.854	0.0035
552.143	0.0033
552.433	0.0038
552.722	0.0037
553.011	0.0041
553.3	0.0033
553.589	0.0043
553.879	0.0036
554.167	0.0029
554.456	0.0026
554.745	0.0035
555.034	0.0042
555.323	0.0028
555.611	0.0039
555.9	0.0039
556.188	0.0027
556.477	0.0025
556.765	0.0035
557.053	0.004
557.342	0.0029
557.63	0.0036
557.918	0.0034
558.206	0.0036
558.494	0.004
558.782	0.0038
559.069	0.0035
559.357	0.003
559.645	0.0045
559.932	0.0026
560.22	0.0033
560.507	0.002
560.795	0.0021
561.082	0.0018
561.37	0.0027
561.657	0.0016
561.944	0.0027
562.231	0.0031
562.518	0.0029
562.805	0.0037
563.092	0.0025
563.379	0.0027
563.665	0.0033
563.952	0.0042
564.239	0.0038
564.525	0.0033
564.811	0.0032
565.098	0.0027
565.384	0.0031
565.67	0.0037
565.957	0.0045
566.243	0.0036
566.529	0.0032
566.815	0.0037
567.101	0.0027
567.387	0.0028
567.672	0.0029
567.958	0.002
568.244	0.002
568.529	0.0029
568.815	0.0027
569.1	0.0021
569.386	0.0033
569.671	0.0026
569.956	0.0026
570.242	0.0023
570.527	0.0018
570.812	0.0025
571.097	0.0021
571.382	0.0008
571.666	0.0018
571.951	0.0027
572.236	0.0019
572.521	0.0027
572.805	0.0031
573.09	0.0024
573.374	0.0009
573.659	0.0016
573.943	0.0019
574.227	0.0024
574.511	0.0027
574.795	0.003
575.079	0.0029
575.363	0.0021
575.647	0.0023
575.931	0.0034
576.215	0.0029
576.499	0.0013
576.782	0.0019
577.066	0.0025
577.349	0.0029
577.633	0.003
577.916	0.0011
578.2	0.0023
578.483	0.0032
578.766	0.0038
579.049	0.0023
579.332	0.0026
579.615	0.0016
579.898	0.0017
580.181	0.0023
580.464	0.0023
580.746	0.0025
581.029	0.0031
581.312	0.0007
581.594	0.0001
581.877	0.0019
582.159	0.0036
582.441	0.0021
582.724	0.003
583.006	0.0032
583.288	0.003
583.57	0.0027
583.852	0.0037
584.134	0.0033
584.416	0.0018
584.697	0.002
584.979	0.0011
585.261	0.0013
585.542	0.0026
585.824	0.0026
586.105	0.0025
586.387	0.0036
586.668	0.003
586.949	0.0032
587.231	0.0034
587.512	0.0026
587.793	0.0021
588.074	0.0032
588.355	0.0025
588.636	0.0021
588.916	0.0024
589.197	0.0026
589.478	0.0033
589.758	0.0021
590.039	0.0018
590.319	0.0021
590.6	0.0022
590.88	0.0012
591.16	0.0027
591.441	0.0028
591.721	0.0017
592.001	0.0011
592.281	0.0019
592.561	0.0026
592.841	0.0014
593.12	0.0016
593.4	0.0025
593.68	0.002
593.959	0.002
594.239	0.0032
594.518	0.0034
594.798	0.0025
595.077	0.0021
595.356	0.0019
595.636	0.0024
595.915	0.0017
596.194	0.0028
596.473	0.0026
596.752	0.0024
597.031	0.0023
597.31	0.0012
597.588	0.0017
597.867	0.0014
598.146	0.0018
598.424	0.0008
598.703	0.0013
598.981	0.0004
599.259	0.0005
599.538	0.0028
599.816	0.0029
600.094	0.0018
600.372	0.0019
600.65	0.0037
600.928	0.003
601.206	0.002
601.484	0.0031
601.762	0.0032
602.04	0.0038
602.317	0.003
602.595	0.0034
602.872	0.0028
603.15	0.004
603.427	0.0008
603.704	0.0007
603.982	0.0014
604.259	0.0019
604.536	0.0021
604.813	0.0023
605.09	0.0022
605.367	0.0012
605.644	0.0016
605.921	0.0011
606.197	0.0012
606.474	0.0021
606.751	0.0016
607.027	0.0013
607.304	0.0019
607.58	0.0016
607.856	0.0025
608.133	0.0031
608.409	0.0035
608.685	0.0035
608.961	0.003
609.237	0.0034
609.513	0.004
609.789	0.0021
610.065	0.002
610.341	0.0018
610.616	0.0031
610.892	0.0039
611.167	0.0026
611.443	0.0036
611.718	0.0026
611.994	0.003
612.269	0.0021
612.544	0.0027
612.819	0.0016
613.095	0.0022
613.37	0.0017
613.645	0.0006
613.919	0.0027
614.194	0.0026
614.469	0.0019
614.744	0.0015
615.019	0.0013
615.293	0.001
615.568	0.002
615.842	0.0009
616.116	0.0017
616.391	0.001
616.665	0.0001
616.939	0.0002
617.213	0.0012
617.488	0.002
617.762	0.0022
618.035	0.0027
618.309	0.0017
618.583	0.002
618.857	0.003
619.131	0.0024
619.404	0.002
619.678	0.0034
619.951	0.0019
620.225	0.0013
620.498	0.0016
620.771	0.0015
621.045	0.0025
621.318	0.0026
621.591	0.0027
621.864	0.0007
622.137	0.0008
622.41	0.0015
622.683	0.0014
622.956	0.0009
623.228	0.0011
623.501	0.0024
623.774	0.0028
624.046	0.002
624.319	0.0016
624.591	0.0013
624.863	0.0013
625.136	0.0033
625.408	0.003
625.68	0.0029
625.952	0.0031
626.224	0.0038
626.496	0.003
626.768	0.0026
627.04	0.0034
627.311	0.0027
627.583	0.0039
627.855	0.0035
628.126	0.0018
628.398	0.002
628.669	0.0017
628.941	0.0014
629.212	-0
629.483	0.0022
629.755	0.0014
630.026	0.0028
630.297	0.0017
630.568	0.0021
630.839	0.0032
631.11	0.0032
631.38	0.0028
631.651	0.0023
631.922	0.0034
632.192	0.0022
632.463	0.0033
632.733	0.0017
633.004	0.0021
633.274	0.0017
633.545	0.0012
633.815	0.0031
634.085	0.003
634.355	0.0029
634.625	0.0026
634.895	0.0028
635.165	0.0022
635.435	0.003
635.705	0.0021
635.974	0.0021
636.244	0.0013
636.514	0.0005
636.783	0.0022
637.053	0.002
637.322	0.0017
637.591	0.0017
637.861	0.0002
638.13	0.0014
638.399	0.0031
638.668	0.0022
638.937	0.0043
639.206	0.0029
639.475	0.0032
639.744	0.0028
640.013	0.0023
640.281	0.0025
640.55	0.0022
640.819	0.0019
641.087	0.0028
641.356	0.003
641.624	0.0018
641.892	0.0022
642.161	0.0021
642.429	0.0024
642.697	0.0033
642.965	0.0018
643.233	0.0007
643.501	0.0018
643.769	0.0012
644.037	0.0014
644.305	0.0013
644.572	0.0014
644.84	0.0004
645.108	0.0019
645.375	0.0022
645.643	0.002
645.91	0.0015
646.177	0.0027
646.445	0.0016
646.712	0.0023
646.979	0.0024
647.246	0.0037
647.513	0.0025
647.78	0.0026
648.047	0.0004
648.314	-0.0003
648.58	-0.0008
648.847	-0.0013
649.114	-0.0012
649.38	-0.0013
649.647	-0.0007
649.913	0.0003
650.18	0.0008
650.446	0.0022
650.712	0.0021
650.978	0.0027
651.245	0.0029
651.511	0.0035
651.777	0.0029
652.043	0.0018
652.309	0.002
652.574	0.0017
652.84	0.0026
653.106	0.0028
653.371	0.0035
653.637	0.0036
653.903	0.0029
654.168	0.003
654.433	0.0028
654.699	0.0018
654.964	0.0003
655.229	0.0004
655.494	0.0006
655.759	-0.0033
656.024	-0.0001
656.289	-0
656.554	0.0032
656.819	0.0041
657.084	0.0038
657.349	0.0033
657.613	0.0034
657.878	0.0013
658.142	0.0012
658.407	0.0013
658.671	0.002
658.936	0.0018
659.2	0.0023
659.464	0.0019
659.728	0.0016
659.992	0.0007
660.256	-0.0003
660.52	0.0006
660.784	0.0011
661.048	0.0006
661.312	0.0013
661.575	0.0019
661.839	0.0026
662.103	0.0021
662.366	0.0014
662.63	0.0019
662.893	0.0011
663.156	0.0019
663.42	0.0037
663.683	0.0023
663.946	0.0032
664.209	0.0036
664.472	0.0029
664.735	0.0029
664.998	0.004
665.261	0.0032
665.524	0.0036
665.786	0.0031
666.049	0.0029
666.312	0.003
666.574	0.0026
666.837	0.0043
667.099	0.0032
667.361	0.0036
667.624	0.0032
667.886	0.0033
668.148	0.0042
668.41	0.0036
668.672	0.0041
668.934	0.0034
669.196	0.0031
669.458	0.0016
669.72	0.0018
669.982	0.0023
670.243	0.0012
670.505	0.0029
670.766	0.0017
671.028	0.0022
671.289	0.0028
671.551	0.0012
671.812	0.0006
672.073	0.0013
672.334	0.0019
672.596	0.0014
672.857	0.0029
673.118	0.0034
673.379	0.0042
673.639	0.0035
673.9	0.0027
674.161	0.0025
674.422	0.0034
674.682	0.002
674.943	0.0015
675.203	0.0018
675.464	0.0018
675.724	0.0019
675.985	0.0013
676.245	0.0019
676.505	0.0003
676.765	0.0006
677.025	0.0013
677.285	0.0008
677.545	0.0008
677.805	0.0001
678.065	0.0018
678.325	0.0029
678.585	0.003
678.844	0.0031
679.104	0.0042
679.363	0.005
679.623	0.0043
679.882	0.0048
680.142	0.0052
680.401	0.0046
680.66	0.005
680.919	0.0029
681.178	0.0046
681.437	0.0036
681.696	0.0028
681.955	0.0051
682.214	0.0047
682.473	0.0047
682.732	0.0028
682.99	0.0051
683.249	0.0054
683.508	0.0043
683.766	0.0043
684.024	0.0029
684.283	0.0015
684.541	0.0018
684.799	0.0013
685.058	-0.0005
685.316	-0.0008
685.574	-0.0015
685.832	-0.0004
686.09	-0
686.348	-0.0006
686.606	0
686.863	0
687.121	0.0008
687.379	-0.0007
687.636	-0.0011
687.894	0.0001
688.151	-0.0003
688.409	0.0008
688.666	0.0013
688.923	0.0005
689.181	0.0007
689.438	0.0003
689.695	0.0003
689.952	0.0005
690.209	0.0001
690.466	0.0005
690.723	0.0004
690.979	-0.0001
691.236	0.0003
691.493	-0.0015
691.75	0.0004
692.006	-0.0001
692.263	-0.0015
692.519	-0.0009
692.775	-0.0018
693.032	-0.0021
693.288	-0.0025
693.544	-0.0013
693.8	0.0002
694.056	-0.0006
694.313	-0.0008
694.568	0.0003
694.824	0.0005
695.08	0
695.336	0.0007
695.592	-0.0006
695.847	0.0018
696.103	0.0028
696.359	0.003
696.614	0.003
696.869	0.0004
697.125	-0.0013
697.38	-0.0003
697.635	0.0011
697.891	0.0019
698.146	0.0017
698.401	0.0017
698.656	0.0008
698.911	0.0021
699.166	0.0017
699.42	0.0027
699.675	0.003
699.93	0.0031
700.185	0.0033
700.439	0.0027
700.694	0.0017
700.948	0.0011
701.203	0.0018
701.457	0.0017
701.711	0.0019
701.965	0.0004
702.22	0.0006
702.474	0.0006
702.728	-0.0006
702.982	0.0005
703.236	0.0008
703.49	0.0013
703.743	0.0006
703.997	0.0009
704.251	0.0002
704.504	0.0014
704.758	0.0016
705.012	0.002
705.265	0.0022
705.518	0.0024
705.772	0.0026
706.025	0.0029
706.278	0.0017
706.531	0.0014
706.785	-0.001
707.038	-0.0008
707.291	-0.0007
707.543	-0.0013
707.796	0.0001
708.049	-0.0005
708.302	-0.0008
708.555	-0.0009
708.807	0.0003
709.06	0.0007
709.312	0.0018
709.565	0.0022
709.817	0.0041
710.069	0.0021
710.322	0.0031
710.574	0.003
710.826	0.0017
711.078	0.0016
711.33	0.0021
711.582	0.0025
711.834	0.0014
712.086	0.0017
712.338	0.0014
712.59	0.0001
712.841	-0.001
713.093	-0.0003
713.344	0.0006
713.596	-0.0009
713.847	-0.0004
714.099	-0.0009
714.35	0.0005
714.601	-0.001
714.853	-0.0018
715.104	-0.0011
715.355	-0.0016
715.606	0.0012
715.857	0.0004
716.108	0.002
716.359	0.0024
716.609	0.0015
716.86	0.0024
717.111	0.0012
717.361	0.0017
717.612	0.0015
717.863	0.002
718.113	0.0018
718.363	0.0013
718.614	0.0022
718.864	0.0018
719.114	0.0014
719.364	0.0003
719.614	-0
719.865	0.0003
720.114	0.0013
720.364	0.001
720.614	-0
720.864	-0.0004
721.114	-0.0012
721.364	-0.0003
721.613	-0.0006
721.863	-0.0005
722.112	-0.0003
722.362	-0.0006
722.611	0.0009
722.86	0.0013
723.11	0.0021
723.359	0.0018
723.608	0.0017
723.857	0.0034
724.106	0.0021
724.355	0.0016
724.604	0.0014
724.853	0.0009
725.102	-0.0006
725.351	-0.0021
725.599	-0.0028
725.848	-0.0014
726.097	-0.0002
726.345	-0.0008
726.594	0.0002
726.842	0.0005
727.09	-0.0011
727.339	0.0002
727.587	-0.0006
727.835	-0.0014
728.083	-0.002
728.331	-0.002
728.579	-0.0002
728.827	-0.0015
729.075	-0.0029
729.323	-0.0025
729.571	-0.0024
729.818	-0.0033
730.066	-0.0018
730.314	-0.0015
730.561	-0.001
730.809	-0.0033
731.056	-0.0033
731.303	-0.0025
731.551	-0.0023
731.798	-0.0028
732.045	-0.0008
732.292	-0.0012
732.539	-0.0011
732.786	-0.0023
733.033	-0.0025
733.28	-0.0014
733.527	-0.0018
733.774	-0.003
734.021	-0.0034
734.267	-0.0021
734.514	-0.0023
734.76	-0.0022
735.007	-0.0017
735.253	-0.0017
735.5	0.0006
735.746	0.0013
735.992	0.0015
736.238	0.0019
736.485	0.0013
736.731	0.0021
736.977	0.0002
737.223	-0.0008
737.469	0
737.715	0.0013
737.96	0.0011
738.206	0.0009
738.452	0.0019
738.697	0.0009
738.943	-0.0001
739.189	-0.0007
739.434	-0.0004
739.679	0.0007
739.925	0.0029
740.17	0.0028
740.415	0.002
740.66	0.002
740.906	0.0022
741.151	0.0011
741.396	0.0006
741.641	0.0002
741.886	0.0001
742.13	-0.0001
742.375	0.001
742.62	-0.0008
742.865	-0.0002
743.109	0.0005
743.354	-0.0011
743.598	-0.0017
743.843	-0.0022
744.087	-0.0022
744.331	-0.0022
744.576	-0.0015
744.82	-0.0006
745.064	0.0005
745.308	0.0006
745.552	-0
745.796	-0.0012
746.04	-0.0008
746.284	-0.0009
746.528	0.0003
746.771	-0.0006
747.015	-0.0008
747.259	-0.0008
747.502	-0.0014
747.746	-0.0003
747.989	0.0007
748.233	0.0014
748.476	0.0016
748.719	0.0016
748.963	0.0014
749.206	0.001
749.449	-0.0001
749.692	0.0001
749.935	0.0002
750.178	0.0003
750.421	-0.0001
750.664	0.0006
750.906	0.0004
751.149	-0
751.392	0.0006
751.635	-0.0002
751.877	0.0006
752.12	0.0002
752.362	0.0011
752.604	0.0022
752.847	0.0004
753.089	0.0006
753.331	0.0006
753.573	0.0008
753.816	0.0008
754.058	0.0013
754.3	0.0018
754.542	0.0027
754.783	0.0026
755.025	0.0023
755.267	0.002
755.509	0.0019
755.75	0.0003
755.992	0.0009
756.234	0.001
756.475	0.0015
756.716	0.0003
756.958	0.0002
757.199	0.0012
757.44	0.0014
757.682	-0.0002
757.923	0.0017
758.164	0.003
758.405	0.0023
758.646	0.0028
758.887	0.0018
759.128	0.0011
759.369	-0.0001
759.609	-0.0002
759.85	0.0008
760.091	0.0009
760.331	0.0007
760.572	0.0006
760.812	0.0003
761.053	0.0008
761.293	0.0015
761.533	0.0022
761.774	0.0025
762.014	0.0018
762.254	0.0017
762.494	0.0014
762.734	0.0009
762.974	0.0014
763.214	0.0011
763.454	0.0018
763.694	0.0017
763.933	0.0031
764.173	0.0044
764.413	0.0033
764.652	0.001
764.892	0.0012
765.131	0.0008
765.371	0.0006
765.61	-0.0002
765.849	-0.0016
766.089	-0.0015
766.328	-0.0019
766.567	-0.002
766.806	-0.0018
767.045	-0.0022
767.284	-0.0016
767.523	-0.0015
767.762	-0.002
768.001	-0.0023
768.239	-0.0022
768.478	-0.0022
768.717	-0.0021
768.955	-0.0022
769.194	-0.0008
769.432	0
769.671	-0.0008
769.909	-0.0006
770.148	-0.0003
770.386	-0.0012
770.624	-0.0002
770.862	-0.0011
771.1	-0.0008
771.338	-0.0022
771.576	-0.0006
771.814	0.0007
772.052	-0.0005
772.29	0.0013
772.528	0
772.765	-0.0003
773.003	-0.0004
773.24	0.0005
773.478	0.0006
773.716	0.0024
773.953	0.0014
774.19	0.0018
774.428	0.0024
774.665	0.0031
774.902	0.0025
775.139	0.0022
775.376	0.0019
775.613	0.0023
775.85	0.0022
776.087	0.0021
776.324	0.0019
776.561	0.0019
776.798	0.0017
777.034	0.0016
777.271	0.0017
777.508	0.0006
777.744	0.0026
777.981	0.0022
778.217	0.0018
778.454	0.0015
778.69	0.0008
778.926	0.0011
779.162	0.0006
779.399	0.001
779.635	0.0005
779.871	0.0006
780.107	0.0001
780.343	-0.001
780.579	0.0008
780.814	0.0002
781.05	0.0001
781.286	-0.001
781.522	-0.0004
781.757	-0.0017
781.993	-0.0002
782.228	-0.0011
782.464	-0.0001
782.699	-0.0004
782.934	-0.0005
783.17	0.0004
783.405	0.0011
783.64	0.0001
783.875	-0.0007
784.11	-0.0013
784.345	-0
784.58	0.0009
784.815	0.0004
785.05	-0.0007
785.285	-0.0009
785.52	-0.0006
785.754	-0.0005
785.989	0
786.223	0.0018
786.458	0.0031
786.692	0.0037
786.927	0.0044
787.161	0.0039
787.396	0.0047
787.63	0.0033
787.864	0.0029
788.098	0.0008
788.332	0.001
788.566	0.0007
788.8	0.0003
789.034	0.0006
789.268	0
789.502	-0.0004
789.736	0.0002
789.969	0.001
790.203	0.0007
790.437	0.0013
790.67	0.0019
790.904	0.0024
791.137	0.0039
791.37	0.0044
791.604	0.0039
791.837	0.0041
792.07	0.0047
792.303	0.005
792.537	0.0055
792.77	0.0051
793.003	0.0038
793.236	0.0036
793.469	0.0031
793.701	0.0023
793.934	0.0019
794.167	0.0002
794.4	-0.0003
794.632	-0.0002
794.865	-0.001
795.097	-0.0013
795.33	-0.0006
795.562	-0.0005
795.795	-0.0008
796.027	0.0001
796.259	0.001
796.491	0.0001
796.724	0.0011
796.956	0.0011
797.188	0.0006
797.42	0.0004
797.652	0.0012
797.883	0.0016
798.115	0.0022
798.347	0.002
798.579	0.0025
798.81	0.002
799.042	0.0021
799.274	0.0034
799.505	0.003
799.737	0.002
799.968	0.0023
800.199	0.0017
800.431	0.0022
800.662	0.001
800.893	0.001
801.124	0.0016
801.355	0.003
801.586	0.0032
801.817	0.0053
802.048	0.0053
802.279	0.0055
802.51	0.0051
802.741	0.0058
802.971	0.0055
803.202	0.0041
803.433	0.0037
803.663	0.0032
803.894	0.0033
804.124	0.0029
804.354	0.0032
804.585	0.0048
804.815	0.0055
805.045	0.0046
805.275	0.0034
805.506	0.0173
805.736	-0.122
805.966	-0.2366
806.196	-0.0607
