Data from 03 0.4 mM K2Cr2O7 0.25 M BQDS 1 M H2SO4 5 min_Absorbance_0020.txt Node
Date: Tue Dec 14 19:10:12 EST 2021
User: kwabilab-user
Spectrometer: HDX00518
Trigger mode: 0
Integration Time (sec): 5.000000E-2
Scans to average: 50
Nonlinearity correction enabled: false
Boxcar width: 0
Storing dark spectrum: false
XAxis mode: Wavelengths
Number of Pixels in Spectrum: 2068
>>>>>Begin Spectral Data<<<<<
195.27	-0.0493
195.642	0.4078
196.014	-0.1211
196.386	-0.0803
196.758	-0.0915
197.129	-0.0134
197.501	-0.0361
197.872	0.0004
198.244	0.0023
198.615	0.0384
198.986	0.0284
199.357	0.0437
199.728	0.0531
200.099	0.0153
200.47	0.0246
200.841	0.0243
201.212	0.0296
201.582	0.0491
201.953	0.0203
202.323	0.0358
202.694	0.0179
203.064	-0.0069
203.434	0.0138
203.804	0.018
204.174	0.0067
204.544	0.026
204.914	0.0148
205.284	0.0155
205.653	0.015
206.023	0.0131
206.393	0.024
206.762	0.0335
207.131	0.0204
207.501	0.0287
207.87	0.0085
208.239	0.0188
208.608	0.0398
208.977	0.0225
209.346	0.0005
209.715	0.0206
210.083	0.0184
210.452	0.0353
210.82	0.0118
211.189	0.0131
211.557	0.0276
211.925	0.0276
212.294	0.0195
212.662	0.0324
213.03	0.0515
213.398	0.0236
213.766	0.0025
214.133	0.0349
214.501	0.0075
214.869	0.009
215.236	0.0127
215.604	0.0361
215.971	0.0543
216.338	0.0214
216.705	0.055
217.072	0.047
217.439	0.0277
217.806	0.0396
218.173	0.0518
218.54	0.0535
218.907	0.0722
219.273	0.0753
219.64	0.0849
220.006	0.0851
220.373	0.0981
220.739	0.1074
221.105	0.1367
221.471	0.1526
221.837	0.1558
222.203	0.1832
222.569	0.1968
222.935	0.2147
223.3	0.2215
223.666	0.2708
224.031	0.2839
224.397	0.3018
224.762	0.3342
225.127	0.3417
225.493	0.366
225.858	0.4035
226.223	0.4342
226.588	0.448
226.952	0.4501
227.317	0.4784
227.682	0.5241
228.046	0.5145
228.411	0.5491
228.775	0.5578
229.14	0.5604
229.504	0.5725
229.868	0.5877
230.232	0.605
230.596	0.624
230.96	0.6271
231.324	0.6238
231.688	0.6432
232.052	0.6601
232.415	0.6527
232.779	0.6556
233.142	0.6653
233.505	0.6648
233.869	0.6876
234.232	0.6683
234.595	0.6718
234.958	0.6738
235.321	0.6803
235.684	0.6711
236.047	0.6701
236.409	0.661
236.772	0.6767
237.134	0.6671
237.497	0.6649
237.859	0.6751
238.222	0.6708
238.584	0.6611
238.946	0.6692
239.308	0.667
239.67	0.6624
240.032	0.658
240.393	0.6616
240.755	0.6457
241.117	0.6522
241.478	0.6494
241.84	0.6461
242.201	0.6479
242.562	0.6444
242.924	0.6406
243.285	0.6324
243.646	0.6371
244.007	0.6391
244.368	0.6412
244.728	0.6363
245.089	0.6321
245.45	0.6275
245.81	0.6304
246.171	0.6236
246.531	0.6298
246.891	0.6279
247.252	0.6205
247.612	0.6297
247.972	0.6271
248.332	0.6195
248.692	0.622
249.051	0.6185
249.411	0.6185
249.771	0.6185
250.13	0.6223
250.49	0.6172
250.849	0.6169
251.208	0.6134
251.568	0.6199
251.927	0.6133
252.286	0.6186
252.645	0.6206
253.004	0.6198
253.363	0.6155
253.721	0.619
254.08	0.6208
254.439	0.6185
254.797	0.6108
255.155	0.6148
255.514	0.617
255.872	0.6185
256.23	0.6135
256.588	0.6231
256.946	0.6166
257.304	0.6135
257.662	0.6234
258.02	0.6183
258.377	0.6121
258.735	0.6136
259.093	0.609
259.45	0.6168
259.807	0.6166
260.165	0.6155
260.522	0.6152
260.879	0.6086
261.236	0.6109
261.593	0.6132
261.95	0.6062
262.306	0.6084
262.663	0.602
263.02	0.6039
263.376	0.6042
263.733	0.6054
264.089	0.6048
264.445	0.6027
264.802	0.601
265.158	0.5949
265.514	0.5995
265.87	0.5942
266.226	0.592
266.581	0.5952
266.937	0.5889
267.293	0.5851
267.648	0.5822
268.004	0.5816
268.359	0.5838
268.714	0.5746
269.07	0.579
269.425	0.5757
269.78	0.5689
270.135	0.5676
270.49	0.5684
270.844	0.5676
271.199	0.5597
271.554	0.5556
271.908	0.5562
272.263	0.553
272.617	0.5496
272.972	0.5492
273.326	0.5478
273.68	0.5387
274.034	0.5381
274.388	0.5337
274.742	0.5317
275.096	0.5276
275.45	0.5274
275.803	0.5198
276.157	0.5171
276.51	0.5117
276.864	0.5083
277.217	0.5096
277.571	0.5042
277.924	0.4991
278.277	0.4976
278.63	0.4908
278.983	0.4864
279.336	0.48
279.688	0.4783
280.041	0.472
280.394	0.4681
280.746	0.4645
281.099	0.4585
281.451	0.4569
281.803	0.4512
282.156	0.4466
282.508	0.4409
282.86	0.4367
283.212	0.4384
283.564	0.4283
283.916	0.4229
284.267	0.4188
284.619	0.4186
284.971	0.4123
285.322	0.412
285.673	0.4067
286.025	0.3988
286.376	0.3986
286.727	0.391
287.078	0.3861
287.429	0.3836
287.78	0.3791
288.131	0.3742
288.482	0.3697
288.833	0.3657
289.183	0.3623
289.534	0.3574
289.884	0.3548
290.235	0.3501
290.585	0.3459
290.935	0.3415
291.285	0.3396
291.635	0.3329
291.985	0.3302
292.335	0.3262
292.685	0.3216
293.035	0.3177
293.384	0.3137
293.734	0.3102
294.083	0.3062
294.433	0.3033
294.782	0.3002
295.131	0.293
295.48	0.2912
295.829	0.2877
296.179	0.2842
296.527	0.2792
296.876	0.2763
297.225	0.2717
297.574	0.2682
297.922	0.2645
298.271	0.2618
298.619	0.257
298.968	0.2556
299.316	0.2513
299.664	0.2498
300.012	0.2453
300.36	0.2421
300.708	0.239
301.056	0.2366
301.404	0.2334
301.752	0.2308
302.099	0.2275
302.447	0.2246
302.794	0.2223
303.142	0.2191
303.489	0.2165
303.836	0.214
304.183	0.2128
304.531	0.21
304.878	0.2084
305.224	0.2048
305.571	0.2036
305.918	0.2017
306.265	0.1996
306.611	0.1973
306.958	0.1956
307.304	0.1944
307.651	0.1932
307.997	0.1909
308.343	0.1906
308.689	0.1891
309.035	0.1874
309.381	0.1857
309.727	0.1845
310.073	0.1839
310.419	0.1829
310.764	0.1822
311.11	0.1807
311.455	0.1805
311.801	0.1786
312.146	0.1786
312.491	0.1781
312.837	0.1769
313.182	0.1765
313.527	0.1753
313.872	0.1753
314.216	0.1757
314.561	0.1749
314.906	0.1745
315.251	0.1746
315.595	0.1745
315.94	0.1742
316.284	0.1737
316.628	0.1742
316.972	0.1744
317.317	0.1744
317.661	0.1747
318.005	0.1744
318.348	0.1747
318.692	0.1745
319.036	0.1756
319.38	0.1765
319.723	0.1762
320.067	0.1773
320.41	0.1771
320.754	0.1781
321.097	0.178
321.44	0.1792
321.783	0.1797
322.126	0.1809
322.469	0.1811
322.812	0.1821
323.155	0.1833
323.498	0.185
323.84	0.1848
324.183	0.1856
324.525	0.1869
324.868	0.188
325.21	0.1889
325.552	0.1903
325.894	0.1903
326.236	0.1911
326.578	0.1926
326.92	0.1944
327.262	0.1943
327.604	0.1955
327.946	0.1972
328.287	0.1983
328.629	0.1997
328.97	0.2004
329.312	0.2016
329.653	0.2025
329.994	0.2036
330.335	0.2049
330.676	0.207
331.017	0.2079
331.358	0.209
331.699	0.2105
332.04	0.2118
332.38	0.2127
332.721	0.214
333.061	0.2152
333.402	0.2164
333.742	0.2175
334.083	0.2188
334.423	0.2198
334.763	0.2213
335.103	0.2224
335.443	0.223
335.783	0.2241
336.123	0.2245
336.462	0.2264
336.802	0.2271
337.141	0.2283
337.481	0.2298
337.82	0.2304
338.16	0.2312
338.499	0.232
338.838	0.2336
339.177	0.2347
339.516	0.2346
339.855	0.2364
340.194	0.2362
340.533	0.2375
340.872	0.2382
341.21	0.239
341.549	0.2394
341.887	0.2413
342.226	0.241
342.564	0.2417
342.902	0.2426
343.24	0.2425
343.578	0.2424
343.916	0.2421
344.254	0.2434
344.592	0.2437
344.93	0.2438
345.268	0.244
345.605	0.2439
345.943	0.2435
346.28	0.2446
346.618	0.2439
346.955	0.2443
347.292	0.2451
347.629	0.2443
347.966	0.245
348.303	0.2445
348.64	0.245
348.977	0.2446
349.314	0.2455
349.65	0.2447
349.987	0.2446
350.324	0.2444
350.66	0.2444
350.996	0.2439
351.333	0.2432
351.669	0.2429
352.005	0.2425
352.341	0.2414
352.677	0.2406
353.013	0.2391
353.349	0.239
353.685	0.2369
354.02	0.2368
354.356	0.2356
354.691	0.235
355.027	0.2347
355.362	0.2335
355.697	0.2316
356.033	0.2311
356.368	0.2299
356.703	0.2289
357.038	0.2284
357.373	0.2272
357.707	0.2266
358.042	0.2255
358.377	0.2246
358.711	0.2238
359.046	0.2224
359.38	0.2221
359.715	0.2216
360.049	0.2198
360.383	0.2178
360.717	0.2171
361.051	0.2155
361.385	0.2145
361.719	0.2124
362.053	0.2121
362.387	0.2095
362.72	0.2094
363.054	0.2065
363.387	0.2051
363.721	0.2044
364.054	0.2024
364.387	0.2007
364.721	0.1989
365.054	0.197
365.387	0.1954
365.72	0.194
366.053	0.1925
366.385	0.1904
366.718	0.1897
367.051	0.1882
367.383	0.1867
367.716	0.1861
368.048	0.1845
368.381	0.183
368.713	0.1813
369.045	0.1811
369.377	0.1793
369.709	0.1779
370.041	0.1768
370.373	0.1757
370.705	0.1743
371.037	0.1725
371.368	0.1716
371.7	0.1698
372.031	0.1677
372.363	0.1656
372.694	0.1649
373.025	0.1627
373.356	0.1609
373.688	0.1589
374.019	0.1572
374.35	0.1552
374.68	0.1536
375.011	0.1514
375.342	0.1498
375.673	0.1487
376.003	0.1466
376.334	0.1456
376.664	0.1438
376.995	0.1414
377.325	0.1401
377.655	0.1384
377.985	0.1368
378.315	0.1355
378.645	0.1346
378.975	0.1337
379.305	0.1307
379.635	0.1314
379.964	0.129
380.294	0.1284
380.623	0.127
380.953	0.1258
381.282	0.1251
381.611	0.1239
381.941	0.1226
382.27	0.1208
382.599	0.1206
382.928	0.1182
383.257	0.1167
383.585	0.1162
383.914	0.114
384.243	0.1123
384.571	0.1107
384.9	0.1095
385.228	0.1076
385.557	0.1069
385.885	0.1047
386.213	0.103
386.541	0.1014
386.869	0.1004
387.197	0.0988
387.525	0.0977
387.853	0.0957
388.181	0.0942
388.508	0.0931
388.836	0.0921
389.164	0.091
389.491	0.0894
389.818	0.0877
390.146	0.0876
390.473	0.0867
390.8	0.0856
391.127	0.0836
391.454	0.0829
391.781	0.0818
392.108	0.0812
392.435	0.0796
392.761	0.079
393.088	0.0787
393.415	0.0775
393.741	0.0775
394.067	0.0772
394.394	0.0752
394.72	0.0745
395.046	0.073
395.372	0.0726
395.698	0.0713
396.024	0.0702
396.35	0.07
396.676	0.069
397.001	0.0682
397.327	0.0676
397.653	0.0663
397.978	0.0657
398.303	0.0639
398.629	0.0636
398.954	0.0628
399.279	0.0632
399.604	0.0615
399.929	0.061
400.254	0.0597
400.579	0.0592
400.904	0.0589
401.229	0.0581
401.553	0.0576
401.878	0.0569
402.202	0.057
402.527	0.0558
402.851	0.0554
403.175	0.0542
403.5	0.0544
403.824	0.0539
404.148	0.0535
404.472	0.0533
404.796	0.0528
405.119	0.0524
405.443	0.0525
405.767	0.0515
406.09	0.0514
406.414	0.0511
406.737	0.0516
407.061	0.0506
407.384	0.0503
407.707	0.0501
408.03	0.0499
408.353	0.0492
408.676	0.0496
408.999	0.0495
409.322	0.0481
409.645	0.0484
409.968	0.0484
410.29	0.0484
410.613	0.0491
410.935	0.0476
411.258	0.0479
411.58	0.0473
411.902	0.0473
412.224	0.0476
412.546	0.0475
412.868	0.0483
413.19	0.0468
413.512	0.0465
413.834	0.0466
414.156	0.0479
414.477	0.0462
414.799	0.0465
415.121	0.0459
415.442	0.0464
415.763	0.0462
416.085	0.0468
416.406	0.0458
416.727	0.0465
417.048	0.0461
417.369	0.046
417.69	0.0452
418.011	0.0462
418.331	0.0459
418.652	0.0457
418.973	0.0458
419.293	0.0456
419.614	0.0452
419.934	0.0463
420.254	0.0459
420.574	0.0445
420.895	0.0461
421.215	0.0451
421.535	0.046
421.855	0.045
422.174	0.0442
422.494	0.0449
422.814	0.0446
423.134	0.0453
423.453	0.0457
423.773	0.0454
424.092	0.0456
424.411	0.0452
424.731	0.0454
425.05	0.0458
425.369	0.045
425.688	0.0452
426.007	0.0453
426.326	0.0451
426.644	0.0452
426.963	0.0454
427.282	0.0449
427.6	0.0454
427.919	0.0453
428.237	0.0452
428.556	0.0454
428.874	0.045
429.192	0.0452
429.51	0.0448
429.828	0.0453
430.146	0.0453
430.464	0.0446
430.782	0.0449
431.1	0.0444
431.418	0.0446
431.735	0.044
432.053	0.0443
432.37	0.0451
432.688	0.044
433.005	0.0439
433.322	0.0454
433.639	0.0452
433.957	0.045
434.274	0.045
434.591	0.0449
434.907	0.0444
435.224	0.0444
435.541	0.0451
435.858	0.0453
436.174	0.0451
436.491	0.0445
436.807	0.0437
437.124	0.044
437.44	0.0441
437.756	0.0448
438.072	0.0437
438.388	0.0442
438.704	0.044
439.02	0.0443
439.336	0.0441
439.652	0.0445
439.968	0.0437
440.283	0.0447
440.599	0.0437
440.914	0.0436
441.23	0.0442
441.545	0.0439
441.86	0.0437
442.175	0.044
442.491	0.0433
442.806	0.0441
443.121	0.0432
443.435	0.0429
443.75	0.0436
444.065	0.043
444.38	0.043
444.694	0.0429
445.009	0.0428
445.323	0.0429
445.638	0.043
445.952	0.0422
446.266	0.0421
446.58	0.0413
446.894	0.0421
447.208	0.0421
447.522	0.0411
447.836	0.0422
448.15	0.0418
448.464	0.0413
448.777	0.0415
449.091	0.041
449.404	0.0412
449.718	0.0409
450.031	0.0403
450.345	0.0407
450.658	0.04
450.971	0.0407
451.284	0.0405
451.597	0.0411
451.91	0.04
452.223	0.0404
452.535	0.0403
452.848	0.0398
453.161	0.0396
453.473	0.0395
453.786	0.04
454.098	0.0397
454.411	0.0394
454.723	0.0397
455.035	0.0394
455.347	0.0385
455.659	0.0393
455.971	0.0394
456.283	0.039
456.595	0.0391
456.907	0.0392
457.218	0.0395
457.53	0.0379
457.841	0.0378
458.153	0.0385
458.464	0.0375
458.776	0.0379
459.087	0.0372
459.398	0.0371
459.709	0.0371
460.02	0.0369
460.331	0.0369
460.642	0.037
460.953	0.0372
461.263	0.0363
461.574	0.0354
461.885	0.0364
462.195	0.0352
462.506	0.0357
462.816	0.0361
463.126	0.0354
463.437	0.0346
463.747	0.0346
464.057	0.034
464.367	0.034
464.677	0.035
464.987	0.0341
465.296	0.0341
465.606	0.034
465.916	0.0328
466.225	0.0333
466.535	0.0327
466.844	0.0335
467.154	0.0335
467.463	0.0329
467.772	0.033
468.081	0.0331
468.39	0.0326
468.699	0.0327
469.008	0.0314
469.317	0.0323
469.626	0.032
469.935	0.0315
470.243	0.0319
470.552	0.0306
470.86	0.0315
471.169	0.0302
471.477	0.03
471.785	0.0295
472.093	0.0294
472.402	0.0291
472.71	0.0289
473.018	0.029
473.326	0.0295
473.633	0.0295
473.941	0.0292
474.249	0.0287
474.556	0.0281
474.864	0.0279
475.171	0.0281
475.479	0.0275
475.786	0.0285
476.094	0.0275
476.401	0.0274
476.708	0.0271
477.015	0.0268
477.322	0.0263
477.629	0.0257
477.936	0.0265
478.242	0.026
478.549	0.0258
478.856	0.025
479.162	0.0254
479.469	0.0254
479.775	0.0251
480.081	0.0239
480.388	0.0243
480.694	0.0247
481	0.0239
481.306	0.024
481.612	0.0246
481.918	0.0249
482.224	0.0244
482.53	0.0239
482.835	0.0234
483.141	0.0243
483.446	0.0231
483.752	0.0232
484.057	0.0223
484.363	0.0223
484.668	0.0226
484.973	0.0217
485.278	0.0213
485.583	0.0212
485.888	0.0212
486.193	0.0202
486.498	0.0214
486.803	0.0213
487.107	0.0207
487.412	0.0191
487.717	0.0203
488.021	0.0206
488.325	0.0192
488.63	0.0203
488.934	0.0204
489.238	0.0193
489.542	0.0195
489.846	0.0193
490.15	0.0192
490.454	0.0197
490.758	0.0189
491.062	0.0185
491.366	0.0179
491.669	0.0181
491.973	0.0181
492.276	0.0169
492.58	0.0174
492.883	0.0174
493.186	0.0169
493.489	0.0183
493.792	0.0162
494.096	0.0158
494.399	0.0162
494.701	0.0168
495.004	0.0158
495.307	0.0167
495.61	0.0166
495.912	0.0167
496.215	0.0161
496.517	0.0161
496.82	0.0156
497.122	0.0149
497.424	0.0155
497.727	0.0152
498.029	0.0143
498.331	0.0149
498.633	0.0137
498.935	0.0143
499.237	0.015
499.538	0.0138
499.84	0.0145
500.142	0.0127
500.443	0.0135
500.745	0.014
501.046	0.0128
501.348	0.0126
501.649	0.0127
501.95	0.0128
502.251	0.0129
502.552	0.0122
502.853	0.0127
503.154	0.0133
503.455	0.0117
503.756	0.0122
504.057	0.0121
504.357	0.0119
504.658	0.0125
504.958	0.0114
505.259	0.0118
505.559	0.0105
505.859	0.0109
506.16	0.0105
506.46	0.0112
506.76	0.0103
507.06	0.0097
507.36	0.0101
507.66	0.0108
507.96	0.0115
508.259	0.0098
508.559	0.0101
508.859	0.0104
509.158	0.0103
509.457	0.0089
509.757	0.0101
510.056	0.01
510.355	0.0098
510.655	0.0084
510.954	0.009
511.253	0.0095
511.552	0.0102
511.851	0.0089
512.149	0.0082
512.448	0.0083
512.747	0.0084
513.045	0.0079
513.344	0.0089
513.642	0.0081
513.941	0.0081
514.239	0.0084
514.537	0.0083
514.836	0.008
515.134	0.0078
515.432	0.0074
515.73	0.0077
516.028	0.0073
516.326	0.0071
516.623	0.0066
516.921	0.0074
517.219	0.0075
517.516	0.0064
517.814	0.008
518.111	0.0067
518.409	0.0079
518.706	0.007
519.003	0.0057
519.3	0.006
519.597	0.007
519.894	0.0055
520.191	0.0068
520.488	0.0069
520.785	0.0052
521.082	0.007
521.378	0.007
521.675	0.0057
521.971	0.0058
522.268	0.0062
522.564	0.006
522.861	0.0073
523.157	0.0065
523.453	0.006
523.749	0.0057
524.045	0.0053
524.341	0.0055
524.637	0.0053
524.933	0.0065
525.229	0.0058
525.524	0.0055
525.82	0.0058
526.115	0.0048
526.411	0.005
526.706	0.0052
527.002	0.0061
527.297	0.0043
527.592	0.0054
527.887	0.005
528.182	0.0043
528.477	0.0054
528.772	0.0047
529.067	0.0037
529.362	0.0048
529.657	0.0045
529.951	0.0043
530.246	0.0041
530.54	0.0041
530.835	0.0044
531.129	0.0043
531.423	0.0043
531.718	0.0038
532.012	0.0041
532.306	0.0048
532.6	0.0034
532.894	0.0037
533.188	0.0033
533.482	0.0046
533.775	0.0038
534.069	0.0035
534.363	0.0033
534.656	0.0042
534.95	0.004
535.243	0.0033
535.536	0.0044
535.83	0.003
536.123	0.0031
536.416	0.0027
536.709	0.004
537.002	0.0045
537.295	0.0037
537.588	0.0041
537.881	0.0038
538.173	0.0045
538.466	0.0039
538.759	0.0043
539.051	0.0045
539.344	0.0049
539.636	0.0043
539.928	0.0053
540.22	0.0038
540.513	0.0048
540.805	0.0044
541.097	0.0042
541.389	0.0037
541.681	0.005
541.972	0.0028
542.264	0.0048
542.556	0.0047
542.847	0.0042
543.139	0.0035
543.431	0.0037
543.722	0.0035
544.013	0.0035
544.305	0.0043
544.596	0.0034
544.887	0.0046
545.178	0.0054
545.469	0.0039
545.76	0.0054
546.051	0.0048
546.342	0.0044
546.632	0.0035
546.923	0.0032
547.214	0.004
547.504	0.0041
547.795	0.0031
548.085	0.0028
548.375	0.0041
548.666	0.0052
548.956	0.0036
549.246	0.0045
549.536	0.0042
549.826	0.0038
550.116	0.0041
550.406	0.0041
550.695	0.005
550.985	0.0039
551.275	0.0047
551.564	0.0053
551.854	0.0053
552.143	0.0042
552.433	0.0041
552.722	0.0046
553.011	0.0041
553.3	0.0045
553.589	0.0043
553.879	0.0038
554.167	0.0037
554.456	0.0041
554.745	0.004
555.034	0.0046
555.323	0.0041
555.611	0.0044
555.9	0.0039
556.188	0.0038
556.477	0.0036
556.765	0.004
557.053	0.0034
557.342	0.0029
557.63	0.0039
557.918	0.0049
558.206	0.0044
558.494	0.0042
558.782	0.0037
559.069	0.0055
559.357	0.0034
559.645	0.0039
559.932	0.0031
560.22	0.0043
560.507	0.0028
560.795	0.003
561.082	0.0027
561.37	0.0039
561.657	0.0031
561.944	0.0026
562.231	0.0028
562.518	0.0034
562.805	0.0039
563.092	0.004
563.379	0.0036
563.665	0.004
563.952	0.0052
564.239	0.0046
564.525	0.0045
564.811	0.004
565.098	0.0031
565.384	0.0038
565.67	0.0041
565.957	0.0044
566.243	0.0046
566.529	0.0031
566.815	0.0038
567.101	0.0028
567.387	0.0038
567.672	0.003
567.958	0.0032
568.244	0.0033
568.529	0.0041
568.815	0.003
569.1	0.0027
569.386	0.004
569.671	0.0026
569.956	0.003
570.242	0.0029
570.527	0.0027
570.812	0.0036
571.097	0.0028
571.382	0.0021
571.666	0.0025
571.951	0.004
572.236	0.0032
572.521	0.0042
572.805	0.0043
573.09	0.0038
573.374	0.0031
573.659	0.004
573.943	0.003
574.227	0.0042
574.511	0.0041
574.795	0.0039
575.079	0.0035
575.363	0.0035
575.647	0.003
575.931	0.0026
576.215	0.0032
576.499	0.0029
576.782	0.0026
577.066	0.0032
577.349	0.0035
577.633	0.0045
577.916	0.0038
578.2	0.004
578.483	0.0039
578.766	0.0051
579.049	0.0032
579.332	0.0037
579.615	0.0025
579.898	0.0026
580.181	0.0033
580.464	0.0026
580.746	0.0029
581.029	0.0036
581.312	0.0028
581.594	0.0026
581.877	0.0031
582.159	0.0041
582.441	0.0031
582.724	0.0031
583.006	0.0034
583.288	0.0038
583.57	0.0035
583.852	0.0037
584.134	0.0036
584.416	0.0028
584.697	0.0041
584.979	0.0036
585.261	0.0037
585.542	0.0035
585.824	0.0041
586.105	0.0038
586.387	0.0035
586.668	0.0038
586.949	0.0038
587.231	0.0042
587.512	0.0037
587.793	0.0027
588.074	0.0029
588.355	0.0033
588.636	0.0027
588.916	0.0035
589.197	0.0023
589.478	0.0033
589.758	0.0028
590.039	0.003
590.319	0.0025
590.6	0.0027
590.88	0.0026
591.16	0.0026
591.441	0.0033
591.721	0.0032
592.001	0.0027
592.281	0.0024
592.561	0.0041
592.841	0.0036
593.12	0.0029
593.4	0.0033
593.68	0.0035
593.959	0.0027
594.239	0.003
594.518	0.0035
594.798	0.0029
595.077	0.0028
595.356	0.0034
595.636	0.0028
595.915	0.0027
596.194	0.0023
596.473	0.0022
596.752	0.0024
597.031	0.0025
597.31	0.0021
597.588	0.0012
597.867	0.0028
598.146	0.0019
598.424	0.0016
598.703	0.0036
598.981	0.0023
599.259	0.0022
599.538	0.0035
599.816	0.0038
600.094	0.0033
600.372	0.0035
600.65	0.0038
600.928	0.0047
601.206	0.0041
601.484	0.0039
601.762	0.0032
602.04	0.0041
602.317	0.0035
602.595	0.0039
602.872	0.004
603.15	0.004
603.427	0.003
603.704	0.0027
603.982	0.002
604.259	0.0023
604.536	0.0021
604.813	0.0026
605.09	0.0021
605.367	0.0021
605.644	0.0023
605.921	0.002
606.197	0.0018
606.474	0.0029
606.751	0.0025
607.027	0.0027
607.304	0.0025
607.58	0.003
607.856	0.0036
608.133	0.0038
608.409	0.0042
608.685	0.0038
608.961	0.0036
609.237	0.0028
609.513	0.0039
609.789	0.0024
610.065	0.0032
610.341	0.0024
610.616	0.0025
610.892	0.0024
611.167	0.0036
611.443	0.0041
611.718	0.0033
611.994	0.0035
612.269	0.0031
612.544	0.0028
612.819	0.0029
613.095	0.003
613.37	0.0017
613.645	0.003
613.919	0.0023
614.194	0.0027
614.469	0.0027
614.744	0.0022
615.019	0.002
615.293	0.0027
615.568	0.0019
615.842	0.002
616.116	0.0022
616.391	0.0013
616.665	0.0012
616.939	0.0011
617.213	0.0018
617.488	0.0025
617.762	0.0028
618.035	0.0038
618.309	0.0031
618.583	0.0029
618.857	0.0032
619.131	0.0029
619.404	0.0017
619.678	0.003
619.951	0.0027
620.225	0.0022
620.498	0.002
620.771	0.0021
621.045	0.0024
621.318	0.0028
621.591	0.0029
621.864	0.0019
622.137	0.0012
622.41	0.0014
622.683	0.0011
622.956	0.0009
623.228	0.0014
623.501	0.0021
623.774	0.0032
624.046	0.0015
624.319	0.0018
624.591	0.0018
624.863	0.0022
625.136	0.0023
625.408	0.0037
625.68	0.0021
625.952	0.0023
626.224	0.0028
626.496	0.0021
626.768	0.0021
627.04	0.0024
627.311	0.0017
627.583	0.0016
627.855	0.0017
628.126	0.0009
628.398	-0.0001
628.669	-0
628.941	-0.0011
629.212	-0.0004
629.483	0.0009
629.755	0.0001
630.026	0.0008
630.297	0.0005
630.568	0.0006
630.839	0.001
631.11	0.0013
631.38	0.002
631.651	0.0013
631.922	0.0017
632.192	0.0016
632.463	0.001
632.733	0.0006
633.004	0.0008
633.274	0.0005
633.545	0.0008
633.815	0.0025
634.085	0.0018
634.355	0.0012
634.625	0.0016
634.895	0.0018
635.165	0.0009
635.435	0.0024
635.705	0.0018
635.974	0.0014
636.244	0.0012
636.514	-0.0001
636.783	-0.0002
637.053	0.0001
637.322	-0.0003
637.591	-0.0001
637.861	-0.0012
638.13	-0.0011
638.399	-0.0001
638.668	0.0013
638.937	0.0008
639.206	-0.0005
639.475	0.0007
639.744	-0.0001
640.013	0.0007
640.281	0.0005
640.55	0.0003
640.819	0.0003
641.087	0.0001
641.356	0.0001
641.624	0.0003
641.892	0.0004
642.161	0.0002
642.429	0.0002
642.697	0.0005
642.965	-0.0011
643.233	-0.0017
643.501	-0.0001
643.769	-0.0013
644.037	-0.0016
644.305	-0.0019
644.572	-0.0021
644.84	-0.001
645.108	0.0009
645.375	-0.0002
645.643	0.0003
645.91	0.0006
646.177	0.0012
646.445	-0.0007
646.712	0.0001
646.979	-0.0006
647.246	0.0012
647.513	0.0005
647.78	0
648.047	-0.0011
648.314	-0.0017
648.58	-0.0021
648.847	-0.0025
649.114	-0.0021
649.38	-0.002
649.647	-0.0019
649.913	-0.0014
650.18	-0.0009
650.446	-0.0002
650.712	0.0007
650.978	0.0015
651.245	0.0015
651.511	0.0018
651.777	0.0017
652.043	0.0013
652.309	0.0003
652.574	0.0008
652.84	0.001
653.106	0.0014
653.371	0.0012
653.637	0.0018
653.903	0.001
654.168	0.0001
654.433	0.0004
654.699	-0.0008
654.964	-0.0014
655.229	-0.0002
655.494	0.0003
655.759	0.001
656.024	0.0003
656.289	-0
656.554	0.0026
656.819	0.0012
657.084	0.0005
657.349	0.0007
657.613	-0.0005
657.878	-0.0014
658.142	-0.0006
658.407	-0.0002
658.671	-0.0007
658.936	0
659.2	0.0009
659.464	0.0002
659.728	0.0001
659.992	-0.001
660.256	-0.0022
660.52	-0.0019
660.784	-0.0019
661.048	-0.0006
661.312	-0.0014
661.575	-0.0012
661.839	-0.0006
662.103	-0.001
662.366	-0.0011
662.63	-0.0001
662.893	-0.0003
663.156	0.0007
663.42	0.0004
663.683	0.0003
663.946	0.001
664.209	0.0012
664.472	0.0012
664.735	0.001
664.998	0.0012
665.261	0.0026
665.524	0.0022
665.786	0.0015
666.049	0.0011
666.312	0.0014
666.574	0.0012
666.837	0.0021
667.099	0.0007
667.361	0.0021
667.624	0.0011
667.886	0.0014
668.148	0.0017
668.41	0.0011
668.672	0.0016
668.934	0.0017
669.196	0.0016
669.458	0.0005
669.72	-0.0003
669.982	-0.001
670.243	-0.0012
670.505	0.0004
670.766	0.0003
671.028	0.0015
671.289	0.0014
671.551	0.0005
671.812	0.0003
672.073	0.0012
672.334	0.0004
672.596	-0.0001
672.857	-0.0003
673.118	0.0008
673.379	0.0018
673.639	0.001
673.9	0.001
674.161	-0.0001
674.422	-0.0004
674.682	-0.0017
674.943	-0.002
675.203	-0.0013
675.464	-0.001
675.724	0.0008
675.985	-0.0001
676.245	-0.0005
676.505	-0.001
676.765	-0.0006
677.025	-0.0001
677.285	-0.0008
677.545	-0.0011
677.805	-0.0007
678.065	-0
678.325	-0.0002
678.585	0.0013
678.844	0.0013
679.104	0.0019
679.363	0.0023
679.623	0.0022
679.882	0.0025
680.142	0.0024
680.401	0.0022
680.66	0.0023
680.919	0.0007
681.178	0.0019
681.437	0.0022
681.696	0.0017
681.955	0.0037
682.214	0.0031
682.473	0.0027
682.732	0.0009
682.99	0.0024
683.249	0.0009
683.508	0.0011
683.766	0.0011
684.024	-0.0003
684.283	-0.0007
684.541	-0.0005
684.799	-0.001
685.058	-0.0026
685.316	-0.002
685.574	-0.0024
685.832	-0.0014
686.09	-0.0014
686.348	-0.0027
686.606	-0.002
686.863	-0.0023
687.121	-0.0021
687.379	-0.0029
687.636	-0.0028
687.894	-0.0035
688.151	-0.0034
688.409	-0.0025
688.666	-0.002
688.923	-0.002
689.181	-0.0023
689.438	-0.0019
689.695	-0.0013
689.952	-0.0012
690.209	-0.0016
690.466	-0.0025
690.723	-0.0025
690.979	-0.0029
691.236	-0.0028
691.493	-0.004
691.75	-0.0032
692.006	-0.0027
692.263	-0.0024
692.519	-0.0029
692.775	-0.0038
693.032	-0.0032
693.288	-0.0041
693.544	-0.0035
693.8	-0.0024
694.056	-0.0026
694.313	-0.0034
694.568	-0.0025
694.824	-0.0021
695.08	-0.0014
695.336	-0.0008
695.592	-0.001
695.847	-0.0014
696.103	-0.0003
696.359	0.0004
696.614	-0.0003
696.869	-0.0013
697.125	-0.0013
697.38	-0.0015
697.635	-0.0013
697.891	-0.0001
698.146	-0.0003
698.401	-0.0006
698.656	-0.0003
698.911	-0.0002
699.166	-0.0007
699.42	0.0002
699.675	-0
699.93	0.0004
700.185	0.0005
700.439	0.0008
700.694	0.0002
700.948	0.0011
701.203	0.0009
701.457	-0
701.711	-0.0008
701.965	-0.0008
702.22	-0.0007
702.474	-0.0011
702.728	-0
702.982	0.0006
703.236	-0.0009
703.49	-0.0011
703.743	-0.0022
703.997	-0.0016
704.251	-0.0017
704.504	0.0002
704.758	0.0002
705.012	0.0011
705.265	0.0003
705.518	0.0001
705.772	-0.0007
706.025	0.0004
706.278	-0.001
706.531	-0.0017
706.785	-0.0026
707.038	-0.0018
707.291	-0.0014
707.543	-0.0015
707.796	-0.0011
708.049	-0.0006
708.302	-0.0009
708.555	-0.0011
708.807	0
709.06	-0.0001
709.312	0.0005
709.565	0.0004
709.817	0.0013
710.069	0.0004
710.322	0.0011
710.574	0.0013
710.826	0.0011
711.078	0.0006
711.33	0.0001
711.582	0.0001
711.834	-0.001
712.086	-0.0004
712.338	-0.0005
712.59	-0.0007
712.841	-0.0019
713.093	-0.0012
713.344	-0.001
713.596	-0.0026
713.847	-0.0026
714.099	-0.0033
714.35	-0.0025
714.601	-0.0034
714.853	-0.0035
715.104	-0.0028
715.355	-0.003
715.606	-0.0008
715.857	-0.0009
716.108	-0.001
716.359	-0.0003
716.609	-0.0026
716.86	-0.0014
717.111	-0.0017
717.361	-0.0014
717.612	-0.0018
717.863	-0.0011
718.113	-0.0005
718.363	0.0007
718.614	0.0005
718.864	0.0004
719.114	-0.0004
719.364	-0.0011
719.614	-0.0008
719.865	-0.001
720.114	-0.0007
720.364	-0.0003
720.614	-0.0013
720.864	-0.0015
721.114	-0.0029
721.364	-0.003
721.613	-0.0027
721.863	-0.0026
722.112	-0.0022
722.362	-0.0024
722.611	-0.0012
722.86	-0.0017
723.11	-0.0006
723.359	-0.0002
723.608	0.0007
723.857	0.0013
724.106	0.0006
724.355	0.0004
724.604	-0.0006
724.853	-0.0011
725.102	-0.0014
725.351	-0.0029
725.599	-0.0037
725.848	-0.0038
726.097	-0.0017
726.345	-0.0024
726.594	-0.0018
726.842	-0.0008
727.09	-0.0015
727.339	-0.0015
727.587	-0.0023
727.835	-0.0032
728.083	-0.0037
728.331	-0.003
728.579	-0.0017
728.827	-0.0028
729.075	-0.0034
729.323	-0.003
729.571	-0.0032
729.818	-0.0035
730.066	-0.0037
730.314	-0.0028
730.561	-0.0024
730.809	-0.0041
731.056	-0.0026
731.303	-0.0026
731.551	-0.0026
731.798	-0.0033
732.045	-0.0017
732.292	-0.0029
732.539	-0.0029
732.786	-0.0032
733.033	-0.0025
733.28	-0.0016
733.527	-0.0027
733.774	-0.0029
734.021	-0.0021
734.267	-0.0013
734.514	-0.0021
734.76	-0.0017
735.007	-0.0022
735.253	-0.001
735.5	0.0008
735.746	0.002
735.992	0.0015
736.238	0.0011
736.485	0.0002
736.731	0.0007
736.977	-0.0006
737.223	-0.0015
737.469	-0.0018
737.715	-0.0002
737.96	-0.0011
738.206	-0.0009
738.452	-0.0016
738.697	-0.0018
738.943	-0.0025
739.189	-0.0013
739.434	-0.0014
739.679	-0.0007
739.925	0.0005
740.17	0.0017
740.415	0.0006
740.66	0.0009
740.906	0.0004
741.151	0.0005
741.396	-0.0005
741.641	-0.0006
741.886	0.0002
742.13	0.0006
742.375	0.0013
742.62	0.0001
742.865	0.0012
743.109	0.0014
743.354	0.0005
743.598	0.0006
743.843	-0.0008
744.087	-0.0012
744.331	-0.0016
744.576	-0.0009
744.82	-0.001
745.064	-0.0003
745.308	-0.0006
745.552	-0.001
745.796	-0.0012
746.04	-0.0003
746.284	-0.0009
746.528	-0.0005
746.771	-0.0011
747.015	-0.0006
747.259	-0.0016
747.502	-0.0016
747.746	-0.001
747.989	-0.0011
748.233	-0.0005
748.476	-0.0006
748.719	0.0004
748.963	-0.0001
749.206	0.0004
749.449	0
749.692	-0.0005
749.935	-0.0009
750.178	-0.0013
750.421	-0.0017
750.664	-0.0017
750.906	-0.0021
751.149	-0.0025
751.392	-0.0013
751.635	-0.0021
751.877	-0.0016
752.12	-0.0015
752.362	-0.0012
752.604	-0.0005
752.847	-0.0007
753.089	-0.0007
753.331	-0.0011
753.573	-0.0012
753.816	-0.0011
754.058	-0.0006
754.3	-0.0012
754.542	-0.0001
754.783	0
755.025	0.0002
755.267	-0.0002
755.509	-0.0004
755.75	-0.0009
755.992	0.0002
756.234	0.0005
756.475	0.0013
756.716	0.0008
756.958	0.0007
757.199	0.0005
757.44	0.0011
757.682	0.0004
757.923	0.0013
758.164	-0
758.405	-0.0003
758.646	0.0004
758.887	-0.0017
759.128	-0.0021
759.369	-0.0029
759.609	-0.0016
759.85	-0.0014
760.091	-0.0013
760.331	-0.0008
760.572	-0.0011
760.812	-0.0012
761.053	-0.0004
761.293	-0.0004
761.533	0.0004
761.774	-0.0003
762.014	-0.0006
762.254	-0.0004
762.494	0.0007
762.734	0.0003
762.974	0.0004
763.214	-0
763.454	-0.0004
763.694	0.0002
763.933	0.0018
764.173	0.0026
764.413	0.0018
764.652	0.0003
764.892	0.0002
765.131	-0.001
765.371	-0.0006
765.61	-0.0022
765.849	-0.0032
766.089	-0.0033
766.328	-0.0028
766.567	-0.0035
766.806	-0.0041
767.045	-0.0049
767.284	-0.003
767.523	-0.0037
767.762	-0.0041
768.001	-0.0029
768.239	-0.0022
768.478	-0.0029
768.717	-0.0034
768.955	-0.0033
769.194	-0.0033
769.432	-0.003
769.671	-0.0039
769.909	-0.0025
770.148	-0.0021
770.386	-0.0027
770.624	-0.0021
770.862	-0.003
771.1	-0.0028
771.338	-0.0034
771.576	-0.0019
771.814	-0.0009
772.052	-0.0016
772.29	-0.0003
772.528	-0.0013
772.765	-0.002
773.003	-0.0009
773.24	-0.0011
773.478	-0.0013
773.716	0.0007
773.953	0
774.19	0.001
774.428	0.002
774.665	0.0022
774.902	0.0016
775.139	0.0016
775.376	0.0004
775.613	-0.0007
775.85	-0.0002
776.087	-0.001
776.324	-0.0016
776.561	-0.0021
776.798	-0.0025
777.034	-0.0016
777.271	-0.0011
777.508	-0.0023
777.744	0.0003
777.981	-0.0005
778.217	-0.0019
778.454	-0.0024
778.69	-0.0023
778.926	-0.0013
779.162	-0.0012
779.399	-0.0008
779.635	-0.0013
779.871	-0.0009
780.107	-0.0029
780.343	-0.003
780.579	-0.0027
780.814	-0.0029
781.05	-0.0032
781.286	-0.0026
781.522	-0.0026
781.757	-0.0027
781.993	-0.0016
782.228	-0.0026
782.464	-0.0015
782.699	-0.0019
782.934	-0.0023
783.17	-0.0016
783.405	-0.0009
783.64	-0.001
783.875	-0.0017
784.11	-0.0016
784.345	-0.0013
784.58	-0.0011
784.815	-0.0013
785.05	-0.0014
785.285	-0.0024
785.52	-0.0005
785.754	-0.0005
785.989	-0.0002
786.223	0.0012
786.458	0.0018
786.692	0.0021
786.927	0.0026
787.161	0.0022
787.396	0.003
787.63	0.002
787.864	0.0013
788.098	-0.0004
788.332	-0.0006
788.566	-0.0006
788.8	-0.0006
789.034	-0.0004
789.268	-0.0014
789.502	-0.0021
789.736	-0.002
789.969	-0.0018
790.203	-0.0021
790.437	-0.0016
790.67	-0.0015
790.904	0.0001
791.137	0.001
791.37	0
791.604	0.0002
791.837	0.0014
792.07	0.0025
792.303	0.0037
792.537	0.0042
792.77	0.0038
793.003	0.0035
793.236	0.003
793.469	0.002
793.701	0.0011
793.934	0.0006
794.167	0.0007
794.4	-0.0002
794.632	-0.0006
794.865	-0.0013
795.097	-0.002
795.33	-0.0017
795.562	-0.0013
795.795	-0.0012
796.027	-0.0012
796.259	0.0004
796.491	0
796.724	0.0008
796.956	0.001
797.188	0.0006
797.42	0.0003
797.652	0.0003
797.883	0.0008
798.115	0.002
798.347	0.0017
798.579	0.0003
798.81	-0.0001
799.042	0.0003
799.274	0.0012
799.505	0.001
799.737	0.0013
799.968	0.0011
800.199	0.0015
800.431	0.0024
800.662	0.0009
800.893	0.0016
801.124	0.0005
801.355	0.0006
801.586	0.0012
801.817	0.0023
802.048	0.0014
802.279	0.0009
802.51	0.0018
802.741	0.0029
802.971	0.003
803.202	0.002
803.433	0.002
803.663	0.0019
803.894	0.0024
804.124	0.0021
804.354	0.0027
804.585	0.0035
804.815	0.0028
805.045	0.0037
805.275	0.0032
805.506	-0.0066
805.736	-0.0226
805.966	-0.2322
806.196	-0.0086
