Data from 03 0.4 mM K2Cr2O7 0.25 M BQDS 1 M H2SO4 5 min_Absorbance_0013.txt Node
Date: Tue Dec 14 18:35:12 EST 2021
User: kwabilab-user
Spectrometer: HDX00518
Trigger mode: 0
Integration Time (sec): 5.000000E-2
Scans to average: 50
Nonlinearity correction enabled: false
Boxcar width: 0
Storing dark spectrum: false
XAxis mode: Wavelengths
Number of Pixels in Spectrum: 2068
>>>>>Begin Spectral Data<<<<<
195.27	0.1052
195.642	0.348
196.014	-0.0461
196.386	0.6615
196.758	-0.0268
197.129	0.0401
197.501	0.0247
197.872	0.034
198.244	0.044
198.615	0.0629
198.986	0.06
199.357	0.0716
199.728	0.0704
200.099	0.046
200.47	0.0695
200.841	0.0607
201.212	0.0556
201.582	0.0827
201.953	0.0603
202.323	0.0479
202.694	0.0639
203.064	0.0371
203.434	0.0399
203.804	0.064
204.174	0.0532
204.544	0.0829
204.914	0.056
205.284	0.0408
205.653	0.0393
206.023	0.0638
206.393	0.0675
206.762	0.0277
207.131	0.074
207.501	0.0622
207.87	0.0563
208.239	0.0584
208.608	0.0629
208.977	0.0492
209.346	0.0664
209.715	0.0849
210.083	0.0567
210.452	0.0557
210.82	0.089
211.189	0.054
211.557	0.0652
211.925	0.0459
212.294	0.0678
212.662	0.0639
213.03	0.082
213.398	0.0609
213.766	0.0695
214.133	0.0693
214.501	0.0799
214.869	0.0666
215.236	0.0476
215.604	0.0857
215.971	0.0965
216.338	0.0893
216.705	0.0768
217.072	0.1098
217.439	0.0934
217.806	0.1036
218.173	0.1028
218.54	0.09
218.907	0.1161
219.273	0.1244
219.64	0.1488
220.006	0.1448
220.373	0.1369
220.739	0.1513
221.105	0.1988
221.471	0.1897
221.837	0.217
222.203	0.265
222.569	0.2284
222.935	0.2599
223.3	0.2691
223.666	0.2978
224.031	0.3426
224.397	0.3723
224.762	0.3762
225.127	0.4078
225.493	0.426
225.858	0.4703
226.223	0.4851
226.588	0.4874
226.952	0.5135
227.317	0.5612
227.682	0.5522
228.046	0.55
228.411	0.582
228.775	0.6208
229.14	0.5946
229.504	0.6253
229.868	0.6405
230.232	0.6575
230.596	0.6816
230.96	0.6866
231.324	0.6743
231.688	0.687
232.052	0.7067
232.415	0.6879
232.779	0.7017
233.142	0.7001
233.505	0.7111
233.869	0.7126
234.232	0.7139
234.595	0.7089
234.958	0.7185
235.321	0.71
235.684	0.7078
236.047	0.7177
236.409	0.7211
236.772	0.7087
237.134	0.7062
237.497	0.7047
237.859	0.713
238.222	0.706
238.584	0.7028
238.946	0.6896
239.308	0.6936
239.67	0.6932
240.032	0.6983
240.393	0.6845
240.755	0.6908
241.117	0.6933
241.478	0.6816
241.84	0.6954
242.201	0.6874
242.562	0.6805
242.924	0.6744
243.285	0.6671
243.646	0.6706
244.007	0.6586
244.368	0.671
244.728	0.6679
245.089	0.6628
245.45	0.6494
245.81	0.652
246.171	0.6615
246.531	0.6554
246.891	0.6524
247.252	0.6513
247.612	0.6559
247.972	0.647
248.332	0.6527
248.692	0.6485
249.051	0.6503
249.411	0.6457
249.771	0.6412
250.13	0.6388
250.49	0.6394
250.849	0.6392
251.208	0.641
251.568	0.6463
251.927	0.637
252.286	0.6428
252.645	0.6421
253.004	0.6413
253.363	0.6374
253.721	0.641
254.08	0.6465
254.439	0.6381
254.797	0.6354
255.155	0.6368
255.514	0.635
255.872	0.6365
256.23	0.6408
256.588	0.6363
256.946	0.6359
257.304	0.6409
257.662	0.6417
258.02	0.6389
258.377	0.637
258.735	0.637
259.093	0.6342
259.45	0.6373
259.807	0.637
260.165	0.6368
260.522	0.6401
260.879	0.6341
261.236	0.6353
261.593	0.6316
261.95	0.6291
262.306	0.6325
262.663	0.6346
263.02	0.6307
263.376	0.6217
263.733	0.6223
264.089	0.6223
264.445	0.6213
264.802	0.6222
265.158	0.6169
265.514	0.6158
265.87	0.6155
266.226	0.6163
266.581	0.6126
266.937	0.618
267.293	0.607
267.648	0.614
268.004	0.6046
268.359	0.6065
268.714	0.6008
269.07	0.5986
269.425	0.5948
269.78	0.5939
270.135	0.5892
270.49	0.592
270.844	0.592
271.199	0.5882
271.554	0.576
271.908	0.5785
272.263	0.5782
272.617	0.5749
272.972	0.5713
273.326	0.5669
273.68	0.5631
274.034	0.5624
274.388	0.56
274.742	0.5582
275.096	0.5503
275.45	0.5501
275.803	0.5457
276.157	0.5424
276.51	0.5328
276.864	0.5335
277.217	0.5337
277.571	0.5278
277.924	0.5199
278.277	0.5193
278.63	0.5125
278.983	0.5113
279.336	0.5052
279.688	0.5034
280.041	0.4957
280.394	0.4875
280.746	0.4867
281.099	0.4836
281.451	0.4792
281.803	0.4755
282.156	0.4695
282.508	0.4673
282.86	0.4625
283.212	0.4591
283.564	0.4532
283.916	0.4435
284.267	0.4428
284.619	0.4401
284.971	0.4349
285.322	0.4317
285.673	0.4274
286.025	0.4212
286.376	0.4181
286.727	0.4129
287.078	0.4068
287.429	0.4081
287.78	0.4004
288.131	0.3975
288.482	0.3907
288.833	0.3867
289.183	0.3825
289.534	0.3777
289.884	0.3734
290.235	0.3706
290.585	0.3667
290.935	0.3611
291.285	0.3581
291.635	0.3514
291.985	0.3492
292.335	0.344
292.685	0.3401
293.035	0.3352
293.384	0.3312
293.734	0.3275
294.083	0.3234
294.433	0.3201
294.782	0.3154
295.131	0.3106
295.48	0.309
295.829	0.3038
296.179	0.3012
296.527	0.2954
296.876	0.2924
297.225	0.2883
297.574	0.2837
297.922	0.2803
298.271	0.2758
298.619	0.272
298.968	0.2709
299.316	0.2673
299.664	0.265
300.012	0.2605
300.36	0.2561
300.708	0.2528
301.056	0.2507
301.404	0.2477
301.752	0.2438
302.099	0.2416
302.447	0.2381
302.794	0.2372
303.142	0.2318
303.489	0.2304
303.836	0.2273
304.183	0.2251
304.531	0.2234
304.878	0.2209
305.224	0.2187
305.571	0.2163
305.918	0.2148
306.265	0.2116
306.611	0.2098
306.958	0.2093
307.304	0.2078
307.651	0.2057
307.997	0.2035
308.343	0.2013
308.689	0.2004
309.035	0.1998
309.381	0.1982
309.727	0.1967
310.073	0.1962
310.419	0.1944
310.764	0.1943
311.11	0.193
311.455	0.1913
311.801	0.1909
312.146	0.1899
312.491	0.1895
312.837	0.1889
313.182	0.188
313.527	0.1878
313.872	0.1866
314.216	0.1874
314.561	0.1869
314.906	0.1863
315.251	0.1868
315.595	0.1868
315.94	0.1859
316.284	0.1858
316.628	0.186
316.972	0.1859
317.317	0.1852
317.661	0.1858
318.005	0.1861
318.348	0.1872
318.692	0.1871
319.036	0.1876
319.38	0.1877
319.723	0.1873
320.067	0.188
320.41	0.1897
320.754	0.19
321.097	0.1899
321.44	0.1917
321.783	0.1917
322.126	0.1925
322.469	0.1925
322.812	0.1941
323.155	0.1951
323.498	0.1951
323.84	0.1966
324.183	0.1974
324.525	0.1985
324.868	0.2003
325.21	0.2003
325.552	0.2011
325.894	0.2025
326.236	0.2035
326.578	0.2039
326.92	0.2061
327.262	0.2067
327.604	0.2079
327.946	0.2087
328.287	0.2102
328.629	0.2119
328.97	0.2127
329.312	0.2136
329.653	0.2152
329.994	0.2163
330.335	0.2171
330.676	0.2195
331.017	0.22
331.358	0.2215
331.699	0.2232
332.04	0.2246
332.38	0.2254
332.721	0.2269
333.061	0.228
333.402	0.2296
333.742	0.2305
334.083	0.2321
334.423	0.2322
334.763	0.2345
335.103	0.2355
335.443	0.2364
335.783	0.2375
336.123	0.2384
336.462	0.2396
336.802	0.2401
337.141	0.2413
337.481	0.242
337.82	0.2435
338.16	0.2446
338.499	0.2462
338.838	0.2474
339.177	0.2481
339.516	0.2488
339.855	0.2497
340.194	0.2505
340.533	0.2518
340.872	0.252
341.21	0.253
341.549	0.2535
341.887	0.2549
342.226	0.2545
342.564	0.255
342.902	0.256
343.24	0.2563
343.578	0.257
343.916	0.2566
344.254	0.258
344.592	0.2577
344.93	0.2588
345.268	0.2568
345.605	0.2584
345.943	0.2583
346.28	0.2581
346.618	0.2584
346.955	0.259
347.292	0.2597
347.629	0.2592
347.966	0.2584
348.303	0.2588
348.64	0.2596
348.977	0.2597
349.314	0.2591
349.65	0.259
349.987	0.2599
350.324	0.259
350.66	0.2589
350.996	0.2584
351.333	0.2579
351.669	0.2572
352.005	0.257
352.341	0.2564
352.677	0.2549
353.013	0.254
353.349	0.2532
353.685	0.2523
354.02	0.2508
354.356	0.2507
354.691	0.2489
355.027	0.2478
355.362	0.2471
355.697	0.2461
356.033	0.2454
356.368	0.2446
356.703	0.243
357.038	0.2431
357.373	0.2404
357.707	0.2404
358.042	0.2395
358.377	0.2389
358.711	0.2382
359.046	0.2367
359.38	0.2357
359.715	0.2353
360.049	0.2333
360.383	0.2316
360.717	0.231
361.051	0.2296
361.385	0.2279
361.719	0.2269
362.053	0.226
362.387	0.223
362.72	0.2219
363.054	0.2204
363.387	0.2187
363.721	0.2162
364.054	0.2154
364.387	0.2131
364.721	0.2107
365.054	0.21
365.387	0.2084
365.72	0.207
366.053	0.2056
366.385	0.2032
366.718	0.2027
367.051	0.2008
367.383	0.1988
367.716	0.1986
368.048	0.1968
368.381	0.1953
368.713	0.1935
369.045	0.1929
369.377	0.1916
369.709	0.1896
370.041	0.1882
370.373	0.1873
370.705	0.1859
371.037	0.1838
371.368	0.183
371.7	0.1804
372.031	0.1793
372.363	0.1768
372.694	0.1759
373.025	0.174
373.356	0.1725
373.688	0.1698
374.019	0.1691
374.35	0.1658
374.68	0.1642
375.011	0.1622
375.342	0.1611
375.673	0.159
376.003	0.1566
376.334	0.156
376.664	0.1534
376.995	0.1516
377.325	0.1498
377.655	0.1485
377.985	0.1465
378.315	0.1457
378.645	0.1436
378.975	0.1429
379.305	0.1409
379.635	0.1407
379.964	0.1388
380.294	0.1381
380.623	0.1362
380.953	0.1343
381.282	0.134
381.611	0.1326
381.941	0.1318
382.27	0.1292
382.599	0.1293
382.928	0.1264
383.257	0.125
383.585	0.124
383.914	0.122
384.243	0.1207
384.571	0.1193
384.9	0.1174
385.228	0.1157
385.557	0.1138
385.885	0.1123
386.213	0.1118
386.541	0.1091
386.869	0.1077
387.197	0.106
387.525	0.1049
387.853	0.103
388.181	0.1018
388.508	0.0999
388.836	0.098
389.164	0.0973
389.491	0.0961
389.818	0.0941
390.146	0.0927
390.473	0.0921
390.8	0.0917
391.127	0.0899
391.454	0.0891
391.781	0.0882
392.108	0.0874
392.435	0.0858
392.761	0.0855
393.088	0.0847
393.415	0.0834
393.741	0.0828
394.067	0.0824
394.394	0.081
394.72	0.0794
395.046	0.079
395.372	0.0778
395.698	0.0768
396.024	0.0753
396.35	0.0754
396.676	0.0736
397.001	0.0729
397.327	0.0714
397.653	0.0713
397.978	0.0707
398.303	0.0684
398.629	0.0682
398.954	0.0673
399.279	0.0667
399.604	0.0655
399.929	0.0658
400.254	0.0641
400.579	0.0636
400.904	0.0624
401.229	0.062
401.553	0.0618
401.878	0.0608
402.202	0.0601
402.527	0.0597
402.851	0.0605
403.175	0.0582
403.5	0.0579
403.824	0.0576
404.148	0.0573
404.472	0.0563
404.796	0.0565
405.119	0.0555
405.443	0.0559
405.767	0.0554
406.09	0.0547
406.414	0.0535
406.737	0.0545
407.061	0.0537
407.384	0.0532
407.707	0.0533
408.03	0.0529
408.353	0.0523
408.676	0.0523
408.999	0.0525
409.322	0.0511
409.645	0.0513
409.968	0.0511
410.29	0.0513
410.613	0.0515
410.935	0.0503
411.258	0.0509
411.58	0.0494
411.902	0.0497
412.224	0.05
412.546	0.0502
412.868	0.0504
413.19	0.0496
413.512	0.0496
413.834	0.0495
414.156	0.05
414.477	0.0484
414.799	0.0499
415.121	0.0484
415.442	0.0485
415.763	0.0484
416.085	0.0489
416.406	0.048
416.727	0.0484
417.048	0.0482
417.369	0.0483
417.69	0.0477
418.011	0.0479
418.331	0.0481
418.652	0.048
418.973	0.0475
419.293	0.0479
419.614	0.0473
419.934	0.048
420.254	0.0487
420.574	0.047
420.895	0.0472
421.215	0.0475
421.535	0.048
421.855	0.0467
422.174	0.0469
422.494	0.0466
422.814	0.047
423.134	0.0471
423.453	0.0468
423.773	0.0482
424.092	0.0471
424.411	0.0477
424.731	0.0473
425.05	0.0477
425.369	0.0473
425.688	0.0476
426.007	0.0471
426.326	0.047
426.644	0.0468
426.963	0.0467
427.282	0.0465
427.6	0.0467
427.919	0.0467
428.237	0.0474
428.556	0.0474
428.874	0.0471
429.192	0.0464
429.51	0.0466
429.828	0.0467
430.146	0.0471
430.464	0.0467
430.782	0.046
431.1	0.0461
431.418	0.0466
431.735	0.0459
432.053	0.0461
432.37	0.0465
432.688	0.0459
433.005	0.0458
433.322	0.0465
433.639	0.0468
433.957	0.0461
434.274	0.0461
434.591	0.0458
434.907	0.0457
435.224	0.0465
435.541	0.0462
435.858	0.0471
436.174	0.0461
436.491	0.0463
436.807	0.0456
437.124	0.0454
437.44	0.0454
437.756	0.0461
438.072	0.0452
438.388	0.0462
438.704	0.0454
439.02	0.0453
439.336	0.0448
439.652	0.0452
439.968	0.0458
440.283	0.0448
440.599	0.0453
440.914	0.0444
441.23	0.0458
441.545	0.0455
441.86	0.0451
442.175	0.0452
442.491	0.0446
442.806	0.0445
443.121	0.044
443.435	0.0443
443.75	0.0443
444.065	0.0443
444.38	0.044
444.694	0.0439
445.009	0.0441
445.323	0.0442
445.638	0.0442
445.952	0.044
446.266	0.0436
446.58	0.0426
446.894	0.0436
447.208	0.0434
447.522	0.0426
447.836	0.0436
448.15	0.0436
448.464	0.0421
448.777	0.0434
449.091	0.0427
449.404	0.0422
449.718	0.0421
450.031	0.0419
450.345	0.0426
450.658	0.0413
450.971	0.0423
451.284	0.0416
451.597	0.0424
451.91	0.0418
452.223	0.0418
452.535	0.0411
452.848	0.0411
453.161	0.0409
453.473	0.0413
453.786	0.0407
454.098	0.0412
454.411	0.0403
454.723	0.0407
455.035	0.0401
455.347	0.0395
455.659	0.0403
455.971	0.0408
456.283	0.0407
456.595	0.0397
456.907	0.0399
457.218	0.0405
457.53	0.0386
457.841	0.0389
458.153	0.039
458.464	0.0387
458.776	0.039
459.087	0.0387
459.398	0.0378
459.709	0.0377
460.02	0.0382
460.331	0.0385
460.642	0.0382
460.953	0.0375
461.263	0.0377
461.574	0.0368
461.885	0.0373
462.195	0.0356
462.506	0.0373
462.816	0.0371
463.126	0.0364
463.437	0.0363
463.747	0.0358
464.057	0.0348
464.367	0.0345
464.677	0.0351
464.987	0.0359
465.296	0.0346
465.606	0.0348
465.916	0.034
466.225	0.0344
466.535	0.0341
466.844	0.0343
467.154	0.0341
467.463	0.0338
467.772	0.0338
468.081	0.0329
468.39	0.0341
468.699	0.0331
469.008	0.0333
469.317	0.0329
469.626	0.0328
469.935	0.0317
470.243	0.0321
470.552	0.0317
470.86	0.0321
471.169	0.0308
471.477	0.0304
471.785	0.031
472.093	0.0304
472.402	0.0299
472.71	0.0299
473.018	0.0296
473.326	0.0307
473.633	0.0302
473.941	0.0295
474.249	0.0295
474.556	0.0285
474.864	0.0294
475.171	0.0286
475.479	0.0285
475.786	0.0291
476.094	0.0284
476.401	0.0279
476.708	0.0277
477.015	0.0278
477.322	0.0273
477.629	0.0266
477.936	0.0274
478.242	0.0264
478.549	0.026
478.856	0.0269
479.162	0.0264
479.469	0.026
479.775	0.026
480.081	0.0243
480.388	0.0257
480.694	0.0252
481	0.0251
481.306	0.0251
481.612	0.0253
481.918	0.026
482.224	0.0249
482.53	0.0244
482.835	0.024
483.141	0.0241
483.446	0.0248
483.752	0.023
484.057	0.0226
484.363	0.0229
484.668	0.0232
484.973	0.0221
485.278	0.0219
485.583	0.0218
485.888	0.0228
486.193	0.0212
486.498	0.0206
486.803	0.0211
487.107	0.021
487.412	0.0196
487.717	0.0205
488.021	0.0206
488.325	0.0197
488.63	0.0205
488.934	0.0199
489.238	0.0195
489.542	0.0192
489.846	0.0195
490.15	0.019
490.454	0.0208
490.758	0.0187
491.062	0.0189
491.366	0.0182
491.669	0.0175
491.973	0.0181
492.276	0.0178
492.58	0.0181
492.883	0.0181
493.186	0.017
493.489	0.0182
493.792	0.0164
494.096	0.0162
494.399	0.0165
494.701	0.0162
495.004	0.0154
495.307	0.0165
495.61	0.0173
495.912	0.0161
496.215	0.0165
496.517	0.0169
496.82	0.0154
497.122	0.0157
497.424	0.0157
497.727	0.0153
498.029	0.0148
498.331	0.015
498.633	0.0145
498.935	0.0145
499.237	0.0146
499.538	0.0143
499.84	0.0143
500.142	0.0138
500.443	0.0136
500.745	0.0134
501.046	0.0135
501.348	0.0134
501.649	0.0128
501.95	0.0124
502.251	0.013
502.552	0.0121
502.853	0.0134
503.154	0.0129
503.455	0.0121
503.756	0.0122
504.057	0.0112
504.357	0.0111
504.658	0.0118
504.958	0.0112
505.259	0.0116
505.559	0.011
505.859	0.0101
506.16	0.0106
506.46	0.0112
506.76	0.0107
507.06	0.01
507.36	0.0103
507.66	0.011
507.96	0.0127
508.259	0.0102
508.559	0.0106
508.859	0.0103
509.158	0.0098
509.457	0.0095
509.757	0.0093
510.056	0.0088
510.355	0.0087
510.655	0.0086
510.954	0.0088
511.253	0.0085
511.552	0.0094
511.851	0.0089
512.149	0.0085
512.448	0.0087
512.747	0.0075
513.045	0.0084
513.344	0.0083
513.642	0.0086
513.941	0.0076
514.239	0.0088
514.537	0.0077
514.836	0.0081
515.134	0.007
515.432	0.0074
515.73	0.0079
516.028	0.0078
516.326	0.0072
516.623	0.0064
516.921	0.007
517.219	0.0084
517.516	0.0063
517.814	0.0078
518.111	0.007
518.409	0.0073
518.706	0.007
519.003	0.006
519.3	0.0059
519.597	0.0058
519.894	0.0061
520.191	0.0077
520.488	0.0076
520.785	0.0064
521.082	0.0077
521.378	0.0075
521.675	0.0056
521.971	0.006
522.268	0.0061
522.564	0.0064
522.861	0.0076
523.157	0.006
523.453	0.0072
523.749	0.0063
524.045	0.0058
524.341	0.0062
524.637	0.0053
524.933	0.0064
525.229	0.0061
525.524	0.0064
525.82	0.0058
526.115	0.0066
526.411	0.0059
526.706	0.0053
527.002	0.0059
527.297	0.0045
527.592	0.0059
527.887	0.005
528.182	0.0042
528.477	0.0061
528.772	0.0051
529.067	0.006
529.362	0.0054
529.657	0.0045
529.951	0.0045
530.246	0.0038
530.54	0.0046
530.835	0.0046
531.129	0.0049
531.423	0.0047
531.718	0.0049
532.012	0.004
532.306	0.005
532.6	0.004
532.894	0.0051
533.188	0.0048
533.482	0.0047
533.775	0.0036
534.069	0.0043
534.363	0.0045
534.656	0.0038
534.95	0.0043
535.243	0.0037
535.536	0.0042
535.83	0.0043
536.123	0.0025
536.416	0.0036
536.709	0.005
537.002	0.0047
537.295	0.0043
537.588	0.0052
537.881	0.0033
538.173	0.0035
538.466	0.0039
538.759	0.0038
539.051	0.0048
539.344	0.0051
539.636	0.0031
539.928	0.0049
540.22	0.0038
540.513	0.0036
540.805	0.0035
541.097	0.0047
541.389	0.0036
541.681	0.0041
541.972	0.0031
542.264	0.0043
542.556	0.0039
542.847	0.0034
543.139	0.0035
543.431	0.002
543.722	0.0031
544.013	0.0039
544.305	0.0032
544.596	0.0027
544.887	0.0043
545.178	0.0045
545.469	0.0042
545.76	0.0034
546.051	0.0037
546.342	0.0032
546.632	0.0037
546.923	0.0031
547.214	0.0031
547.504	0.0049
547.795	0.0036
548.085	0.0037
548.375	0.004
548.666	0.0043
548.956	0.0032
549.246	0.0044
549.536	0.0041
549.826	0.005
550.116	0.0044
550.406	0.0048
550.695	0.0047
550.985	0.0039
551.275	0.0048
551.564	0.0057
551.854	0.0051
552.143	0.0044
552.433	0.0043
552.722	0.004
553.011	0.0039
553.3	0.0039
553.589	0.0049
553.879	0.0044
554.167	0.0047
554.456	0.003
554.745	0.0041
555.034	0.0049
555.323	0.005
555.611	0.0056
555.9	0.0044
556.188	0.0038
556.477	0.0031
556.765	0.0057
557.053	0.0047
557.342	0.0036
557.63	0.0036
557.918	0.0039
558.206	0.0051
558.494	0.0041
558.782	0.0045
559.069	0.0062
559.357	0.0036
559.645	0.005
559.932	0.0048
560.22	0.0041
560.507	0.0026
560.795	0.0032
561.082	0.0027
561.37	0.0041
561.657	0.004
561.944	0.0031
562.231	0.0036
562.518	0.0043
562.805	0.0037
563.092	0.0032
563.379	0.0035
563.665	0.0035
563.952	0.0043
564.239	0.0041
564.525	0.0045
564.811	0.0041
565.098	0.0041
565.384	0.0041
565.67	0.0037
565.957	0.0043
566.243	0.0039
566.529	0.004
566.815	0.0039
567.101	0.0044
567.387	0.004
567.672	0.0036
567.958	0.0026
568.244	0.0027
568.529	0.0034
568.815	0.0035
569.1	0.0044
569.386	0.0045
569.671	0.0032
569.956	0.0034
570.242	0.0036
570.527	0.002
570.812	0.0025
571.097	0.0029
571.382	0.0026
571.666	0.0025
571.951	0.0036
572.236	0.003
572.521	0.0034
572.805	0.0031
573.09	0.0042
573.374	0.0039
573.659	0.0031
573.943	0.0024
574.227	0.0029
574.511	0.004
574.795	0.0035
575.079	0.0035
575.363	0.0034
575.647	0.0026
575.931	0.0027
576.215	0.0043
576.499	0.0036
576.782	0.0028
577.066	0.0029
577.349	0.003
577.633	0.0043
577.916	0.0039
578.2	0.0037
578.483	0.0031
578.766	0.0039
579.049	0.0034
579.332	0.0029
579.615	0.0032
579.898	0.003
580.181	0.0026
580.464	0.0026
580.746	0.0031
581.029	0.0027
581.312	0.0024
581.594	0.0032
581.877	0.0025
582.159	0.0026
582.441	0.0026
582.724	0.0029
583.006	0.003
583.288	0.0035
583.57	0.0025
583.852	0.0028
584.134	0.004
584.416	0.0032
584.697	0.0037
584.979	0.0038
585.261	0.003
585.542	0.0028
585.824	0.003
586.105	0.0032
586.387	0.0023
586.668	0.0038
586.949	0.0036
587.231	0.0034
587.512	0.0032
587.793	0.0031
588.074	0.0028
588.355	0.0027
588.636	0.0026
588.916	0.0029
589.197	0.0012
589.478	0.0025
589.758	0.0026
590.039	0.0023
590.319	0.0013
590.6	0.0018
590.88	0.0026
591.16	0.0022
591.441	0.0036
591.721	0.0026
592.001	0.0027
592.281	0.0026
592.561	0.0031
592.841	0.0045
593.12	0.0035
593.4	0.0035
593.68	0.0029
593.959	0.0028
594.239	0.0035
594.518	0.0033
594.798	0.0041
595.077	0.0033
595.356	0.0034
595.636	0.0031
595.915	0.0028
596.194	0.0026
596.473	0.0035
596.752	0.0032
597.031	0.0036
597.31	0.0032
597.588	0.0022
597.867	0.003
598.146	0.002
598.424	0.0009
598.703	0.0027
598.981	0.0029
599.259	0.0021
599.538	0.002
599.816	0.0029
600.094	0.0032
600.372	0.0028
600.65	0.0031
600.928	0.0025
601.206	0.0033
601.484	0.0026
601.762	0.0026
602.04	0.0035
602.317	0.0033
602.595	0.0036
602.872	0.0036
603.15	0.0041
603.427	0.0032
603.704	0.0019
603.982	0.0019
604.259	0.0023
604.536	0.0028
604.813	0.0019
605.09	0.0027
605.367	0.0032
605.644	0.002
605.921	0.0017
606.197	0.0024
606.474	0.0017
606.751	0.002
607.027	0.0024
607.304	0.0023
607.58	0.0034
607.856	0.0034
608.133	0.0038
608.409	0.0038
608.685	0.004
608.961	0.0032
609.237	0.0031
609.513	0.0038
609.789	0.0026
610.065	0.0041
610.341	0.003
610.616	0.0024
610.892	0.0027
611.167	0.0033
611.443	0.003
611.718	0.0025
611.994	0.0028
612.269	0.0017
612.544	0.0027
612.819	0.003
613.095	0.0029
613.37	0.0025
613.645	0.0029
613.919	0.0024
614.194	0.0031
614.469	0.0036
614.744	0.0029
615.019	0.0032
615.293	0.0019
615.568	0.0029
615.842	0.0025
616.116	0.002
616.391	0.0021
616.665	0.0015
616.939	0.0003
617.213	0.0017
617.488	0.0022
617.762	0.0018
618.035	0.0034
618.309	0.0029
618.583	0.0023
618.857	0.0031
619.131	0.0029
619.404	0.0024
619.678	0.003
619.951	0.0035
620.225	0.0017
620.498	0.0014
620.771	0.0022
621.045	0.0009
621.318	0.0015
621.591	0.0027
621.864	0.0027
622.137	0.0018
622.41	0.0018
622.683	0.0009
622.956	0.0013
623.228	0.0028
623.501	0.0026
623.774	0.0026
624.046	0.0026
624.319	0.0031
624.591	0.0017
624.863	0.0022
625.136	0.0028
625.408	0.0045
625.68	0.004
625.952	0.0033
626.224	0.0041
626.496	0.0036
626.768	0.0026
627.04	0.0028
627.311	0.0028
627.583	0.0027
627.855	0.003
628.126	0.0021
628.398	0.0015
628.669	0.0014
628.941	0.0011
629.212	0.0007
629.483	0.0018
629.755	0.0005
630.026	0.0013
630.297	0.0004
630.568	0.0009
630.839	0.0006
631.11	0.0007
631.38	0.0011
631.651	0.0011
631.922	0.0016
632.192	0.0011
632.463	0.0012
632.733	0.001
633.004	0.0019
633.274	0.0016
633.545	0.0015
633.815	0.0023
634.085	0.0014
634.355	0.0013
634.625	0.0022
634.895	0.0022
635.165	0.0012
635.435	0.0025
635.705	0.0025
635.974	0.0023
636.244	0.0014
636.514	0.0014
636.783	0.0014
637.053	0.0027
637.322	0.0022
637.591	0.0015
637.861	0.0009
638.13	0.0006
638.399	0.002
638.668	0.0016
638.937	0.0013
639.206	0.0008
639.475	0.0019
639.744	0.0022
640.013	0.0019
640.281	0.0018
640.55	0.0019
640.819	0.0008
641.087	0.0019
641.356	0.0006
641.624	0.0011
641.892	0.0016
642.161	0.001
642.429	0.0017
642.697	0.0014
642.965	0.0011
643.233	-0
643.501	0.0017
643.769	0.0011
644.037	0.0009
644.305	0.0003
644.572	0.0008
644.84	0.0004
645.108	0.0022
645.375	0.0016
645.643	0.0022
645.91	0.0021
646.177	0.001
646.445	0.0008
646.712	0.0018
646.979	0.0013
647.246	0.0026
647.513	0.0023
647.78	0.0027
648.047	0.0005
648.314	0.0008
648.58	0.0007
648.847	-0.0015
649.114	-0.0008
649.38	0.0003
649.647	-0.0001
649.913	0.0002
650.18	0.0021
650.446	0.0026
650.712	0.0037
650.978	0.0037
651.245	0.0038
651.511	0.0041
651.777	0.0044
652.043	0.0037
652.309	0.0024
652.574	0.0017
652.84	0.0021
653.106	0.0042
653.371	0.004
653.637	0.0041
653.903	0.0035
654.168	0.0024
654.433	0.0024
654.699	0.0019
654.964	0.0001
655.229	0.0011
655.494	0.0022
655.759	0.0024
656.024	0.0005
656.289	-0
656.554	-0.0023
656.819	0.0001
657.084	0.0023
657.349	0.003
657.613	0.0022
657.878	0.001
658.142	0.0002
658.407	0.0005
658.671	0.0003
658.936	0.0006
659.2	0.0019
659.464	0.0016
659.728	0.001
659.992	0.0005
660.256	-0.0009
660.52	0.0005
660.784	0.0006
661.048	0.0021
661.312	0.0013
661.575	0.0007
661.839	0.0011
662.103	-0.0002
662.366	-0.0004
662.63	0.0013
662.893	0.0012
663.156	0.0017
663.42	0.0022
663.683	0.0019
663.946	0.0028
664.209	0.0029
664.472	0.0028
664.735	0.0032
664.998	0.004
665.261	0.0048
665.524	0.0034
665.786	0.0031
666.049	0.0032
666.312	0.0029
666.574	0.0029
666.837	0.0036
667.099	0.0021
667.361	0.0031
667.624	0.0031
667.886	0.0032
668.148	0.0032
668.41	0.0029
668.672	0.0027
668.934	0.0029
669.196	0.0019
669.458	0.0007
669.72	0.0004
669.982	0.0004
670.243	-0.0001
670.505	0.0009
670.766	0.0006
671.028	0.001
671.289	0.0016
671.551	0.0026
671.812	0.0011
672.073	0.001
672.334	0.0011
672.596	0.0009
672.857	0.0015
673.118	0.0018
673.379	0.0033
673.639	0.0023
673.9	0.0026
674.161	0.0022
674.422	0.0023
674.682	0.0012
674.943	0.0011
675.203	0.0016
675.464	0.0023
675.724	0.0021
675.985	0.0017
676.245	0.0013
676.505	0.0016
676.765	0.0011
677.025	0.001
677.285	0.0012
677.545	0.0012
677.805	0.0012
678.065	0.0016
678.325	0.002
678.585	0.0038
678.844	0.0035
679.104	0.0038
679.363	0.0045
679.623	0.0047
679.882	0.0038
680.142	0.0044
680.401	0.004
680.66	0.0045
680.919	0.0033
681.178	0.0029
681.437	0.0031
681.696	0.0025
681.955	0.0043
682.214	0.0042
682.473	0.0041
682.732	0.0038
682.99	0.0046
683.249	0.0043
683.508	0.0046
683.766	0.0048
684.024	0.0029
684.283	0.0021
684.541	0.0018
684.799	0.0015
685.058	-0
685.316	0.0002
685.574	0
685.832	0.0011
686.09	0.0001
686.348	-0.0006
686.606	-0.0001
686.863	-0.0012
687.121	-0.0009
687.379	-0.0013
687.636	-0.0022
687.894	-0.0026
688.151	-0.0015
688.409	-0.0008
688.666	-0.0008
688.923	-0.0012
689.181	-0.0014
689.438	-0.0013
689.695	-0.0007
689.952	-0.0007
690.209	-0.0008
690.466	-0.0006
690.723	-0.0006
690.979	-0.0006
691.236	-0.0007
691.493	-0.002
691.75	-0.0013
692.006	-0.0014
692.263	-0.0013
692.519	-0.001
692.775	-0.001
693.032	-0.0022
693.288	-0.0019
693.544	-0.0019
693.8	-0.0009
694.056	-0.0006
694.313	-0.001
694.568	-0.0006
694.824	-0.0013
695.08	-0.0003
695.336	-0.0006
695.592	-0.0003
695.847	0.0001
696.103	0.0013
696.359	0.0027
696.614	0.0024
696.869	0.0022
697.125	0.0006
697.38	-0.0007
697.635	-0.0004
697.891	0.0006
698.146	0.0002
698.401	-0
698.656	-0.0007
698.911	0.0004
699.166	0.0002
699.42	0.0009
699.675	0.0021
699.93	0.0027
700.185	0.0022
700.439	0.0019
700.694	0.0016
700.948	0.0026
701.203	0.0014
701.457	0.0007
701.711	0.001
701.965	0.0007
702.22	0.0013
702.474	0.0005
702.728	0.0004
702.982	0.0005
703.236	-0.0001
703.49	-0.0007
703.743	-0.0005
703.997	-0.0002
704.251	0.0003
704.504	0.0026
704.758	0.0015
705.012	0.0014
705.265	0.002
705.518	0.0006
705.772	0.0007
706.025	0.0015
706.278	0.0011
706.531	0.0008
706.785	0.0003
707.038	-0.0008
707.291	-0.0006
707.543	-0.0002
707.796	-0.0001
708.049	0.0004
708.302	-0.0001
708.555	-0.0002
708.807	-0.0002
709.06	0.0014
709.312	0.0018
709.565	0.0019
709.817	0.0029
710.069	0.0023
710.322	0.0029
710.574	0.0032
710.826	0.0028
711.078	0.0021
711.33	0.0029
711.582	0.0022
711.834	0.0016
712.086	0.0029
712.338	0.0029
712.59	0.0022
712.841	0.0019
713.093	0.0008
713.344	0.0019
713.596	0.0009
713.847	-0.0005
714.099	-0.0002
714.35	0.0001
714.601	-0.0005
714.853	-0.0022
715.104	-0.0014
715.355	-0.0008
715.606	-0.001
715.857	-0.0001
716.108	-0.0001
716.359	0.0007
716.609	-0.001
716.86	0.0007
717.111	0.0006
717.361	0.0004
717.612	0.0008
717.863	0.0013
718.113	0.002
718.363	0.0021
718.614	0.0016
718.864	0.0017
719.114	0.0007
719.364	0.0001
719.614	0
719.865	-0.0007
720.114	0.0002
720.364	0.0006
720.614	-0.0002
720.864	-0
721.114	-0.0006
721.364	-0.0019
721.613	-0.0013
721.863	-0.0011
722.112	-0.0002
722.362	0.0004
722.611	0.0004
722.86	0.0013
723.11	0.0017
723.359	0.0013
723.608	0.0016
723.857	0.0028
724.106	0.0024
724.355	0.001
724.604	0.0016
724.853	0.0007
725.102	0.0001
725.351	-0.001
725.599	-0.0025
725.848	-0.0017
726.097	-0.0014
726.345	-0.0013
726.594	-0.0015
726.842	-0.0004
727.09	-0.0015
727.339	-0.0014
727.587	-0.0014
727.835	-0.0015
728.083	-0.0021
728.331	-0.0022
728.579	-0.0011
728.827	-0.002
729.075	-0.0019
729.323	-0.0019
729.571	-0.0024
729.818	-0.0021
730.066	-0.0019
730.314	-0.0016
730.561	-0.0018
730.809	-0.0023
731.056	-0.0024
731.303	-0.0034
731.551	-0.002
731.798	-0.0022
732.045	-0.001
732.292	-0.0021
732.539	-0.0015
732.786	-0.0016
733.033	-0.0023
733.28	-0.0011
733.527	-0.0018
733.774	-0.0019
734.021	-0.0009
734.267	-0.0008
734.514	-0.0011
734.76	-0.0017
735.007	-0.0022
735.253	-0.0012
735.5	0.0007
735.746	0.0017
735.992	0.001
736.238	0.0011
736.485	0.001
736.731	0.0022
736.977	0.0011
737.223	-0.0001
737.469	-0.0003
737.715	0.0003
737.96	0.0012
738.206	0.0008
738.452	0.0008
738.697	0.0009
738.943	-0.0001
739.189	0.0002
739.434	-0.0007
739.679	-0.0002
739.925	0.0011
740.17	0.0026
740.415	0.0023
740.66	0.0017
740.906	0.001
741.151	0.0016
741.396	-0.0001
741.641	0.0002
741.886	0.0006
742.13	0.0009
742.375	0.0021
742.62	0.0011
742.865	0.0006
743.109	0.0017
743.354	-0
743.598	-0.0007
743.843	-0.0024
744.087	-0.0033
744.331	-0.0027
744.576	-0.0017
744.82	-0.0013
745.064	-0.0013
745.308	-0.0008
745.552	-0.0005
745.796	-0.0014
746.04	-0.0002
746.284	-0.0009
746.528	-0.0006
746.771	-0.0002
747.015	-0.0003
747.259	-0.0004
747.502	-0.001
747.746	-0.0014
747.989	-0.0005
748.233	0.0004
748.476	-0.0006
748.719	0.0002
748.963	0.0006
749.206	0
749.449	0.0004
749.692	-0.0001
749.935	-0.0002
750.178	-0.0001
750.421	-0.0003
750.664	-0.0001
750.906	0.0001
751.149	0.0004
751.392	0.0012
751.635	0.0008
751.877	0.0005
752.12	-0.0004
752.362	0.0005
752.604	0.0008
752.847	-0
753.089	0.0008
753.331	0.0007
753.573	0.0012
753.816	0.0015
754.058	0.0008
754.3	0.0013
754.542	0.0021
754.783	0.0024
755.025	0.0029
755.267	0.0029
755.509	0.0027
755.75	0.0008
755.992	0.0015
756.234	0.0011
756.475	0.0017
756.716	0.0007
756.958	-0.0003
757.199	-0.0009
757.44	0.0002
757.682	0.0001
757.923	0.0003
758.164	0.0007
758.405	0.0001
758.646	0.0008
758.887	-0.0004
759.128	-0.0013
759.369	-0.0006
759.609	-0.0002
759.85	-0.0001
760.091	0.0001
760.331	0.001
760.572	0.0019
760.812	0.0004
761.053	0.001
761.293	0.0015
761.533	0.0021
761.774	0.0019
762.014	0.0029
762.254	0.0025
762.494	0.0022
762.734	0.0022
762.974	0.0018
763.214	0.0013
763.454	0.0014
763.694	0.001
763.933	0.0026
764.173	0.0035
764.413	0.0035
764.652	0.0014
764.892	0.0013
765.131	0.001
765.371	-0.0002
765.61	-0.001
765.849	-0.0018
766.089	-0.0023
766.328	-0.0015
766.567	-0.002
766.806	-0.0031
767.045	-0.0041
767.284	-0.0029
767.523	-0.0035
767.762	-0.003
768.001	-0.0026
768.239	-0.0022
768.478	-0.0023
768.717	-0.0036
768.955	-0.0026
769.194	-0.0031
769.432	-0.0024
769.671	-0.0022
769.909	-0.0012
770.148	-0.0014
770.386	-0.0009
770.624	-0.0016
770.862	-0.0019
771.1	-0.0026
771.338	-0.0015
771.576	-0.0006
771.814	0.0008
772.052	0.0007
772.29	0.0025
772.528	0.0002
772.765	-0.0007
773.003	-0.0001
773.24	-0.0003
773.478	-0.0008
773.716	0.0013
773.953	0.0011
774.19	0.0016
774.428	0.0021
774.665	0.0029
774.902	0.0028
775.139	0.0031
775.376	0.0018
775.613	0.0015
775.85	0.0012
776.087	0.0008
776.324	0.0002
776.561	-0.0002
776.798	0.0002
777.034	0.0001
777.271	0.001
777.508	0.0008
777.744	0.002
777.981	0.0023
778.217	0.0008
778.454	-0
778.69	-0.0002
778.926	0.0002
779.162	0.0004
779.399	0.0012
779.635	0.0001
779.871	0.0001
780.107	-0.0002
780.343	-0.001
780.579	-0.0003
780.814	-0
781.05	-0.0006
781.286	-0.0003
781.522	-0.0012
781.757	-0.0015
781.993	-0.002
782.228	-0.0017
782.464	-0.0007
782.699	-0
782.934	-0.0005
783.17	-0.0003
783.405	0.0003
783.64	-0.0007
783.875	-0.0012
784.11	-0.0021
784.345	-0.0017
784.58	-0.0017
784.815	-0.0024
785.05	-0.0019
785.285	-0.0013
785.52	-0.0003
785.754	-0.0008
785.989	-0.0009
786.223	-0.0002
786.458	0.0007
786.692	0.0017
786.927	0.0021
787.161	0.002
787.396	0.0027
787.63	0.0024
787.864	0.0006
788.098	-0.0011
788.332	-0.0007
788.566	-0.0012
788.8	-0.0008
789.034	-0
789.268	-0.0002
789.502	0
789.736	0.0007
789.969	0.0005
790.203	-0.0001
790.437	0.0005
790.67	0.0009
790.904	0.0022
791.137	0.0017
791.37	0.0019
791.604	0.0024
791.837	0.0031
792.07	0.0036
792.303	0.0037
792.537	0.0051
792.77	0.0046
793.003	0.0039
793.236	0.0037
793.469	0.0039
793.701	0.003
793.934	0.0031
794.167	0.0025
794.4	0.0015
794.632	0.0009
794.865	0.0009
795.097	-0.0002
795.33	0.0011
795.562	-0.0005
795.795	0.0004
796.027	0.0007
796.259	0.0018
796.491	0.0017
796.724	0.0033
796.956	0.003
797.188	0.0029
797.42	0.002
797.652	0.0027
797.883	0.0032
798.115	0.003
798.347	0.0028
798.579	0.0022
798.81	0.0017
799.042	0.0025
799.274	0.0029
799.505	0.0019
799.737	0.0015
799.968	0.0015
800.199	0.0019
800.431	0.003
800.662	0.0025
800.893	0.0028
801.124	0.003
801.355	0.0041
801.586	0.0037
801.817	0.005
802.048	0.0054
802.279	0.004
802.51	0.0044
802.741	0.0045
802.971	0.0038
803.202	0.0028
803.433	0.003
803.663	0.0026
803.894	0.0026
804.124	0.0024
804.354	0.0036
804.585	0.0051
804.815	0.0044
805.045	0.004
805.275	0.004
805.506	-0.0301
805.736	0.0332
805.966	0.0038
806.196	0.1367
