Data from 03 0.4 mM K2Cr2O7 0.25 M BQDS 1 M H2SO4 5 min_Absorbance_0214.txt Node
Date: Wed Dec 15 11:20:13 EST 2021
User: kwabilab-user
Spectrometer: HDX00518
Trigger mode: 0
Integration Time (sec): 5.000000E-2
Scans to average: 50
Nonlinearity correction enabled: false
Boxcar width: 0
Storing dark spectrum: false
XAxis mode: Wavelengths
Number of Pixels in Spectrum: 2068
>>>>>Begin Spectral Data<<<<<
195.27	-0.2741
195.642	-0.0137
196.014	-0.301
196.386	-0.2186
196.758	-0.0857
197.129	-0.0282
197.501	-0.0104
197.872	0.007
198.244	-0.0163
198.615	0.0263
198.986	0.0045
199.357	0.0153
199.728	0.0281
200.099	0.0187
200.47	0.0205
200.841	0.0057
201.212	0.0076
201.582	0.02
201.953	0.0099
202.323	0.0198
202.694	0.0034
203.064	0.0075
203.434	0.0163
203.804	0.001
204.174	0.0109
204.544	0.0275
204.914	0.0011
205.284	0.0084
205.653	-0.0033
206.023	0.0257
206.393	0.0324
206.762	0.0096
207.131	0.0354
207.501	0.0022
207.87	0.0271
208.239	0.0247
208.608	0.0215
208.977	0.011
209.346	-0.0026
209.715	0.0255
210.083	0.0233
210.452	0.0031
210.82	0.0345
211.189	0.0313
211.557	0.0181
211.925	0.0065
212.294	0.0229
212.662	0.0206
213.03	0.0198
213.398	0.0093
213.766	0.0215
214.133	0.0231
214.501	0.0156
214.869	-0.0047
215.236	0.0315
215.604	0.0347
215.971	0.0464
216.338	0.0355
216.705	0.0498
217.072	0.0333
217.439	0.0316
217.806	0.056
218.173	0.0565
218.54	0.0545
218.907	0.0509
219.273	0.0575
219.64	0.0826
220.006	0.0784
220.373	0.0869
220.739	0.0945
221.105	0.1265
221.471	0.1368
221.837	0.1563
222.203	0.1704
222.569	0.1793
222.935	0.2019
223.3	0.2371
223.666	0.2399
224.031	0.279
224.397	0.2882
224.762	0.3008
225.127	0.3294
225.493	0.3618
225.858	0.3858
226.223	0.4061
226.588	0.4202
226.952	0.4306
227.317	0.4858
227.682	0.4656
228.046	0.4903
228.411	0.5092
228.775	0.5183
229.14	0.5142
229.504	0.5237
229.868	0.5426
230.232	0.5544
230.596	0.5763
230.96	0.5817
231.324	0.5782
231.688	0.5943
232.052	0.5934
232.415	0.6032
232.779	0.5991
233.142	0.6068
233.505	0.6114
233.869	0.5958
234.232	0.6072
234.595	0.6037
234.958	0.5989
235.321	0.6024
235.684	0.5936
236.047	0.5975
236.409	0.5919
236.772	0.5946
237.134	0.5841
237.497	0.5865
237.859	0.5985
238.222	0.5787
238.584	0.5689
238.946	0.5757
239.308	0.5734
239.67	0.5678
240.032	0.5667
240.393	0.5616
240.755	0.5592
241.117	0.5577
241.478	0.5541
241.84	0.5552
242.201	0.5494
242.562	0.5377
242.924	0.5401
243.285	0.5335
243.646	0.5311
244.007	0.5279
244.368	0.5333
244.728	0.5271
245.089	0.5239
245.45	0.5156
245.81	0.5188
246.171	0.5119
246.531	0.5093
246.891	0.5118
247.252	0.5035
247.612	0.5116
247.972	0.5005
248.332	0.5048
248.692	0.505
249.051	0.4948
249.411	0.5
249.771	0.4997
250.13	0.4943
250.49	0.492
250.849	0.4887
251.208	0.4885
251.568	0.4899
251.927	0.4835
252.286	0.4854
252.645	0.4878
253.004	0.4906
253.363	0.4851
253.721	0.4839
254.08	0.4821
254.439	0.4787
254.797	0.4737
255.155	0.4794
255.514	0.4758
255.872	0.4788
256.23	0.4718
256.588	0.4723
256.946	0.4747
257.304	0.4668
257.662	0.4745
258.02	0.4747
258.377	0.4726
258.735	0.4707
259.093	0.4656
259.45	0.4662
259.807	0.4667
260.165	0.4622
260.522	0.4633
260.879	0.4608
261.236	0.4638
261.593	0.4603
261.95	0.4602
262.306	0.4548
262.663	0.4536
263.02	0.4536
263.376	0.4526
263.733	0.4518
264.089	0.4506
264.445	0.4468
264.802	0.4484
265.158	0.4439
265.514	0.4467
265.87	0.4424
266.226	0.4375
266.581	0.4432
266.937	0.435
267.293	0.4361
267.648	0.4319
268.004	0.4339
268.359	0.4291
268.714	0.4287
269.07	0.426
269.425	0.4215
269.78	0.4181
270.135	0.4195
270.49	0.416
270.844	0.4146
271.199	0.4093
271.554	0.408
271.908	0.4034
272.263	0.4082
272.617	0.4044
272.972	0.4004
273.326	0.4014
273.68	0.3934
274.034	0.3919
274.388	0.392
274.742	0.3893
275.096	0.3854
275.45	0.3829
275.803	0.3799
276.157	0.3767
276.51	0.3717
276.864	0.3689
277.217	0.37
277.571	0.3689
277.924	0.3625
278.277	0.3596
278.63	0.3548
278.983	0.3525
279.336	0.3513
279.688	0.3454
280.041	0.3419
280.394	0.3357
280.746	0.3351
281.099	0.3337
281.451	0.331
281.803	0.3271
282.156	0.3229
282.508	0.3199
282.86	0.3147
283.212	0.3149
283.564	0.3094
283.916	0.3065
284.267	0.3028
284.619	0.3032
284.971	0.2974
285.322	0.2937
285.673	0.2916
286.025	0.2874
286.376	0.287
286.727	0.2817
287.078	0.2785
287.429	0.2773
287.78	0.2711
288.131	0.27
288.482	0.2668
288.833	0.261
289.183	0.2579
289.534	0.2567
289.884	0.2527
290.235	0.2485
290.585	0.2472
290.935	0.2436
291.285	0.2423
291.635	0.2373
291.985	0.235
292.335	0.2327
292.685	0.2286
293.035	0.2245
293.384	0.2236
293.734	0.2198
294.083	0.2168
294.433	0.2149
294.782	0.2119
295.131	0.2069
295.48	0.2049
295.829	0.202
296.179	0.1998
296.527	0.196
296.876	0.1933
297.225	0.1911
297.574	0.1882
297.922	0.185
298.271	0.1822
298.619	0.179
298.968	0.1775
299.316	0.175
299.664	0.1729
300.012	0.1693
300.36	0.166
300.708	0.165
301.056	0.1627
301.404	0.1609
301.752	0.1579
302.099	0.1554
302.447	0.1536
302.794	0.1519
303.142	0.1498
303.489	0.1476
303.836	0.1453
304.183	0.1442
304.531	0.142
304.878	0.1404
305.224	0.1387
305.571	0.1374
305.918	0.1354
306.265	0.1335
306.611	0.132
306.958	0.1316
307.304	0.13
307.651	0.1293
307.997	0.1278
308.343	0.1255
308.689	0.126
309.035	0.1248
309.381	0.1231
309.727	0.1227
310.073	0.1221
310.419	0.121
310.764	0.1213
311.11	0.1201
311.455	0.1195
311.801	0.1183
312.146	0.1176
312.491	0.1171
312.837	0.1178
313.182	0.116
313.527	0.1159
313.872	0.1159
314.216	0.1162
314.561	0.1152
314.906	0.1153
315.251	0.1161
315.595	0.1155
315.94	0.1155
316.284	0.1154
316.628	0.1154
316.972	0.1156
317.317	0.1159
317.661	0.1161
318.005	0.116
318.348	0.1162
318.692	0.1171
319.036	0.1173
319.38	0.117
319.723	0.117
320.067	0.1184
320.41	0.1189
320.754	0.119
321.097	0.119
321.44	0.1208
321.783	0.121
322.126	0.1219
322.469	0.122
322.812	0.123
323.155	0.1236
323.498	0.1244
323.84	0.1251
324.183	0.1258
324.525	0.127
324.868	0.1283
325.21	0.1279
325.552	0.1289
325.894	0.1304
326.236	0.1309
326.578	0.1316
326.92	0.1321
327.262	0.1327
327.604	0.1337
327.946	0.1355
328.287	0.1356
328.629	0.1369
328.97	0.1384
329.312	0.1384
329.653	0.1401
329.994	0.1416
330.335	0.1424
330.676	0.1435
331.017	0.144
331.358	0.1453
331.699	0.1464
332.04	0.1471
332.38	0.1481
332.721	0.1494
333.061	0.1502
333.402	0.1517
333.742	0.1521
334.083	0.153
334.423	0.1542
334.763	0.1557
335.103	0.1558
335.443	0.1572
335.783	0.158
336.123	0.158
336.462	0.1598
336.802	0.1603
337.141	0.1604
337.481	0.1622
337.82	0.1627
338.16	0.164
338.499	0.1651
338.838	0.1657
339.177	0.1665
339.516	0.1671
339.855	0.1678
340.194	0.1683
340.533	0.1684
340.872	0.169
341.21	0.1707
341.549	0.1704
341.887	0.1714
342.226	0.1713
342.564	0.1724
342.902	0.1733
343.24	0.1724
343.578	0.1737
343.916	0.1729
344.254	0.1746
344.592	0.1743
344.93	0.1746
345.268	0.174
345.605	0.1741
345.943	0.1748
346.28	0.1749
346.618	0.1749
346.955	0.175
347.292	0.1757
347.629	0.1756
347.966	0.1752
348.303	0.1754
348.64	0.1756
348.977	0.1756
349.314	0.176
349.65	0.1751
349.987	0.1768
350.324	0.1754
350.66	0.1761
350.996	0.1757
351.333	0.1749
351.669	0.1741
352.005	0.1744
352.341	0.1736
352.677	0.1729
353.013	0.172
353.349	0.1715
353.685	0.1705
354.02	0.1702
354.356	0.1698
354.691	0.1689
355.027	0.1683
355.362	0.1672
355.697	0.1667
356.033	0.1664
356.368	0.1658
356.703	0.1649
357.038	0.1648
357.373	0.1626
357.707	0.1635
358.042	0.1627
358.377	0.1614
358.711	0.1614
359.046	0.1598
359.38	0.1597
359.715	0.1591
360.049	0.1575
360.383	0.1568
360.717	0.1556
361.051	0.1547
361.385	0.1549
361.719	0.1529
362.053	0.1528
362.387	0.1509
362.72	0.1502
363.054	0.1483
363.387	0.1475
363.721	0.1467
364.054	0.1455
364.387	0.1431
364.721	0.1429
365.054	0.1416
365.387	0.1408
365.72	0.1395
366.053	0.1384
366.385	0.1366
366.718	0.1355
367.051	0.1345
367.383	0.1341
367.716	0.1334
368.048	0.1323
368.381	0.1315
368.713	0.1302
369.045	0.129
369.377	0.1288
369.709	0.1274
370.041	0.1265
370.373	0.1254
370.705	0.1247
371.037	0.1233
371.368	0.1221
371.7	0.1207
372.031	0.1199
372.363	0.1184
372.694	0.1176
373.025	0.116
373.356	0.1149
373.688	0.1135
374.019	0.1122
374.35	0.1104
374.68	0.1097
375.011	0.1078
375.342	0.1064
375.673	0.1051
376.003	0.1033
376.334	0.1026
376.664	0.1019
376.995	0.1006
377.325	0.0987
377.655	0.097
377.985	0.0962
378.315	0.096
378.645	0.0946
378.975	0.0945
379.305	0.0923
379.635	0.0921
379.964	0.0901
380.294	0.0903
380.623	0.0893
380.953	0.088
381.282	0.0872
381.611	0.0871
381.941	0.0857
382.27	0.0847
382.599	0.0846
382.928	0.0824
383.257	0.0816
383.585	0.0811
383.914	0.0789
384.243	0.078
384.571	0.0776
384.9	0.0762
385.228	0.0747
385.557	0.0736
385.885	0.0726
386.213	0.0719
386.541	0.0709
386.869	0.0702
387.197	0.0681
387.525	0.0674
387.853	0.0666
388.181	0.0653
388.508	0.0644
388.836	0.063
389.164	0.0626
389.491	0.0616
389.818	0.0606
390.146	0.0599
390.473	0.0588
390.8	0.0588
391.127	0.0572
391.454	0.057
391.781	0.0568
392.108	0.0557
392.435	0.0542
392.761	0.0535
393.088	0.0537
393.415	0.0532
393.741	0.053
394.067	0.0529
394.394	0.0516
394.72	0.0505
395.046	0.0496
395.372	0.0492
395.698	0.0485
396.024	0.0475
396.35	0.0472
396.676	0.0473
397.001	0.0458
397.327	0.0451
397.653	0.0448
397.978	0.0445
398.303	0.0433
398.629	0.0424
398.954	0.0423
399.279	0.042
399.604	0.0411
399.929	0.0415
400.254	0.0402
400.579	0.0397
400.904	0.0389
401.229	0.0388
401.553	0.0391
401.878	0.0386
402.202	0.0388
402.527	0.0374
402.851	0.0376
403.175	0.0363
403.5	0.0365
403.824	0.0356
404.148	0.0357
404.472	0.0352
404.796	0.0353
405.119	0.035
405.443	0.0351
405.767	0.0345
406.09	0.035
406.414	0.0342
406.737	0.0353
407.061	0.0343
407.384	0.0343
407.707	0.0341
408.03	0.0333
408.353	0.0336
408.676	0.0332
408.999	0.0333
409.322	0.0331
409.645	0.0326
409.968	0.0331
410.29	0.033
410.613	0.0331
410.935	0.0324
411.258	0.0329
411.58	0.0321
411.902	0.0323
412.224	0.0322
412.546	0.0327
412.868	0.033
413.19	0.0324
413.512	0.0322
413.834	0.0318
414.156	0.0322
414.477	0.0318
414.799	0.0322
415.121	0.0315
415.442	0.032
415.763	0.032
416.085	0.0323
416.406	0.0321
416.727	0.0318
417.048	0.0317
417.369	0.0325
417.69	0.0316
418.011	0.032
418.331	0.0324
418.652	0.0321
418.973	0.0314
419.293	0.0317
419.614	0.0308
419.934	0.0321
420.254	0.0313
420.574	0.0306
420.895	0.0313
421.215	0.0313
421.535	0.0314
421.855	0.0306
422.174	0.0304
422.494	0.0313
422.814	0.0311
423.134	0.0311
423.453	0.0316
423.773	0.0316
424.092	0.0317
424.411	0.0318
424.731	0.0312
425.05	0.0312
425.369	0.0313
425.688	0.031
426.007	0.0314
426.326	0.0318
426.644	0.0314
426.963	0.0311
427.282	0.032
427.6	0.0317
427.919	0.0314
428.237	0.0319
428.556	0.0319
428.874	0.0315
429.192	0.0308
429.51	0.0308
429.828	0.0312
430.146	0.0312
430.464	0.0307
430.782	0.0313
431.1	0.0306
431.418	0.0314
431.735	0.0307
432.053	0.0313
432.37	0.0319
432.688	0.031
433.005	0.0303
433.322	0.0315
433.639	0.0308
433.957	0.0313
434.274	0.0314
434.591	0.0315
434.907	0.0306
435.224	0.0313
435.541	0.0309
435.858	0.0316
436.174	0.031
436.491	0.0312
436.807	0.0307
437.124	0.0307
437.44	0.0308
437.756	0.0315
438.072	0.0306
438.388	0.0306
438.704	0.0306
439.02	0.0306
439.336	0.0304
439.652	0.0308
439.968	0.0306
440.283	0.0311
440.599	0.0304
440.914	0.0306
441.23	0.0306
441.545	0.0307
441.86	0.0307
442.175	0.0307
442.491	0.0302
442.806	0.0303
443.121	0.0299
443.435	0.03
443.75	0.0293
444.065	0.0301
444.38	0.0306
444.694	0.0296
445.009	0.0298
445.323	0.0297
445.638	0.0296
445.952	0.0295
446.266	0.029
446.58	0.0282
446.894	0.0291
447.208	0.0284
447.522	0.0286
447.836	0.0292
448.15	0.0288
448.464	0.0283
448.777	0.029
449.091	0.0286
449.404	0.0281
449.718	0.0282
450.031	0.0277
450.345	0.0278
450.658	0.0279
450.971	0.0275
451.284	0.0271
451.597	0.0289
451.91	0.027
452.223	0.028
452.535	0.0275
452.848	0.027
453.161	0.0272
453.473	0.0272
453.786	0.0273
454.098	0.0273
454.411	0.0271
454.723	0.0274
455.035	0.0264
455.347	0.0268
455.659	0.027
455.971	0.0274
456.283	0.0275
456.595	0.0276
456.907	0.027
457.218	0.0267
457.53	0.0263
457.841	0.0266
458.153	0.0262
458.464	0.0256
458.776	0.0257
459.087	0.0255
459.398	0.0256
459.709	0.0246
460.02	0.0262
460.331	0.0253
460.642	0.0254
460.953	0.0247
461.263	0.0252
461.574	0.0245
461.885	0.0251
462.195	0.0246
462.506	0.0246
462.816	0.0256
463.126	0.0242
463.437	0.0248
463.747	0.0238
464.057	0.0231
464.367	0.0228
464.677	0.0236
464.987	0.0233
465.296	0.0224
465.606	0.0222
465.916	0.0218
466.225	0.0225
466.535	0.0219
466.844	0.0226
467.154	0.0226
467.463	0.0227
467.772	0.0217
468.081	0.0218
468.39	0.0229
468.699	0.022
469.008	0.0222
469.317	0.0219
469.626	0.0218
469.935	0.0205
470.243	0.021
470.552	0.0215
470.86	0.0215
471.169	0.0212
471.477	0.0203
471.785	0.0205
472.093	0.0199
472.402	0.0196
472.71	0.0199
473.018	0.0197
473.326	0.0195
473.633	0.0195
473.941	0.0192
474.249	0.0188
474.556	0.0189
474.864	0.0194
475.171	0.0193
475.479	0.0182
475.786	0.019
476.094	0.0177
476.401	0.019
476.708	0.0183
477.015	0.0182
477.322	0.0169
477.629	0.0175
477.936	0.0171
478.242	0.0178
478.549	0.0174
478.856	0.0169
479.162	0.0175
479.469	0.0173
479.775	0.0166
480.081	0.0157
480.388	0.0152
480.694	0.016
481	0.0155
481.306	0.0156
481.612	0.0163
481.918	0.0162
482.224	0.0164
482.53	0.0161
482.835	0.0158
483.141	0.0158
483.446	0.0157
483.752	0.015
484.057	0.0144
484.363	0.0152
484.668	0.0148
484.973	0.0135
485.278	0.0134
485.583	0.0131
485.888	0.014
486.193	0.0123
486.498	0.0128
486.803	0.0126
487.107	0.013
487.412	0.0114
487.717	0.012
488.021	0.0132
488.325	0.0125
488.63	0.0131
488.934	0.0124
489.238	0.0125
489.542	0.0116
489.846	0.0117
490.15	0.0123
490.454	0.0131
490.758	0.0116
491.062	0.0116
491.366	0.0115
491.669	0.0107
491.973	0.011
492.276	0.0113
492.58	0.011
492.883	0.0114
493.186	0.0105
493.489	0.0109
493.792	0.0098
494.096	0.0105
494.399	0.0099
494.701	0.0098
495.004	0.0096
495.307	0.0098
495.61	0.0098
495.912	0.0103
496.215	0.0102
496.517	0.0095
496.82	0.009
497.122	0.0092
497.424	0.0091
497.727	0.0094
498.029	0.0091
498.331	0.0098
498.633	0.009
498.935	0.0088
499.237	0.0089
499.538	0.0089
499.84	0.0089
500.142	0.0077
500.443	0.0081
500.745	0.0083
501.046	0.0078
501.348	0.0066
501.649	0.0075
501.95	0.007
502.251	0.0078
502.552	0.0077
502.853	0.0088
503.154	0.0087
503.455	0.0077
503.756	0.0075
504.057	0.0078
504.357	0.0076
504.658	0.0068
504.958	0.0069
505.259	0.0071
505.559	0.0062
505.859	0.0062
506.16	0.006
506.46	0.0057
506.76	0.0065
507.06	0.005
507.36	0.0063
507.66	0.0065
507.96	0.008
508.259	0.0053
508.559	0.0059
508.859	0.0062
509.158	0.0064
509.457	0.0054
509.757	0.0061
510.056	0.0053
510.355	0.0059
510.655	0.0043
510.954	0.0052
511.253	0.0046
511.552	0.006
511.851	0.0053
512.149	0.0048
512.448	0.0051
512.747	0.0047
513.045	0.0044
513.344	0.0047
513.642	0.0048
513.941	0.0052
514.239	0.0049
514.537	0.0048
514.836	0.0045
515.134	0.0045
515.432	0.0045
515.73	0.0047
516.028	0.0047
516.326	0.0035
516.623	0.0038
516.921	0.0032
517.219	0.0052
517.516	0.0035
517.814	0.0045
518.111	0.0051
518.409	0.0045
518.706	0.0043
519.003	0.0036
519.3	0.003
519.597	0.0036
519.894	0.0034
520.191	0.005
520.488	0.0054
520.785	0.0031
521.082	0.0051
521.378	0.005
521.675	0.004
521.971	0.0031
522.268	0.0039
522.564	0.0046
522.861	0.0052
523.157	0.0046
523.453	0.0041
523.749	0.0033
524.045	0.0034
524.341	0.0038
524.637	0.0033
524.933	0.0038
525.229	0.0039
525.524	0.0031
525.82	0.004
526.115	0.0035
526.411	0.0042
526.706	0.0032
527.002	0.0039
527.297	0.003
527.592	0.0043
527.887	0.002
528.182	0.0029
528.477	0.0031
528.772	0.003
529.067	0.0043
529.362	0.0029
529.657	0.0032
529.951	0.003
530.246	0.003
530.54	0.0027
530.835	0.0036
531.129	0.004
531.423	0.0032
531.718	0.003
532.012	0.0031
532.306	0.0038
532.6	0.0039
532.894	0.003
533.188	0.0033
533.482	0.0026
533.775	0.0032
534.069	0.003
534.363	0.0022
534.656	0.0017
534.95	0.0035
535.243	0.0029
535.536	0.0026
535.83	0.002
536.123	0.0017
536.416	0.0018
536.709	0.0024
537.002	0.0041
537.295	0.0026
537.588	0.0038
537.881	0.0026
538.173	0.0023
538.466	0.0027
538.759	0.0023
539.051	0.0034
539.344	0.0039
539.636	0.0029
539.928	0.0043
540.22	0.0026
540.513	0.0032
540.805	0.0034
541.097	0.0031
541.389	0.0029
541.681	0.0031
541.972	0.0021
542.264	0.0028
542.556	0.0025
542.847	0.0026
543.139	0.0021
543.431	0.0027
543.722	0.0011
544.013	0.0017
544.305	0.0026
544.596	0.0026
544.887	0.0024
545.178	0.0033
545.469	0.0028
545.76	0.0032
546.051	0.0032
546.342	0.0022
546.632	0.0028
546.923	0.0031
547.214	0.003
547.504	0.0038
547.795	0.0028
548.085	0.0023
548.375	0.0034
548.666	0.0047
548.956	0.0033
549.246	0.0046
549.536	0.0038
549.826	0.0049
550.116	0.0036
550.406	0.0032
550.695	0.0032
550.985	0.0043
551.275	0.0038
551.564	0.0041
551.854	0.0048
552.143	0.0041
552.433	0.0039
552.722	0.0045
553.011	0.0048
553.3	0.0043
553.589	0.0053
553.879	0.0049
554.167	0.0038
554.456	0.003
554.745	0.0032
555.034	0.0049
555.323	0.0029
555.611	0.0041
555.9	0.0031
556.188	0.0028
556.477	0.0025
556.765	0.004
557.053	0.0042
557.342	0.0043
557.63	0.0038
557.918	0.0039
558.206	0.0045
558.494	0.0047
558.782	0.0054
559.069	0.0046
559.357	0.0042
559.645	0.0043
559.932	0.0047
560.22	0.0034
560.507	0.0025
560.795	0.0019
561.082	0.0028
561.37	0.003
561.657	0.0024
561.944	0.0037
562.231	0.0037
562.518	0.0033
562.805	0.0045
563.092	0.003
563.379	0.0035
563.665	0.0028
563.952	0.0039
564.239	0.0049
564.525	0.0033
564.811	0.0037
565.098	0.004
565.384	0.003
565.67	0.0043
565.957	0.0044
566.243	0.0049
566.529	0.004
566.815	0.0047
567.101	0.0042
567.387	0.0032
567.672	0.0037
567.958	0.0021
568.244	0.0024
568.529	0.0033
568.815	0.0033
569.1	0.0028
569.386	0.003
569.671	0.0027
569.956	0.0033
570.242	0.0028
570.527	0.0023
570.812	0.0022
571.097	0.0023
571.382	0.0013
571.666	0.002
571.951	0.0033
572.236	0.0023
572.521	0.0027
572.805	0.0037
573.09	0.003
573.374	0.0019
573.659	0.0019
573.943	0.0026
574.227	0.0033
574.511	0.0025
574.795	0.0025
575.079	0.0032
575.363	0.0024
575.647	0.0023
575.931	0.0032
576.215	0.0032
576.499	0.002
576.782	0.002
577.066	0.0026
577.349	0.0029
577.633	0.0035
577.916	0.0025
578.2	0.003
578.483	0.0027
578.766	0.003
579.049	0.0033
579.332	0.003
579.615	0.0025
579.898	0.0025
580.181	0.0027
580.464	0.0031
580.746	0.003
581.029	0.0032
581.312	0.002
581.594	0.0011
581.877	0.0017
582.159	0.0037
582.441	0.002
582.724	0.003
583.006	0.0033
583.288	0.0031
583.57	0.0027
583.852	0.0033
584.134	0.0035
584.416	0.0028
584.697	0.0026
584.979	0.0023
585.261	0.0024
585.542	0.0027
585.824	0.003
586.105	0.0027
586.387	0.0025
586.668	0.0027
586.949	0.0033
587.231	0.0037
587.512	0.003
587.793	0.0024
588.074	0.0032
588.355	0.0033
588.636	0.0024
588.916	0.0033
589.197	0.0028
589.478	0.0032
589.758	0.0027
590.039	0.0018
590.319	0.0018
590.6	0.0024
590.88	0.0027
591.16	0.0023
591.441	0.0037
591.721	0.0021
592.001	0.0019
592.281	0.0032
592.561	0.0026
592.841	0.0024
593.12	0.0026
593.4	0.0026
593.68	0.0027
593.959	0.0018
594.239	0.0033
594.518	0.0037
594.798	0.0044
595.077	0.0031
595.356	0.0029
595.636	0.0031
595.915	0.0027
596.194	0.003
596.473	0.0039
596.752	0.0025
597.031	0.0035
597.31	0.0026
597.588	0.0027
597.867	0.002
598.146	0.0022
598.424	0.0015
598.703	0.002
598.981	0.0017
599.259	0.0015
599.538	0.0027
599.816	0.0029
600.094	0.0025
600.372	0.0023
600.65	0.0031
600.928	0.0038
601.206	0.0032
601.484	0.0029
601.762	0.0032
602.04	0.0042
602.317	0.0025
602.595	0.0043
602.872	0.004
603.15	0.0041
603.427	0.0019
603.704	0.0019
603.982	0.002
604.259	0.0017
604.536	0.0022
604.813	0.0021
605.09	0.0028
605.367	0.0018
605.644	0.0019
605.921	0.0021
606.197	0.0018
606.474	0.0018
606.751	0.002
607.027	0.0024
607.304	0.0021
607.58	0.0022
607.856	0.0028
608.133	0.0037
608.409	0.0036
608.685	0.0035
608.961	0.0036
609.237	0.004
609.513	0.0042
609.789	0.003
610.065	0.0024
610.341	0.0022
610.616	0.0026
610.892	0.0027
611.167	0.0029
611.443	0.0033
611.718	0.002
611.994	0.0023
612.269	0.002
612.544	0.0027
612.819	0.0013
613.095	0.0015
613.37	0.0012
613.645	0.0008
613.919	0.0024
614.194	0.0025
614.469	0.0026
614.744	0.0011
615.019	0.0012
615.293	0.0015
615.568	0.0019
615.842	0.0016
616.116	0.0007
616.391	0.0012
616.665	0.0006
616.939	0.0004
617.213	0.0014
617.488	0.0023
617.762	0.0016
618.035	0.0031
618.309	0.0023
618.583	0.0027
618.857	0.0033
619.131	0.0033
619.404	0.0023
619.678	0.0034
619.951	0.0028
620.225	0.0013
620.498	0.0022
620.771	0.0017
621.045	0.0019
621.318	0.0026
621.591	0.0029
621.864	0.0009
622.137	0.0016
622.41	0.0012
622.683	0.0014
622.956	0.0012
623.228	0.0022
623.501	0.0026
623.774	0.0031
624.046	0.0023
624.319	0.0023
624.591	0.0018
624.863	0.0015
625.136	0.0029
625.408	0.0037
625.68	0.0033
625.952	0.0029
626.224	0.0044
626.496	0.0032
626.768	0.0037
627.04	0.0037
627.311	0.0038
627.583	0.0039
627.855	0.0041
628.126	0.0026
628.398	0.0026
628.669	0.003
628.941	0.0016
629.212	0.0015
629.483	0.002
629.755	0.0014
630.026	0.0028
630.297	0.0023
630.568	0.0023
630.839	0.0036
631.11	0.0036
631.38	0.0038
631.651	0.0035
631.922	0.0027
632.192	0.0025
632.463	0.0034
632.733	0.0031
633.004	0.0034
633.274	0.0022
633.545	0.0021
633.815	0.0035
634.085	0.0032
634.355	0.0022
634.625	0.0031
634.895	0.0033
635.165	0.0022
635.435	0.0044
635.705	0.0018
635.974	0.0019
636.244	0.002
636.514	0.0017
636.783	0.001
637.053	0.0011
637.322	0.001
637.591	0.0018
637.861	0.0004
638.13	0.0016
638.399	0.003
638.668	0.0034
638.937	0.0027
639.206	0.0035
639.475	0.005
639.744	0.0034
640.013	0.0031
640.281	0.0027
640.55	0.0025
640.819	0.0023
641.087	0.003
641.356	0.0027
641.624	0.0033
641.892	0.0038
642.161	0.0043
642.429	0.0034
642.697	0.0039
642.965	0.0034
643.233	0.0026
643.501	0.0017
643.769	0.002
644.037	0.0022
644.305	0.0015
644.572	0.0016
644.84	0.0019
645.108	0.0029
645.375	0.0028
645.643	0.0023
645.91	0.0028
646.177	0.0019
646.445	0.0022
646.712	0.003
646.979	0.0017
647.246	0.0034
647.513	0.0023
647.78	0.0029
648.047	0.0006
648.314	0.0008
648.58	-0.0004
648.847	-0.001
649.114	-0.0017
649.38	-0.001
649.647	-0.0001
649.913	-0.0001
650.18	0.0011
650.446	0.0021
650.712	0.0024
650.978	0.0026
651.245	0.0033
651.511	0.0039
651.777	0.0035
652.043	0.0027
652.309	0.0028
652.574	0.0026
652.84	0.0031
653.106	0.0042
653.371	0.0045
653.637	0.0033
653.903	0.0034
654.168	0.0037
654.433	0.0021
654.699	0.0026
654.964	0.001
655.229	0.0022
655.494	0.002
655.759	-0
656.024	0.0001
656.289	-0
656.554	-0.0007
656.819	0.0025
657.084	0.0042
657.349	0.0041
657.613	0.0041
657.878	0.0019
658.142	0.0019
658.407	0.0022
658.671	0.0027
658.936	0.0032
659.2	0.0033
659.464	0.0028
659.728	0.0019
659.992	0.0015
660.256	0.0003
660.52	0.0009
660.784	0.0012
661.048	0.0022
661.312	0.002
661.575	0.0028
661.839	0.0041
662.103	0.0027
662.366	0.0023
662.63	0.0022
662.893	0.0021
663.156	0.0027
663.42	0.0038
663.683	0.0031
663.946	0.0043
664.209	0.0045
664.472	0.0035
664.735	0.0035
664.998	0.0046
665.261	0.0056
665.524	0.0043
665.786	0.0038
666.049	0.004
666.312	0.0033
666.574	0.0032
666.837	0.0034
667.099	0.0045
667.361	0.0046
667.624	0.0043
667.886	0.0037
668.148	0.0047
668.41	0.0037
668.672	0.004
668.934	0.0044
669.196	0.0031
669.458	0.002
669.72	0.0018
669.982	0.0027
670.243	0.0026
670.505	0.0028
670.766	0.0017
671.028	0.0032
671.289	0.0029
671.551	0.0031
671.812	0.0013
672.073	0.0025
672.334	0.0021
672.596	0.0022
672.857	0.0033
673.118	0.0039
673.379	0.0043
673.639	0.0039
673.9	0.0037
674.161	0.0035
674.422	0.0043
674.682	0.0028
674.943	0.0028
675.203	0.0036
675.464	0.0035
675.724	0.0025
675.985	0.0023
676.245	0.0024
676.505	0.0015
676.765	0.0014
677.025	0.0029
677.285	0.0015
677.545	0.0014
677.805	0.0017
678.065	0.0026
678.325	0.0035
678.585	0.0042
678.844	0.0041
679.104	0.0043
679.363	0.005
679.623	0.0048
679.882	0.0049
680.142	0.0052
680.401	0.0059
680.66	0.0051
680.919	0.0048
681.178	0.005
681.437	0.0047
681.696	0.0029
681.955	0.0054
682.214	0.0056
682.473	0.0057
682.732	0.0039
682.99	0.0061
683.249	0.0059
683.508	0.0057
683.766	0.0045
684.024	0.0041
684.283	0.0034
684.541	0.0028
684.799	0.002
685.058	0.0008
685.316	0.0006
685.574	-0.0001
685.832	0.0009
686.09	0.0013
686.348	0.0014
686.606	0.0016
686.863	0.0009
687.121	0.0009
687.379	0.0005
687.636	-0.0001
687.894	0.0005
688.151	0.0018
688.409	0.0018
688.666	0.0015
688.923	0.0016
689.181	0.0024
689.438	0.0009
689.695	0.0016
689.952	0.0008
690.209	0.0008
690.466	0.0006
690.723	0.0006
690.979	0.001
691.236	0.0005
691.493	-0.0006
691.75	0.0003
692.006	-0
692.263	-0.0006
692.519	0.0002
692.775	-0.001
693.032	-0.0014
693.288	-0.002
693.544	-0.0009
693.8	0.0008
694.056	0.0005
694.313	0.001
694.568	0.0015
694.824	0.0014
695.08	0.0021
695.336	0.0018
695.592	0.0009
695.847	0.0017
696.103	0.0031
696.359	0.0032
696.614	0.0038
696.869	0.002
697.125	0.0004
697.38	-0.0004
697.635	0.0007
697.891	0.0022
698.146	0.0026
698.401	0.0028
698.656	0.0016
698.911	0.0022
699.166	0.0021
699.42	0.0042
699.675	0.004
699.93	0.0043
700.185	0.0039
700.439	0.0034
700.694	0.0029
700.948	0.0021
701.203	0.0024
701.457	0.0017
701.711	0.0023
701.965	0.0011
702.22	0.0014
702.474	0.001
702.728	0.0009
702.982	0.0008
703.236	0.0009
703.49	0.0025
703.743	0.0014
703.997	0.0008
704.251	0.0003
704.504	0.0013
704.758	0.0006
705.012	0.0018
705.265	0.0026
705.518	0.0027
705.772	0.0032
706.025	0.0035
706.278	0.0039
706.531	0.0021
706.785	0.001
707.038	-0.0001
707.291	0.0003
707.543	0.0004
707.796	-0.0002
708.049	0.0004
708.302	-0.0001
708.555	0.0005
708.807	0.0011
709.06	0.0018
709.312	0.0035
709.565	0.0035
709.817	0.0057
710.069	0.0035
710.322	0.0038
710.574	0.003
710.826	0.0021
711.078	0.0017
711.33	0.0015
711.582	0.002
711.834	0.002
712.086	0.0009
712.338	0.0007
712.59	0.0003
712.841	-0.0007
713.093	-0.0014
713.344	0.0004
713.596	-0.0003
713.847	-0.0011
714.099	-0.0002
714.35	0.0009
714.601	-0.0002
714.853	-0.0009
715.104	-0.0001
715.355	-0.0012
715.606	0.0007
715.857	0.0016
716.108	0.0018
716.359	0.0026
716.609	0.001
716.86	0.0025
717.111	0.0019
717.361	0.0015
717.612	0.0024
717.863	0.0027
718.113	0.0025
718.363	0.0025
718.614	0.0021
718.864	0.0027
719.114	0.0022
719.364	0.0013
719.614	0.0005
719.865	0.0011
720.114	0.0023
720.364	0.0024
720.614	0.0017
720.864	0.002
721.114	0.0006
721.364	0.0002
721.613	0.0007
721.863	0.0003
722.112	0.0008
722.362	0.001
722.611	0.0016
722.86	0.0023
723.11	0.0039
723.359	0.0038
723.608	0.0031
723.857	0.0039
724.106	0.0035
724.355	0.0021
724.604	0.0024
724.853	0.0016
725.102	0.0002
725.351	-0.0011
725.599	-0.002
725.848	-0.0012
726.097	0.0004
726.345	0.0003
726.594	0.0007
726.842	0.0016
727.09	0.0007
727.339	0
727.587	-0.0011
727.835	-0.0013
728.083	-0.0015
728.331	-0.0013
728.579	0.0004
728.827	-0.0009
729.075	-0.0023
729.323	-0.0015
729.571	-0.0026
729.818	-0.0028
730.066	-0.0016
730.314	-0.0014
730.561	-0.0015
730.809	-0.0022
731.056	-0.0024
731.303	-0.0026
731.551	-0.0012
731.798	-0.0006
732.045	-0.0001
732.292	-0.0008
732.539	0.0005
732.786	-0.0008
733.033	-0.0018
733.28	-0.0013
733.527	-0.0009
733.774	-0.0018
734.021	-0.0023
734.267	-0.0013
734.514	-0.0012
734.76	-0.0014
735.007	-0.001
735.253	-0.0002
735.5	0.0021
735.746	0.003
735.992	0.0018
736.238	0.0024
736.485	0.0015
736.731	0.0031
736.977	0.002
737.223	0.0008
737.469	0.0006
737.715	0.0022
737.96	0.0028
738.206	0.0025
738.452	0.0027
738.697	0.0014
738.943	0.0008
739.189	0.0018
739.434	-0.0001
739.679	0.0013
739.925	0.0033
740.17	0.0043
740.415	0.003
740.66	0.0029
740.906	0.003
741.151	0.0018
741.396	0.0011
741.641	0.0003
741.886	0.0007
742.13	0.0003
742.375	0.001
742.62	-0.0003
742.865	-0.0005
743.109	0
743.354	-0.0008
743.598	-0.0002
743.843	-0.0014
744.087	-0.0019
744.331	-0.0011
744.576	-0.0001
744.82	0.0007
745.064	0.0009
745.308	0.0013
745.552	0.0011
745.796	0.0002
746.04	0.0004
746.284	-0.0005
746.528	-0.0002
746.771	0.0005
747.015	0.0008
747.259	-0.0006
747.502	-0.0012
747.746	-0.0005
747.989	0.0007
748.233	0.0023
748.476	0.0018
748.719	0.002
748.963	0.0017
749.206	0.0011
749.449	0.0002
749.692	-0.0004
749.935	0.0004
750.178	0.0009
750.421	0.0005
750.664	0.0011
750.906	0.0009
751.149	-0.0004
751.392	0.0004
751.635	0.0009
751.877	0.0008
752.12	0.0008
752.362	0.0018
752.604	0.0019
752.847	0.001
753.089	0.0004
753.331	0.001
753.573	0.0014
753.816	0.001
754.058	0.0016
754.3	0.0021
754.542	0.003
754.783	0.002
755.025	0.0032
755.267	0.002
755.509	0.0019
755.75	0.0001
755.992	0.0011
756.234	0.0012
756.475	0.0023
756.716	0.0015
756.958	0.0004
757.199	0.0006
757.44	0.0015
757.682	0.0015
757.923	0.0017
758.164	0.0022
758.405	0.0024
758.646	0.0029
758.887	0.0017
759.128	0.0018
759.369	0.0002
759.609	0.0006
759.85	0.0013
760.091	0.0009
760.331	0.0013
760.572	0.0015
760.812	-0.0001
761.053	0.0014
761.293	0.0021
761.533	0.0027
761.774	0.002
762.014	0.0032
762.254	0.0023
762.494	0.002
762.734	0.0017
762.974	0.002
763.214	0.001
763.454	0.0016
763.694	0.0019
763.933	0.0035
764.173	0.0042
764.413	0.0049
764.652	0.0018
764.892	0.002
765.131	0.0007
765.371	0.0005
765.61	0.0005
765.849	-0.0013
766.089	-0.0018
766.328	-0.0003
766.567	-0.0014
766.806	-0.0012
767.045	-0.0016
767.284	0
767.523	-0.0005
767.762	-0.0005
768.001	0
768.239	-0.0014
768.478	-0.0012
768.717	-0.0007
768.955	-0.0006
769.194	0.0002
769.432	0.0006
769.671	0.0006
769.909	0.0007
770.148	0
770.386	0.0005
770.624	-0.0004
770.862	-0.0009
771.1	-0.0003
771.338	-0.0006
771.576	-0.0003
771.814	0.0002
772.052	0.0004
772.29	0.0016
772.528	0.0012
772.765	0.0005
773.003	0.0012
773.24	0.0017
773.478	0.0016
773.716	0.002
773.953	0.0021
774.19	0.0024
774.428	0.0022
774.665	0.0033
774.902	0.0036
775.139	0.003
775.376	0.0023
775.613	0.0029
775.85	0.0038
776.087	0.0037
776.324	0.003
776.561	0.0025
776.798	0.0025
777.034	0.0021
777.271	0.0018
777.508	0.0015
777.744	0.003
777.981	0.0023
778.217	0.0018
778.454	0.0011
778.69	0.0014
778.926	0.0017
779.162	0.0013
779.399	0.0027
779.635	0.0015
779.871	0.0018
780.107	0.001
780.343	-0.0003
780.579	0.0013
780.814	0.0017
781.05	0.0019
781.286	0.0008
781.522	-0.0001
781.757	-0.0007
781.993	-0
782.228	-0.0003
782.464	0.0003
782.699	0.0011
782.934	0.0003
783.17	0.0003
783.405	0.0018
783.64	0.0012
783.875	0.0008
784.11	0.0005
784.345	0.0007
784.58	0.0019
784.815	0.0011
785.05	0.0003
785.285	0.0007
785.52	0.0012
785.754	0.0005
785.989	0.0023
786.223	0.0029
786.458	0.0033
786.692	0.0041
786.927	0.0056
787.161	0.0046
787.396	0.0054
787.63	0.0039
787.864	0.0033
788.098	0.0011
788.332	0.0022
788.566	0.0003
788.8	-0
789.034	0.0016
789.268	0.0001
789.502	0.0008
789.736	0.0007
789.969	0.0016
790.203	0.0022
790.437	0.0027
790.67	0.0031
790.904	0.0044
791.137	0.0057
791.37	0.0055
791.604	0.0055
791.837	0.0052
792.07	0.0051
792.303	0.0061
792.537	0.0069
792.77	0.0061
793.003	0.0053
793.236	0.0042
793.469	0.0032
793.701	0.0028
793.934	0.0025
794.167	0.0015
794.4	0.0007
794.632	0.0002
794.865	-0.0003
795.097	0.0001
795.33	0.0004
795.562	-0.0001
795.795	0.0006
796.027	0.0005
796.259	0.0019
796.491	0.0012
796.724	0.0016
796.956	0.0012
797.188	0.0019
797.42	0.0016
797.652	0.002
797.883	0.0025
798.115	0.0021
798.347	0.0024
798.579	0.0019
798.81	0.0021
799.042	0.002
799.274	0.0034
799.505	0.0024
799.737	0.0026
799.968	0.0021
800.199	0.0018
800.431	0.0026
800.662	0.0015
800.893	0.002
801.124	0.0029
801.355	0.0027
801.586	0.0042
801.817	0.0057
802.048	0.0051
802.279	0.0054
802.51	0.0057
802.741	0.0069
802.971	0.0062
803.202	0.0054
803.433	0.0045
803.663	0.0039
803.894	0.004
804.124	0.0043
804.354	0.0051
804.585	0.0055
804.815	0.0052
805.045	0.0065
805.275	0.0051
805.506	0.021
805.736	-0.0782
805.966	-0.166
806.196	-0.1222
