Data from 03 0.4 mM K2Cr2O7 0.25 M BQDS 1 M H2SO4 5 min_Absorbance_0133.txt Node
Date: Wed Dec 15 04:35:12 EST 2021
User: kwabilab-user
Spectrometer: HDX00518
Trigger mode: 0
Integration Time (sec): 5.000000E-2
Scans to average: 50
Nonlinearity correction enabled: false
Boxcar width: 0
Storing dark spectrum: false
XAxis mode: Wavelengths
Number of Pixels in Spectrum: 2068
>>>>>Begin Spectral Data<<<<<
195.27	-0.0697
195.642	0.0258
196.014	0.11
196.386	-0.0033
196.758	-0.084
197.129	-0.0141
197.501	-0.032
197.872	0.0074
198.244	0.0077
198.615	0.0442
198.986	0.0356
199.357	0.0267
199.728	0.0355
200.099	0.0187
200.47	0.0161
200.841	0.0174
201.212	0.0294
201.582	0.017
201.953	0.0237
202.323	0.012
202.694	0.0149
203.064	0.0094
203.434	0.0108
203.804	0.0197
204.174	0.0191
204.544	0.0264
204.914	0.0002
205.284	0.0055
205.653	-0.0071
206.023	0.0151
206.393	0.0124
206.762	0.0122
207.131	0.0114
207.501	0.0297
207.87	0.0203
208.239	0.0159
208.608	0.0201
208.977	0.0105
209.346	0.0096
209.715	0.0363
210.083	0.0068
210.452	0.0089
210.82	0.0379
211.189	0.0022
211.557	0.0373
211.925	0.0157
212.294	0.0063
212.662	0.0212
213.03	0.0088
213.398	0.0005
213.766	0.0242
214.133	0.0205
214.501	0.0196
214.869	0.0158
215.236	0.0123
215.604	0.0287
215.971	0.0514
216.338	0.0384
216.705	0.0261
217.072	0.0246
217.439	0.0418
217.806	0.0467
218.173	0.0598
218.54	0.0583
218.907	0.0502
219.273	0.057
219.64	0.0693
220.006	0.0866
220.373	0.0737
220.739	0.096
221.105	0.1291
221.471	0.1415
221.837	0.1583
222.203	0.176
222.569	0.1853
222.935	0.1961
223.3	0.2276
223.666	0.2384
224.031	0.282
224.397	0.2971
224.762	0.3256
225.127	0.3374
225.493	0.3613
225.858	0.3805
226.223	0.4203
226.588	0.4261
226.952	0.4136
227.317	0.4717
227.682	0.4794
228.046	0.4713
228.411	0.5235
228.775	0.5149
229.14	0.5303
229.504	0.5454
229.868	0.5552
230.232	0.577
230.596	0.5807
230.96	0.5797
231.324	0.584
231.688	0.5895
232.052	0.6108
232.415	0.6019
232.779	0.6056
233.142	0.622
233.505	0.6171
233.869	0.6185
234.232	0.6161
234.595	0.6144
234.958	0.6218
235.321	0.623
235.684	0.6212
236.047	0.611
236.409	0.6135
236.772	0.6028
237.134	0.6057
237.497	0.5994
237.859	0.6132
238.222	0.6043
238.584	0.5957
238.946	0.5933
239.308	0.5919
239.67	0.5852
240.032	0.5854
240.393	0.5769
240.755	0.5777
241.117	0.5807
241.478	0.5782
241.84	0.5685
242.201	0.5651
242.562	0.5633
242.924	0.5578
243.285	0.549
243.646	0.554
244.007	0.5468
244.368	0.544
244.728	0.5498
245.089	0.5428
245.45	0.5404
245.81	0.5327
246.171	0.5314
246.531	0.5347
246.891	0.5366
247.252	0.534
247.612	0.541
247.972	0.5308
248.332	0.5259
248.692	0.5295
249.051	0.5199
249.411	0.5267
249.771	0.5231
250.13	0.5225
250.49	0.5228
250.849	0.5212
251.208	0.5161
251.568	0.5172
251.927	0.5175
252.286	0.5194
252.645	0.5169
253.004	0.5156
253.363	0.5164
253.721	0.513
254.08	0.5155
254.439	0.5127
254.797	0.512
255.155	0.5103
255.514	0.5102
255.872	0.5093
256.23	0.5046
256.588	0.5103
256.946	0.5105
257.304	0.5105
257.662	0.5108
258.02	0.5101
258.377	0.5063
258.735	0.5046
259.093	0.4994
259.45	0.5046
259.807	0.5049
260.165	0.4961
260.522	0.4981
260.879	0.4943
261.236	0.4972
261.593	0.4969
261.95	0.4875
262.306	0.4946
262.663	0.4878
263.02	0.4886
263.376	0.482
263.733	0.4815
264.089	0.484
264.445	0.4822
264.802	0.4787
265.158	0.4815
265.514	0.4762
265.87	0.4741
266.226	0.4751
266.581	0.4746
266.937	0.4736
267.293	0.47
267.648	0.4672
268.004	0.4589
268.359	0.4629
268.714	0.4585
269.07	0.4615
269.425	0.459
269.78	0.4525
270.135	0.4491
270.49	0.4488
270.844	0.4475
271.199	0.4453
271.554	0.4413
271.908	0.4379
272.263	0.4354
272.617	0.4326
272.972	0.4293
273.326	0.4287
273.68	0.4225
274.034	0.4274
274.388	0.4217
274.742	0.4171
275.096	0.4159
275.45	0.4109
275.803	0.4083
276.157	0.4019
276.51	0.4002
276.864	0.3975
277.217	0.3972
277.571	0.3953
277.924	0.3866
278.277	0.3853
278.63	0.3812
278.983	0.3782
279.336	0.3761
279.688	0.3697
280.041	0.3665
280.394	0.3602
280.746	0.3567
281.099	0.3554
281.451	0.3541
281.803	0.3488
282.156	0.3436
282.508	0.3422
282.86	0.3363
283.212	0.337
283.564	0.3311
283.916	0.3265
284.267	0.3219
284.619	0.3226
284.971	0.3177
285.322	0.3148
285.673	0.3114
286.025	0.3054
286.376	0.3052
286.727	0.2982
287.078	0.2962
287.429	0.2959
287.78	0.2893
288.131	0.2867
288.482	0.2812
288.833	0.2792
289.183	0.2768
289.534	0.2729
289.884	0.2691
290.235	0.2656
290.585	0.2622
290.935	0.2613
291.285	0.2589
291.635	0.2531
291.985	0.2506
292.335	0.2479
292.685	0.2438
293.035	0.241
293.384	0.2369
293.734	0.2334
294.083	0.2302
294.433	0.2284
294.782	0.2256
295.131	0.2211
295.48	0.2187
295.829	0.2168
296.179	0.2133
296.527	0.2095
296.876	0.2078
297.225	0.2038
297.574	0.2002
297.922	0.1969
298.271	0.1945
298.619	0.1917
298.968	0.1904
299.316	0.1875
299.664	0.1848
300.012	0.1818
300.36	0.1782
300.708	0.1763
301.056	0.1743
301.404	0.1724
301.752	0.1709
302.099	0.1678
302.447	0.1653
302.794	0.1634
303.142	0.1606
303.489	0.1592
303.836	0.1572
304.183	0.1557
304.531	0.1531
304.878	0.1516
305.224	0.1497
305.571	0.1487
305.918	0.1465
306.265	0.1438
306.611	0.1438
306.958	0.1427
307.304	0.1406
307.651	0.1397
307.997	0.1383
308.343	0.137
308.689	0.1366
309.035	0.1349
309.381	0.1335
309.727	0.1335
310.073	0.1329
310.419	0.1316
310.764	0.1311
311.11	0.13
311.455	0.1298
311.801	0.1291
312.146	0.1282
312.491	0.1283
312.837	0.1278
313.182	0.1261
313.527	0.1268
313.872	0.1268
314.216	0.1266
314.561	0.1261
314.906	0.1258
315.251	0.1267
315.595	0.1256
315.94	0.1261
316.284	0.1258
316.628	0.1264
316.972	0.1267
317.317	0.1271
317.661	0.1264
318.005	0.127
318.348	0.1273
318.692	0.1278
319.036	0.127
319.38	0.1284
319.723	0.1278
320.067	0.1287
320.41	0.1298
320.754	0.1306
321.097	0.1298
321.44	0.1315
321.783	0.1322
322.126	0.1335
322.469	0.1334
322.812	0.1347
323.155	0.1349
323.498	0.1355
323.84	0.136
324.183	0.1373
324.525	0.1376
324.868	0.1393
325.21	0.1399
325.552	0.1409
325.894	0.1428
326.236	0.1426
326.578	0.1439
326.92	0.1442
327.262	0.1454
327.604	0.1468
327.946	0.1475
328.287	0.1481
328.629	0.1494
328.97	0.1502
329.312	0.1513
329.653	0.1527
329.994	0.154
330.335	0.1547
330.676	0.1565
331.017	0.1574
331.358	0.1586
331.699	0.1597
332.04	0.1608
332.38	0.1614
332.721	0.1626
333.061	0.1639
333.402	0.1653
333.742	0.1663
334.083	0.1669
334.423	0.1674
334.763	0.1687
335.103	0.1696
335.443	0.1704
335.783	0.1719
336.123	0.1725
336.462	0.1732
336.802	0.1747
337.141	0.1754
337.481	0.1762
337.82	0.1774
338.16	0.178
338.499	0.179
338.838	0.1798
339.177	0.1808
339.516	0.1811
339.855	0.1822
340.194	0.1829
340.533	0.1836
340.872	0.1844
341.21	0.185
341.549	0.1853
341.887	0.1862
342.226	0.1862
342.564	0.1877
342.902	0.1878
343.24	0.1881
343.578	0.1891
343.916	0.1877
344.254	0.1887
344.592	0.1891
344.93	0.1892
345.268	0.1895
345.605	0.1896
345.943	0.1897
346.28	0.1904
346.618	0.1896
346.955	0.1902
347.292	0.1911
347.629	0.191
347.966	0.1905
348.303	0.1903
348.64	0.191
348.977	0.1913
349.314	0.1906
349.65	0.1904
349.987	0.1911
350.324	0.1901
350.66	0.1913
350.996	0.1908
351.333	0.1896
351.669	0.19
352.005	0.1895
352.341	0.1882
352.677	0.1879
353.013	0.1864
353.349	0.1862
353.685	0.185
354.02	0.1848
354.356	0.1842
354.691	0.1828
355.027	0.1835
355.362	0.1821
355.697	0.1809
356.033	0.1807
356.368	0.1791
356.703	0.1787
357.038	0.1783
357.373	0.1768
357.707	0.1775
358.042	0.1761
358.377	0.1757
358.711	0.1749
359.046	0.1732
359.38	0.1726
359.715	0.1724
360.049	0.1715
360.383	0.1696
360.717	0.1684
361.051	0.168
361.385	0.1668
361.719	0.1664
362.053	0.1653
362.387	0.1635
362.72	0.1625
363.054	0.1611
363.387	0.1597
363.721	0.1577
364.054	0.1565
364.387	0.1554
364.721	0.1543
365.054	0.1534
365.387	0.1521
365.72	0.1504
366.053	0.1494
366.385	0.1473
366.718	0.1469
367.051	0.1454
367.383	0.1449
367.716	0.144
368.048	0.1427
368.381	0.1425
368.713	0.1407
369.045	0.1402
369.377	0.1386
369.709	0.1374
370.041	0.1363
370.373	0.1357
370.705	0.1342
371.037	0.1331
371.368	0.1323
371.7	0.1305
372.031	0.1297
372.363	0.1283
372.694	0.1274
373.025	0.1252
373.356	0.124
373.688	0.1226
374.019	0.1214
374.35	0.1194
374.68	0.1182
375.011	0.1165
375.342	0.1155
375.673	0.1138
376.003	0.1118
376.334	0.1116
376.664	0.1095
376.995	0.1087
377.325	0.1068
377.655	0.1053
377.985	0.1045
378.315	0.1041
378.645	0.1023
378.975	0.102
379.305	0.1001
379.635	0.0992
379.964	0.0987
380.294	0.0975
380.623	0.0967
380.953	0.0952
381.282	0.0954
381.611	0.0948
381.941	0.0931
382.27	0.0917
382.599	0.0913
382.928	0.0887
383.257	0.0885
383.585	0.0881
383.914	0.0856
384.243	0.0849
384.571	0.0843
384.9	0.0831
385.228	0.0809
385.557	0.0804
385.885	0.0788
386.213	0.0774
386.541	0.076
386.869	0.0755
387.197	0.0739
387.525	0.0732
387.853	0.0722
388.181	0.0708
388.508	0.0698
388.836	0.069
389.164	0.0681
389.491	0.0663
389.818	0.0656
390.146	0.0649
390.473	0.0639
390.8	0.064
391.127	0.062
391.454	0.0611
391.781	0.0617
392.108	0.0606
392.435	0.0586
392.761	0.0586
393.088	0.0583
393.415	0.0574
393.741	0.0578
394.067	0.0567
394.394	0.0558
394.72	0.0546
395.046	0.0538
395.372	0.0537
395.698	0.0529
396.024	0.0516
396.35	0.0514
396.676	0.0506
397.001	0.0496
397.327	0.0486
397.653	0.0485
397.978	0.0477
398.303	0.0469
398.629	0.0462
398.954	0.046
399.279	0.046
399.604	0.0444
399.929	0.0449
400.254	0.0432
400.579	0.0434
400.904	0.0427
401.229	0.043
401.553	0.0419
401.878	0.0418
402.202	0.0413
402.527	0.0409
402.851	0.0412
403.175	0.0397
403.5	0.0398
403.824	0.0389
404.148	0.0395
404.472	0.0384
404.796	0.0382
405.119	0.0379
405.443	0.0375
405.767	0.0374
406.09	0.0376
406.414	0.0373
406.737	0.0369
407.061	0.0373
407.384	0.0366
407.707	0.0367
408.03	0.0363
408.353	0.0365
408.676	0.0363
408.999	0.0361
409.322	0.036
409.645	0.0358
409.968	0.0354
410.29	0.0357
410.613	0.0357
410.935	0.0349
411.258	0.0351
411.58	0.0343
411.902	0.0342
412.224	0.0349
412.546	0.0349
412.868	0.0352
413.19	0.0348
413.512	0.0344
413.834	0.0345
414.156	0.0349
414.477	0.0341
414.799	0.0351
415.121	0.0341
415.442	0.0341
415.763	0.0339
416.085	0.0341
416.406	0.034
416.727	0.0343
417.048	0.0345
417.369	0.0345
417.69	0.034
418.011	0.034
418.331	0.0345
418.652	0.0339
418.973	0.0339
419.293	0.0341
419.614	0.033
419.934	0.0348
420.254	0.0343
420.574	0.0333
420.895	0.0334
421.215	0.0339
421.535	0.0328
421.855	0.033
422.174	0.0328
422.494	0.0332
422.814	0.0335
423.134	0.0336
423.453	0.0338
423.773	0.0342
424.092	0.034
424.411	0.0339
424.731	0.0337
425.05	0.0339
425.369	0.0342
425.688	0.0336
426.007	0.0339
426.326	0.0345
426.644	0.0337
426.963	0.0333
427.282	0.0336
427.6	0.0342
427.919	0.0338
428.237	0.0339
428.556	0.0338
428.874	0.0341
429.192	0.0341
429.51	0.0337
429.828	0.0342
430.146	0.0342
430.464	0.0334
430.782	0.0338
431.1	0.0332
431.418	0.033
431.735	0.0331
432.053	0.0332
432.37	0.0338
432.688	0.0332
433.005	0.0322
433.322	0.0343
433.639	0.0342
433.957	0.0339
434.274	0.034
434.591	0.0345
434.907	0.0335
435.224	0.0338
435.541	0.034
435.858	0.0345
436.174	0.0341
436.491	0.033
436.807	0.0334
437.124	0.0332
437.44	0.0332
437.756	0.0338
438.072	0.0328
438.388	0.0331
438.704	0.0329
439.02	0.0332
439.336	0.0328
439.652	0.0336
439.968	0.0325
440.283	0.0334
440.599	0.0325
440.914	0.0332
441.23	0.0328
441.545	0.0325
441.86	0.0327
442.175	0.0336
442.491	0.0325
442.806	0.0322
443.121	0.0323
443.435	0.0318
443.75	0.0324
444.065	0.0323
444.38	0.0322
444.694	0.032
445.009	0.0322
445.323	0.0321
445.638	0.032
445.952	0.0321
446.266	0.0308
446.58	0.0306
446.894	0.0321
447.208	0.0315
447.522	0.0312
447.836	0.0319
448.15	0.0312
448.464	0.0312
448.777	0.0314
449.091	0.0303
449.404	0.0314
449.718	0.0307
450.031	0.0301
450.345	0.031
450.658	0.0304
450.971	0.0307
451.284	0.03
451.597	0.0306
451.91	0.0297
452.223	0.0302
452.535	0.0299
452.848	0.0298
453.161	0.0298
453.473	0.0299
453.786	0.0298
454.098	0.0293
454.411	0.0299
454.723	0.0298
455.035	0.0288
455.347	0.0292
455.659	0.0292
455.971	0.0297
456.283	0.0299
456.595	0.0294
456.907	0.0287
457.218	0.0292
457.53	0.028
457.841	0.0276
458.153	0.0285
458.464	0.0279
458.776	0.0278
459.087	0.028
459.398	0.0282
459.709	0.0269
460.02	0.0279
460.331	0.0282
460.642	0.0273
460.953	0.0268
461.263	0.0271
461.574	0.0262
461.885	0.028
462.195	0.026
462.506	0.0267
462.816	0.0276
463.126	0.0263
463.437	0.0255
463.747	0.0256
464.057	0.0247
464.367	0.0249
464.677	0.0252
464.987	0.0251
465.296	0.0247
465.606	0.0246
465.916	0.024
466.225	0.0247
466.535	0.0246
466.844	0.0253
467.154	0.0252
467.463	0.0249
467.772	0.024
468.081	0.0245
468.39	0.0247
468.699	0.0237
469.008	0.0236
469.317	0.024
469.626	0.0238
469.935	0.0234
470.243	0.0236
470.552	0.0227
470.86	0.0229
471.169	0.0226
471.477	0.0216
471.785	0.022
472.093	0.0213
472.402	0.0212
472.71	0.0215
473.018	0.0207
473.326	0.021
473.633	0.0206
473.941	0.0213
474.249	0.0218
474.556	0.0206
474.864	0.0206
475.171	0.0212
475.479	0.0202
475.786	0.0209
476.094	0.0202
476.401	0.0198
476.708	0.0191
477.015	0.0197
477.322	0.0188
477.629	0.0182
477.936	0.0194
478.242	0.0193
478.549	0.0194
478.856	0.0187
479.162	0.0183
479.469	0.0177
479.775	0.0181
480.081	0.0175
480.388	0.0172
480.694	0.0174
481	0.0171
481.306	0.0175
481.612	0.018
481.918	0.0181
482.224	0.0176
482.53	0.0172
482.835	0.017
483.141	0.0172
483.446	0.0168
483.752	0.0158
484.057	0.0159
484.363	0.0157
484.668	0.0163
484.973	0.0154
485.278	0.0152
485.583	0.014
485.888	0.0149
486.193	0.0134
486.498	0.0152
486.803	0.0148
487.107	0.0144
487.412	0.0129
487.717	0.0142
488.021	0.0145
488.325	0.0142
488.63	0.0139
488.934	0.0142
489.238	0.0131
489.542	0.0138
489.846	0.0132
490.15	0.0134
490.454	0.0138
490.758	0.0134
491.062	0.0128
491.366	0.0132
491.669	0.0129
491.973	0.0133
492.276	0.0125
492.58	0.0123
492.883	0.0125
493.186	0.0117
493.489	0.0127
493.792	0.0109
494.096	0.0112
494.399	0.0112
494.701	0.0113
495.004	0.0105
495.307	0.0116
495.61	0.0112
495.912	0.0117
496.215	0.0105
496.517	0.0109
496.82	0.0115
497.122	0.0103
497.424	0.0103
497.727	0.0104
498.029	0.0096
498.331	0.0101
498.633	0.0095
498.935	0.0093
499.237	0.0103
499.538	0.0092
499.84	0.0097
500.142	0.0088
500.443	0.0097
500.745	0.0093
501.046	0.009
501.348	0.0078
501.649	0.0075
501.95	0.0081
502.251	0.0091
502.552	0.0087
502.853	0.0092
503.154	0.009
503.455	0.0076
503.756	0.0086
504.057	0.0083
504.357	0.0078
504.658	0.0082
504.958	0.0073
505.259	0.0076
505.559	0.0077
505.859	0.0062
506.16	0.007
506.46	0.0069
506.76	0.0067
507.06	0.0057
507.36	0.0069
507.66	0.0073
507.96	0.0069
508.259	0.0066
508.559	0.0062
508.859	0.0067
509.158	0.0064
509.457	0.0056
509.757	0.0063
510.056	0.0056
510.355	0.0067
510.655	0.0053
510.954	0.0051
511.253	0.0055
511.552	0.0057
511.851	0.0048
512.149	0.0059
512.448	0.0049
512.747	0.0049
513.045	0.0053
513.344	0.0054
513.642	0.0052
513.941	0.0061
514.239	0.0061
514.537	0.0046
514.836	0.005
515.134	0.0046
515.432	0.0051
515.73	0.0053
516.028	0.005
516.326	0.0045
516.623	0.0039
516.921	0.0042
517.219	0.005
517.516	0.0036
517.814	0.0056
518.111	0.0041
518.409	0.0048
518.706	0.0048
519.003	0.0036
519.3	0.0034
519.597	0.0049
519.894	0.0037
520.191	0.0051
520.488	0.0056
520.785	0.0039
521.082	0.0043
521.378	0.0052
521.675	0.0035
521.971	0.0034
522.268	0.0042
522.564	0.004
522.861	0.0049
523.157	0.0041
523.453	0.0053
523.749	0.0041
524.045	0.0033
524.341	0.0042
524.637	0.0038
524.933	0.0047
525.229	0.0045
525.524	0.004
525.82	0.0043
526.115	0.0042
526.411	0.0035
526.706	0.0034
527.002	0.0038
527.297	0.0026
527.592	0.0039
527.887	0.0028
528.182	0.0022
528.477	0.0039
528.772	0.0025
529.067	0.0033
529.362	0.0034
529.657	0.0036
529.951	0.003
530.246	0.0027
530.54	0.0033
530.835	0.0028
531.129	0.0027
531.423	0.0038
531.718	0.0025
532.012	0.0028
532.306	0.0035
532.6	0.0027
532.894	0.003
533.188	0.0021
533.482	0.0038
533.775	0.0034
534.069	0.0039
534.363	0.0028
534.656	0.0026
534.95	0.0026
535.243	0.0032
535.536	0.003
535.83	0.0013
536.123	0.0022
536.416	0.0027
536.709	0.0031
537.002	0.0039
537.295	0.0029
537.588	0.0038
537.881	0.0024
538.173	0.0035
538.466	0.0024
538.759	0.0031
539.051	0.0034
539.344	0.0041
539.636	0.0027
539.928	0.0044
540.22	0.002
540.513	0.0025
540.805	0.0035
541.097	0.0032
541.389	0.0037
541.681	0.0045
541.972	0.003
542.264	0.0038
542.556	0.0035
542.847	0.0029
543.139	0.0038
543.431	0.0032
543.722	0.0022
544.013	0.0029
544.305	0.0029
544.596	0.0035
544.887	0.0034
545.178	0.0044
545.469	0.0039
545.76	0.0037
546.051	0.0046
546.342	0.0041
546.632	0.0033
546.923	0.0027
547.214	0.0021
547.504	0.0029
547.795	0.0023
548.085	0.003
548.375	0.0037
548.666	0.0042
548.956	0.003
549.246	0.0045
549.536	0.0043
549.826	0.004
550.116	0.0039
550.406	0.0031
550.695	0.004
550.985	0.0033
551.275	0.0042
551.564	0.0049
551.854	0.004
552.143	0.0043
552.433	0.0041
552.722	0.0037
553.011	0.0048
553.3	0.0031
553.589	0.0044
553.879	0.0041
554.167	0.0037
554.456	0.0028
554.745	0.0046
555.034	0.0047
555.323	0.004
555.611	0.0041
555.9	0.0037
556.188	0.0037
556.477	0.0023
556.765	0.0055
557.053	0.0036
557.342	0.0031
557.63	0.0034
557.918	0.0047
558.206	0.0045
558.494	0.0041
558.782	0.0044
559.069	0.0046
559.357	0.0036
559.645	0.0038
559.932	0.0033
560.22	0.0034
560.507	0.0017
560.795	0.0024
561.082	0.0017
561.37	0.0036
561.657	0.0023
561.944	0.0024
562.231	0.0026
562.518	0.0024
562.805	0.0042
563.092	0.0022
563.379	0.0035
563.665	0.0035
563.952	0.0043
564.239	0.0038
564.525	0.0037
564.811	0.0042
565.098	0.0041
565.384	0.0027
565.67	0.0036
565.957	0.0045
566.243	0.0042
566.529	0.003
566.815	0.0035
567.101	0.0021
567.387	0.0033
567.672	0.0022
567.958	0.0019
568.244	0.0021
568.529	0.0025
568.815	0.0031
569.1	0.0021
569.386	0.0034
569.671	0.0027
569.956	0.0023
570.242	0.0027
570.527	0.0022
570.812	0.0029
571.097	0.0021
571.382	0.0019
571.666	0.0017
571.951	0.003
572.236	0.0024
572.521	0.0031
572.805	0.0034
573.09	0.0023
573.374	0.0021
573.659	0.0022
573.943	0.0021
574.227	0.0024
574.511	0.0025
574.795	0.0021
575.079	0.0026
575.363	0.0023
575.647	0.0033
575.931	0.0032
576.215	0.0032
576.499	0.0018
576.782	0.0026
577.066	0.0016
577.349	0.0028
577.633	0.0033
577.916	0.0021
578.2	0.0026
578.483	0.0038
578.766	0.0037
579.049	0.0038
579.332	0.0031
579.615	0.0024
579.898	0.0015
580.181	0.0028
580.464	0.0026
580.746	0.0023
581.029	0.0026
581.312	0.0006
581.594	0.0008
581.877	0.0025
582.159	0.0034
582.441	0.0019
582.724	0.0028
583.006	0.003
583.288	0.0029
583.57	0.0026
583.852	0.0036
584.134	0.0031
584.416	0.0022
584.697	0.0028
584.979	0.0017
585.261	0.0018
585.542	0.0027
585.824	0.0027
586.105	0.0032
586.387	0.0031
586.668	0.0026
586.949	0.0036
587.231	0.0029
587.512	0.0034
587.793	0.0024
588.074	0.0028
588.355	0.0032
588.636	0.0022
588.916	0.0033
589.197	0.0027
589.478	0.0031
589.758	0.0022
590.039	0.0019
590.319	0.0019
590.6	0.0025
590.88	0.0018
591.16	0.0024
591.441	0.0029
591.721	0.0018
592.001	0.0019
592.281	0.003
592.561	0.0025
592.841	0.0017
593.12	0.0022
593.4	0.0029
593.68	0.0028
593.959	0.0026
594.239	0.0036
594.518	0.0042
594.798	0.0028
595.077	0.0025
595.356	0.0027
595.636	0.0025
595.915	0.0027
596.194	0.0036
596.473	0.0032
596.752	0.0024
597.031	0.003
597.31	0.0023
597.588	0.0025
597.867	0.002
598.146	0.0017
598.424	0.0014
598.703	0.0023
598.981	0.0008
599.259	0.0018
599.538	0.0029
599.816	0.0026
600.094	0.002
600.372	0.0022
600.65	0.0031
600.928	0.0031
601.206	0.0018
601.484	0.0027
601.762	0.0028
602.04	0.0032
602.317	0.0029
602.595	0.0034
602.872	0.0028
603.15	0.003
603.427	0.001
603.704	0.0019
603.982	0.0017
604.259	0.0018
604.536	0.0018
604.813	0.0022
605.09	0.0021
605.367	0.0011
605.644	0.0017
605.921	0.0014
606.197	0.0007
606.474	0.0024
606.751	0.0017
607.027	0.0016
607.304	0.0013
607.58	0.002
607.856	0.0034
608.133	0.0037
608.409	0.0038
608.685	0.0033
608.961	0.0035
609.237	0.0042
609.513	0.0045
609.789	0.0031
610.065	0.0031
610.341	0.0022
610.616	0.0029
610.892	0.0029
611.167	0.0033
611.443	0.0037
611.718	0.0033
611.994	0.0032
612.269	0.003
612.544	0.0037
612.819	0.0021
613.095	0.0027
613.37	0.0018
613.645	0.0017
613.919	0.0036
614.194	0.0028
614.469	0.003
614.744	0.0021
615.019	0.0019
615.293	0.0023
615.568	0.0025
615.842	0.0017
616.116	0.0019
616.391	0.0013
616.665	0.001
616.939	0.0005
617.213	0.0018
617.488	0.002
617.762	0.0023
618.035	0.0023
618.309	0.0028
618.583	0.002
618.857	0.0036
619.131	0.0025
619.404	0.0015
619.678	0.0032
619.951	0.0011
620.225	0.0015
620.498	0.0017
620.771	0.0022
621.045	0.0024
621.318	0.0037
621.591	0.0024
621.864	0.0011
622.137	0.0005
622.41	0.0025
622.683	0.0016
622.956	0.0017
623.228	0.0024
623.501	0.0026
623.774	0.0028
624.046	0.0025
624.319	0.0009
624.591	0.0014
624.863	0.0019
625.136	0.0037
625.408	0.0036
625.68	0.0033
625.952	0.0027
626.224	0.0045
626.496	0.0039
626.768	0.004
627.04	0.0035
627.311	0.003
627.583	0.0041
627.855	0.0048
628.126	0.0024
628.398	0.0023
628.669	0.003
628.941	0.001
629.212	0.0001
629.483	0.002
629.755	0.0018
630.026	0.003
630.297	0.0012
630.568	0.0024
630.839	0.0031
631.11	0.0028
631.38	0.0031
631.651	0.0027
631.922	0.0028
632.192	0.0018
632.463	0.003
632.733	0.0012
633.004	0.0022
633.274	0.0014
633.545	0.0016
633.815	0.0026
634.085	0.0021
634.355	0.002
634.625	0.0027
634.895	0.0022
635.165	0.002
635.435	0.0028
635.705	0.0031
635.974	0.0022
636.244	0.002
636.514	0.0012
636.783	0.0016
637.053	0.0024
637.322	0.0022
637.591	0.0015
637.861	0.0004
638.13	0.0018
638.399	0.0038
638.668	0.0017
638.937	0.0029
639.206	0.0033
639.475	0.0038
639.744	0.0023
640.013	0.0022
640.281	0.0021
640.55	0.0028
640.819	0.0027
641.087	0.0017
641.356	0.0029
641.624	0.0024
641.892	0.003
642.161	0.0022
642.429	0.0026
642.697	0.0038
642.965	0.002
643.233	0.0005
643.501	0.0014
643.769	0.0018
644.037	0.0019
644.305	0.0024
644.572	0.002
644.84	0.0019
645.108	0.003
645.375	0.0025
645.643	0.0031
645.91	0.003
646.177	0.0024
646.445	0.0019
646.712	0.0027
646.979	0.0027
647.246	0.0043
647.513	0.0036
647.78	0.0028
648.047	0.0008
648.314	0.0015
648.58	0.0006
648.847	-0.0002
649.114	-0.0005
649.38	0.0002
649.647	-0.0004
649.913	0.0005
650.18	0.002
650.446	0.0019
650.712	0.0029
650.978	0.0042
651.245	0.0033
651.511	0.0051
651.777	0.0052
652.043	0.0035
652.309	0.0034
652.574	0.0024
652.84	0.0036
653.106	0.0039
653.371	0.0049
653.637	0.0034
653.903	0.0044
654.168	0.0042
654.433	0.0037
654.699	0.0025
654.964	0.001
655.229	0.0011
655.494	0.0004
655.759	-0.0035
656.024	-0.0001
656.289	-0
656.554	0.0034
656.819	0.004
657.084	0.0043
657.349	0.0039
657.613	0.0033
657.878	0.0013
658.142	0.0019
658.407	0.002
658.671	0.002
658.936	0.0018
659.2	0.0023
659.464	0.0027
659.728	0.0023
659.992	0.0014
660.256	-0.0009
660.52	0.0012
660.784	0.0011
661.048	0.0019
661.312	0.0009
661.575	0.0014
661.839	0.0025
662.103	0.0023
662.366	0.0019
662.63	0.0021
662.893	0.0015
663.156	0.0028
663.42	0.0033
663.683	0.0025
663.946	0.0036
664.209	0.0035
664.472	0.0027
664.735	0.0039
664.998	0.0036
665.261	0.0043
665.524	0.0043
665.786	0.0035
666.049	0.0031
666.312	0.0039
666.574	0.0034
666.837	0.0039
667.099	0.0035
667.361	0.0035
667.624	0.0033
667.886	0.0035
668.148	0.0037
668.41	0.0041
668.672	0.0038
668.934	0.0037
669.196	0.0027
669.458	0.0016
669.72	0.0016
669.982	0.0015
670.243	0.0017
670.505	0.002
670.766	0.0014
671.028	0.0022
671.289	0.0023
671.551	0.0026
671.812	0.0015
672.073	0.0021
672.334	0.0021
672.596	0.0015
672.857	0.0023
673.118	0.003
673.379	0.004
673.639	0.003
673.9	0.0027
674.161	0.0026
674.422	0.0035
674.682	0.0024
674.943	0.0023
675.203	0.0023
675.464	0.003
675.724	0.0024
675.985	0.003
676.245	0.0027
676.505	0.001
676.765	0.0007
677.025	0.0028
677.285	0.0005
677.545	0.0005
677.805	0.0006
678.065	0.0013
678.325	0.0026
678.585	0.0036
678.844	0.0034
679.104	0.0045
679.363	0.005
679.623	0.0044
679.882	0.0048
680.142	0.006
680.401	0.0056
680.66	0.0061
680.919	0.0039
681.178	0.0043
681.437	0.0036
681.696	0.0024
681.955	0.0056
682.214	0.0051
682.473	0.0048
682.732	0.0039
682.99	0.0056
683.249	0.005
683.508	0.0041
683.766	0.0045
684.024	0.0045
684.283	0.0024
684.541	0.0023
684.799	0.0017
685.058	0.0006
685.316	-0.0001
685.574	-0.0005
685.832	0.0007
686.09	0.001
686.348	-0.0012
686.606	0.0004
686.863	0.0001
687.121	0.0006
687.379	-0.0011
687.636	-0.0011
687.894	-0.0009
688.151	-0.0012
688.409	0.0001
688.666	0.0004
688.923	-0.0002
689.181	0.0001
689.438	-0.0008
689.695	-0.0006
689.952	0.0005
690.209	-0.0002
690.466	0
690.723	0
690.979	-0.0002
691.236	-0.0018
691.493	-0.0013
691.75	-0.0015
692.006	-0.0007
692.263	-0.0013
692.519	-0.0007
692.775	-0.0018
693.032	-0.0014
693.288	-0.0025
693.544	-0.002
693.8	0
694.056	-0.0002
694.313	-0.0006
694.568	-0.0002
694.824	-0.0008
695.08	-0.0003
695.336	0.0004
695.592	-0.0008
695.847	0.0022
696.103	0.0029
696.359	0.0041
696.614	0.0034
696.869	0.0019
697.125	-0
697.38	0.0006
697.635	0.0012
697.891	0.0016
698.146	0.0009
698.401	0.0005
698.656	0.0002
698.911	0.002
699.166	0.0012
699.42	0.0028
699.675	0.0031
699.93	0.0033
700.185	0.0036
700.439	0.0036
700.694	0.0031
700.948	0.0026
701.203	0.0028
701.457	0.0024
701.711	0.0021
701.965	0.0005
702.22	0.0005
702.474	0.0006
702.728	0.0006
702.982	0.0008
703.236	0.0006
703.49	0.0005
703.743	0.0003
703.997	0.0007
704.251	0.001
704.504	0.0016
704.758	0.0014
705.012	0.0023
705.265	0.0029
705.518	0.002
705.772	0.0024
706.025	0.0027
706.278	0.0019
706.531	0.0018
706.785	-0.0001
707.038	-0.0004
707.291	0.0005
707.543	-0.0006
707.796	0.0006
708.049	-0
708.302	0
708.555	0.0002
708.807	0.0011
709.06	0.0008
709.312	0.0029
709.565	0.002
709.817	0.0038
710.069	0.0028
710.322	0.0029
710.574	0.0031
710.826	0.0019
711.078	0.0022
711.33	0.0027
711.582	0.0024
711.834	0.0015
712.086	0.0023
712.338	0.0022
712.59	0.0012
712.841	-0.0003
713.093	0.0011
713.344	0.0019
713.596	0.0001
713.847	-0.0001
714.099	0.0006
714.35	0.0013
714.601	-0.0014
714.853	-0.0006
715.104	-0.0002
715.355	-0.0008
715.606	0.0006
715.857	0.0009
716.108	0.0014
716.359	0.0021
716.609	0.0007
716.86	0.0024
717.111	0.0016
717.361	0.0016
717.612	0.0013
717.863	0.0024
718.113	0.0027
718.363	0.0016
718.614	0.0028
718.864	0.0021
719.114	0.0017
719.364	0.0002
719.614	0.0003
719.865	0.0007
720.114	0.0011
720.364	0.0008
720.614	0.0003
720.864	-0.0005
721.114	-0.0014
721.364	-0.001
721.613	-0.0008
721.863	-0.0001
722.112	-0.0005
722.362	0
722.611	0.0018
722.86	0.0015
723.11	0.0025
723.359	0.0022
723.608	0.0022
723.857	0.0037
724.106	0.0033
724.355	0.0026
724.604	0.002
724.853	0.0015
725.102	0.0003
725.351	-0.001
725.599	-0.0022
725.848	-0.0011
726.097	-0.0008
726.345	-0.0013
726.594	-0.0009
726.842	0.0002
727.09	-0.0009
727.339	-0.0006
727.587	-0.0013
727.835	-0.0017
728.083	-0.0018
728.331	-0.0017
728.579	-0.0006
728.827	-0.0007
729.075	-0.0025
729.323	-0.0026
729.571	-0.0021
729.818	-0.0024
730.066	-0.0016
730.314	-0.0008
730.561	-0.0007
730.809	-0.003
731.056	-0.0024
731.303	-0.0019
731.551	-0.0015
731.798	-0.0019
732.045	0.0001
732.292	-0.0008
732.539	-0.0006
732.786	-0.0019
733.033	-0.002
733.28	-0.0008
733.527	-0.0018
733.774	-0.0023
734.021	-0.002
734.267	-0.0012
734.514	-0.0022
734.76	-0.0015
735.007	-0.0014
735.253	-0.0012
735.5	-0.0001
735.746	0.0009
735.992	0.0011
736.238	0.0016
736.485	0.0007
736.731	0.0019
736.977	-0.0004
737.223	-0
737.469	-0.0003
737.715	0.0005
737.96	0.0014
738.206	0.0006
738.452	0.0013
738.697	0.0012
738.943	0
739.189	0.0002
739.434	-0.0005
739.679	0.0006
739.925	0.0032
740.17	0.0026
740.415	0.002
740.66	0.0031
740.906	0.0026
741.151	0.0023
741.396	0.0014
741.641	0.0012
741.886	0.0018
742.13	0.0009
742.375	0.0022
742.62	-0.0009
742.865	0.0002
743.109	0.0005
743.354	-0.001
743.598	-0.0015
743.843	-0.0027
744.087	-0.0034
744.331	-0.0026
744.576	-0.002
744.82	-0.0011
745.064	-0.0006
745.308	0.0007
745.552	-0.0004
745.796	-0.0019
746.04	-0.0002
746.284	-0.0012
746.528	-0.0004
746.771	0.0001
747.015	-0.0002
747.259	-0.0017
747.502	-0.0022
747.746	-0.0008
747.989	-0.0001
748.233	0.0009
748.476	0.0007
748.719	0.0002
748.963	0.0014
749.206	0.0009
749.449	0.0002
749.692	0.0003
749.935	0.0002
750.178	0.0005
750.421	-0.0003
750.664	0.0012
750.906	0.0014
751.149	0.0009
751.392	0.0017
751.635	0.0006
751.877	0.0013
752.12	0.0007
752.362	0.0017
752.604	0.0019
752.847	0.0011
753.089	0.0012
753.331	0.0013
753.573	0.0012
753.816	0.0015
754.058	0.0013
754.3	0.0024
754.542	0.0029
754.783	0.0027
755.025	0.0037
755.267	0.0026
755.509	0.0029
755.75	0.0013
755.992	0.0015
756.234	0.0015
756.475	0.0015
756.716	0.0004
756.958	0
757.199	-0.0001
757.44	0.0006
757.682	-0.001
757.923	0.0016
758.164	0.0027
758.405	0.0025
758.646	0.0022
758.887	0.001
759.128	0.0009
759.369	-0
759.609	-0.0007
759.85	0.0005
760.091	0.0011
760.331	0.001
760.572	0.0008
760.812	0.0003
761.053	0.0012
761.293	0.0017
761.533	0.0024
761.774	0.0027
762.014	0.0028
762.254	0.0025
762.494	0.0022
762.734	0.0021
762.974	0.0016
763.214	0.0018
763.454	0.0021
763.694	0.0016
763.933	0.0039
764.173	0.0053
764.413	0.0037
764.652	0.0016
764.892	0.0014
765.131	0.0007
765.371	0.0008
765.61	0.0006
765.849	-0.0009
766.089	-0.0004
766.328	-0.0002
766.567	-0.0011
766.806	-0.0019
767.045	-0.0022
767.284	-0.0016
767.523	-0.0022
767.762	-0.0022
768.001	-0.002
768.239	-0.0026
768.478	-0.0024
768.717	-0.0025
768.955	-0.0025
769.194	-0.0018
769.432	-0.0008
769.671	-0.0004
769.909	-0.0006
770.148	-0.0002
770.386	-0.0004
770.624	-0.001
770.862	-0.0011
771.1	-0.0013
771.338	-0.0019
771.576	-0.0005
771.814	0.0018
772.052	0.0004
772.29	0.0021
772.528	0.0006
772.765	-0.0006
773.003	0.0009
773.24	0.0003
773.478	-0.0002
773.716	0.0018
773.953	0.0015
774.19	0.0019
774.428	0.0028
774.665	0.0042
774.902	0.0042
775.139	0.004
775.376	0.0027
775.613	0.0028
775.85	0.0025
776.087	0.0032
776.324	0.0023
776.561	0.0008
776.798	0.0014
777.034	0.0013
777.271	0.0011
777.508	0.0009
777.744	0.0028
777.981	0.0026
778.217	0.0018
778.454	0.0014
778.69	0.0009
778.926	0.0011
779.162	0.0006
779.399	0.001
779.635	0.0004
779.871	0.0013
780.107	0.0015
780.343	-0.0003
780.579	0.0004
780.814	0.0001
781.05	0.0002
781.286	0.0001
781.522	-0.0008
781.757	-0.0011
781.993	0.0004
782.228	-0.0013
782.464	-0
782.699	0.0002
782.934	-0.0005
783.17	0.0006
783.405	0.0012
783.64	0.0002
783.875	-0.0001
784.11	-0.0004
784.345	-0.0002
784.58	-0.0001
784.815	-0.0001
785.05	-0.0012
785.285	-0.0005
785.52	-0.0003
785.754	-0.0009
785.989	-0.0005
786.223	0.0009
786.458	0.0019
786.692	0.0026
786.927	0.004
787.161	0.0036
787.396	0.0043
787.63	0.0027
787.864	0.0015
788.098	0.0004
788.332	-0.0003
788.566	0.0004
788.8	0.0002
789.034	0.0002
789.268	0.0004
789.502	0.0014
789.736	0.0018
789.969	0.0024
790.203	0.001
790.437	0.0025
790.67	0.0028
790.904	0.0034
791.137	0.0042
791.37	0.0035
791.604	0.0043
791.837	0.005
792.07	0.0058
792.303	0.0053
792.537	0.0064
792.77	0.0054
793.003	0.0042
793.236	0.0033
793.469	0.0033
793.701	0.0024
793.934	0.0022
794.167	0.0012
794.4	-0.0001
794.632	0.0001
794.865	0.0005
795.097	-0.0002
795.33	-0.0009
795.562	-0.0008
795.795	-0.0003
796.027	0.0002
796.259	0.0017
796.491	0.0013
796.724	0.0023
796.956	0.0022
797.188	0.0017
797.42	0.0019
797.652	0.0022
797.883	0.0024
798.115	0.0029
798.347	0.0032
798.579	0.0025
798.81	0.0026
799.042	0.0022
799.274	0.0037
799.505	0.0026
799.737	0.0027
799.968	0.0023
800.199	0.0014
800.431	0.002
800.662	0.0014
800.893	0.0023
801.124	0.0027
801.355	0.0034
801.586	0.0041
801.817	0.0056
802.048	0.0051
802.279	0.0049
802.51	0.0053
802.741	0.0056
802.971	0.0045
803.202	0.0039
803.433	0.0039
803.663	0.0036
803.894	0.0035
804.124	0.0033
804.354	0.0039
804.585	0.0056
804.815	0.005
805.045	0.0061
805.275	0.0046
805.506	-0.0062
805.736	0.0795
805.966	-0.1685
806.196	0.0862
