Data from 03 0.4 mM K2Cr2O7 0.25 M BQDS 1 M H2SO4 5 min_Absorbance_0157.txt Node
Date: Wed Dec 15 06:35:12 EST 2021
User: kwabilab-user
Spectrometer: HDX00518
Trigger mode: 0
Integration Time (sec): 5.000000E-2
Scans to average: 50
Nonlinearity correction enabled: false
Boxcar width: 0
Storing dark spectrum: false
XAxis mode: Wavelengths
Number of Pixels in Spectrum: 2068
>>>>>Begin Spectral Data<<<<<
195.27	-0.0201
195.642	0.0596
196.014	-0.0461
196.386	0.0066
196.758	-0.0695
197.129	-0.0012
197.501	-0.0082
197.872	0.032
198.244	0.0107
198.615	0.0546
198.986	0.0156
199.357	0.02
199.728	0.031
200.099	0.0147
200.47	0.0396
200.841	0.0079
201.212	0.0147
201.582	0.0115
201.953	0.0408
202.323	0.0331
202.694	0.0227
203.064	0.024
203.434	0.0218
203.804	0.0189
204.174	0.0311
204.544	0.0278
204.914	0.0029
205.284	0.018
205.653	0.0381
206.023	0.0255
206.393	0.0173
206.762	0.0266
207.131	0.0309
207.501	0.0369
207.87	0.0331
208.239	0.0052
208.608	0.0283
208.977	0.0242
209.346	0.0343
209.715	0.0411
210.083	0.0433
210.452	0.017
210.82	0.0213
211.189	0.0195
211.557	0.0276
211.925	0.024
212.294	0.0296
212.662	0.0299
213.03	0.0312
213.398	0.0251
213.766	0.0316
214.133	0.0382
214.501	0.0291
214.869	0.0179
215.236	0.0437
215.604	0.0505
215.971	0.0395
216.338	0.0298
216.705	0.0444
217.072	0.0691
217.439	0.0302
217.806	0.0579
218.173	0.0803
218.54	0.038
218.907	0.0862
219.273	0.0475
219.64	0.0901
220.006	0.0734
220.373	0.0918
220.739	0.1112
221.105	0.1485
221.471	0.1537
221.837	0.1805
222.203	0.1991
222.569	0.1768
222.935	0.2043
223.3	0.2276
223.666	0.2477
224.031	0.2622
224.397	0.3022
224.762	0.3299
225.127	0.3467
225.493	0.3583
225.858	0.4164
226.223	0.4219
226.588	0.4331
226.952	0.4379
227.317	0.4819
227.682	0.4915
228.046	0.4813
228.411	0.5216
228.775	0.5344
229.14	0.5408
229.504	0.5535
229.868	0.5665
230.232	0.5716
230.596	0.5918
230.96	0.5889
231.324	0.5878
231.688	0.5898
232.052	0.6093
232.415	0.6024
232.779	0.6085
233.142	0.616
233.505	0.6031
233.869	0.6208
234.232	0.6232
234.595	0.6185
234.958	0.6171
235.321	0.6213
235.684	0.6196
236.047	0.6078
236.409	0.5999
236.772	0.6108
237.134	0.5979
237.497	0.5898
237.859	0.6128
238.222	0.6016
238.584	0.5977
238.946	0.5881
239.308	0.5847
239.67	0.5771
240.032	0.582
240.393	0.5774
240.755	0.5701
241.117	0.5721
241.478	0.5777
241.84	0.5638
242.201	0.5596
242.562	0.555
242.924	0.5556
243.285	0.5518
243.646	0.5419
244.007	0.5392
244.368	0.5486
244.728	0.5412
245.089	0.5433
245.45	0.543
245.81	0.5339
246.171	0.5288
246.531	0.5298
246.891	0.5259
247.252	0.5256
247.612	0.5291
247.972	0.5279
248.332	0.5203
248.692	0.5279
249.051	0.5148
249.411	0.5153
249.771	0.5164
250.13	0.5156
250.49	0.5207
250.849	0.5151
251.208	0.5065
251.568	0.5104
251.927	0.51
252.286	0.5117
252.645	0.5107
253.004	0.5147
253.363	0.5042
253.721	0.5076
254.08	0.5022
254.439	0.5056
254.797	0.5022
255.155	0.4988
255.514	0.4999
255.872	0.4979
256.23	0.4986
256.588	0.4993
256.946	0.5034
257.304	0.4972
257.662	0.5011
258.02	0.4995
258.377	0.4965
258.735	0.4946
259.093	0.4957
259.45	0.493
259.807	0.4943
260.165	0.4905
260.522	0.4937
260.879	0.491
261.236	0.4882
261.593	0.4864
261.95	0.4799
262.306	0.4812
262.663	0.4801
263.02	0.4772
263.376	0.4758
263.733	0.4776
264.089	0.4752
264.445	0.4705
264.802	0.4691
265.158	0.4678
265.514	0.4691
265.87	0.4651
266.226	0.4612
266.581	0.4626
266.937	0.4609
267.293	0.4607
267.648	0.4596
268.004	0.4507
268.359	0.4533
268.714	0.4443
269.07	0.4469
269.425	0.4431
269.78	0.4456
270.135	0.4442
270.49	0.4365
270.844	0.4409
271.199	0.4354
271.554	0.4317
271.908	0.4271
272.263	0.4294
272.617	0.4245
272.972	0.4214
273.326	0.4188
273.68	0.4166
274.034	0.4135
274.388	0.4122
274.742	0.406
275.096	0.404
275.45	0.405
275.803	0.3991
276.157	0.3912
276.51	0.3926
276.864	0.3892
277.217	0.3896
277.571	0.3892
277.924	0.3813
278.277	0.377
278.63	0.3722
278.983	0.3686
279.336	0.3659
279.688	0.3625
280.041	0.3599
280.394	0.3546
280.746	0.3504
281.099	0.3482
281.451	0.3429
281.803	0.3399
282.156	0.339
282.508	0.334
282.86	0.3322
283.212	0.3301
283.564	0.3248
283.916	0.3187
284.267	0.3152
284.619	0.3145
284.971	0.3108
285.322	0.3097
285.673	0.3034
286.025	0.298
286.376	0.2988
286.727	0.2935
287.078	0.2901
287.429	0.2889
287.78	0.2827
288.131	0.2796
288.482	0.2765
288.833	0.2735
289.183	0.2714
289.534	0.2676
289.884	0.2641
290.235	0.2616
290.585	0.2583
290.935	0.2534
291.285	0.2523
291.635	0.2471
291.985	0.2443
292.335	0.2427
292.685	0.2383
293.035	0.2352
293.384	0.2314
293.734	0.2276
294.083	0.226
294.433	0.2241
294.782	0.2216
295.131	0.2163
295.48	0.2145
295.829	0.2117
296.179	0.2085
296.527	0.2049
296.876	0.2025
297.225	0.199
297.574	0.1964
297.922	0.1941
298.271	0.1906
298.619	0.1861
298.968	0.1855
299.316	0.1828
299.664	0.18
300.012	0.1782
300.36	0.1756
300.708	0.173
301.056	0.1704
301.404	0.1685
301.752	0.165
302.099	0.1642
302.447	0.1616
302.794	0.1586
303.142	0.1563
303.489	0.1545
303.836	0.1524
304.183	0.1512
304.531	0.1499
304.878	0.1472
305.224	0.1459
305.571	0.1447
305.918	0.1434
306.265	0.1403
306.611	0.1388
306.958	0.1388
307.304	0.1377
307.651	0.136
307.997	0.1347
308.343	0.133
308.689	0.1333
309.035	0.1309
309.381	0.1301
309.727	0.1297
310.073	0.1286
310.419	0.1284
310.764	0.1279
311.11	0.1266
311.455	0.1257
311.801	0.1254
312.146	0.1244
312.491	0.1236
312.837	0.1241
313.182	0.123
313.527	0.1231
313.872	0.122
314.216	0.1233
314.561	0.1217
314.906	0.1215
315.251	0.1231
315.595	0.1227
315.94	0.1223
316.284	0.1219
316.628	0.1219
316.972	0.1224
317.317	0.1225
317.661	0.1234
318.005	0.1226
318.348	0.1229
318.692	0.1242
319.036	0.1237
319.38	0.1248
319.723	0.1245
320.067	0.1255
320.41	0.1262
320.754	0.1261
321.097	0.1264
321.44	0.1276
321.783	0.1286
322.126	0.1295
322.469	0.1288
322.812	0.1302
323.155	0.1313
323.498	0.1315
323.84	0.1322
324.183	0.1336
324.525	0.1341
324.868	0.1364
325.21	0.1361
325.552	0.1373
325.894	0.1378
326.236	0.1384
326.578	0.1394
326.92	0.1408
327.262	0.1409
327.604	0.1422
327.946	0.1436
328.287	0.1439
328.629	0.1454
328.97	0.1464
329.312	0.1469
329.653	0.1487
329.994	0.1502
330.335	0.1505
330.676	0.152
331.017	0.1527
331.358	0.1537
331.699	0.1561
332.04	0.1565
332.38	0.1574
332.721	0.1587
333.061	0.1588
333.402	0.1604
333.742	0.1614
334.083	0.1621
334.423	0.1635
334.763	0.1647
335.103	0.1644
335.443	0.1659
335.783	0.1672
336.123	0.1671
336.462	0.1683
336.802	0.1695
337.141	0.1704
337.481	0.1717
337.82	0.1725
338.16	0.1735
338.499	0.1739
338.838	0.175
339.177	0.1764
339.516	0.1762
339.855	0.1772
340.194	0.1787
340.533	0.1785
340.872	0.1788
341.21	0.1805
341.549	0.181
341.887	0.1809
342.226	0.1813
342.564	0.1823
342.902	0.1827
343.24	0.1826
343.578	0.1834
343.916	0.1832
344.254	0.1838
344.592	0.1851
344.93	0.1843
345.268	0.1842
345.605	0.1847
345.943	0.1849
346.28	0.1848
346.618	0.1849
346.955	0.1859
347.292	0.1863
347.629	0.1857
347.966	0.1856
348.303	0.1858
348.64	0.186
348.977	0.1857
349.314	0.1861
349.65	0.1856
349.987	0.1869
350.324	0.1854
350.66	0.1855
350.996	0.1849
351.333	0.1852
351.669	0.1847
352.005	0.1842
352.341	0.1828
352.677	0.183
353.013	0.1815
353.349	0.1812
353.685	0.1805
354.02	0.1801
354.356	0.1795
354.691	0.1783
355.027	0.1781
355.362	0.1772
355.697	0.1769
356.033	0.1761
356.368	0.175
356.703	0.1737
357.038	0.1743
357.373	0.1722
357.707	0.1725
358.042	0.1715
358.377	0.171
358.711	0.171
359.046	0.1692
359.38	0.1685
359.715	0.168
360.049	0.1668
360.383	0.1655
360.717	0.1644
361.051	0.1643
361.385	0.1629
361.719	0.1616
362.053	0.1617
362.387	0.1587
362.72	0.1582
363.054	0.157
363.387	0.1554
363.721	0.1547
364.054	0.1534
364.387	0.1523
364.721	0.1498
365.054	0.1495
365.387	0.1482
365.72	0.147
366.053	0.1463
366.385	0.1436
366.718	0.1429
367.051	0.1425
367.383	0.1403
367.716	0.1405
368.048	0.1393
368.381	0.1384
368.713	0.1373
369.045	0.1365
369.377	0.1354
369.709	0.1339
370.041	0.1337
370.373	0.1327
370.705	0.1313
371.037	0.1299
371.368	0.1284
371.7	0.1274
372.031	0.1261
372.363	0.1253
372.694	0.1234
373.025	0.1218
373.356	0.121
373.688	0.1187
374.019	0.1181
374.35	0.1169
374.68	0.1156
375.011	0.1139
375.342	0.1125
375.673	0.1109
376.003	0.1083
376.334	0.1085
376.664	0.107
376.995	0.1057
377.325	0.1042
377.655	0.1035
377.985	0.1017
378.315	0.1014
378.645	0.0999
378.975	0.0989
379.305	0.0971
379.635	0.0971
379.964	0.0963
380.294	0.0956
380.623	0.0944
380.953	0.093
381.282	0.0918
381.611	0.0918
381.941	0.0906
382.27	0.0892
382.599	0.0895
382.928	0.0871
383.257	0.086
383.585	0.0852
383.914	0.0836
384.243	0.083
384.571	0.0819
384.9	0.08
385.228	0.0788
385.557	0.0783
385.885	0.0771
386.213	0.0762
386.541	0.0744
386.869	0.0738
387.197	0.0717
387.525	0.071
387.853	0.0704
388.181	0.0688
388.508	0.0677
388.836	0.0669
389.164	0.0658
389.491	0.0645
389.818	0.0636
390.146	0.063
390.473	0.0623
390.8	0.062
391.127	0.0607
391.454	0.0598
391.781	0.059
392.108	0.0586
392.435	0.0576
392.761	0.0576
393.088	0.0564
393.415	0.0561
393.741	0.0559
394.067	0.0556
394.394	0.0542
394.72	0.0532
395.046	0.0526
395.372	0.0525
395.698	0.0514
396.024	0.0507
396.35	0.0502
396.676	0.0498
397.001	0.048
397.327	0.0477
397.653	0.0472
397.978	0.047
398.303	0.0458
398.629	0.0451
398.954	0.045
399.279	0.0446
399.604	0.0436
399.929	0.0437
400.254	0.0424
400.579	0.0418
400.904	0.041
401.229	0.0413
401.553	0.0412
401.878	0.0402
402.202	0.0398
402.527	0.0395
402.851	0.04
403.175	0.0383
403.5	0.0387
403.824	0.0376
404.148	0.0383
404.472	0.0371
404.796	0.0376
405.119	0.0373
405.443	0.0372
405.767	0.0373
406.09	0.0361
406.414	0.0357
406.737	0.0368
407.061	0.0368
407.384	0.0363
407.707	0.0358
408.03	0.0348
408.353	0.0351
408.676	0.0353
408.999	0.035
409.322	0.0343
409.645	0.0346
409.968	0.0348
410.29	0.0348
410.613	0.0356
410.935	0.0337
411.258	0.0345
411.58	0.0331
411.902	0.034
412.224	0.0341
412.546	0.0343
412.868	0.0348
413.19	0.0336
413.512	0.0336
413.834	0.0342
414.156	0.0337
414.477	0.0331
414.799	0.0337
415.121	0.0328
415.442	0.0337
415.763	0.0335
416.085	0.0335
416.406	0.0334
416.727	0.0335
417.048	0.0338
417.369	0.0336
417.69	0.0329
418.011	0.0331
418.331	0.0339
418.652	0.0329
418.973	0.0325
419.293	0.0335
419.614	0.0325
419.934	0.0337
420.254	0.0331
420.574	0.032
420.895	0.0328
421.215	0.0331
421.535	0.0328
421.855	0.0323
422.174	0.0322
422.494	0.0322
422.814	0.0326
423.134	0.0323
423.453	0.0333
423.773	0.0337
424.092	0.0336
424.411	0.0332
424.731	0.0328
425.05	0.0332
425.369	0.0331
425.688	0.033
426.007	0.0329
426.326	0.0333
426.644	0.0329
426.963	0.0327
427.282	0.0329
427.6	0.0328
427.919	0.0331
428.237	0.0335
428.556	0.0334
428.874	0.0326
429.192	0.0332
429.51	0.0329
429.828	0.0335
430.146	0.0332
430.464	0.0329
430.782	0.033
431.1	0.0324
431.418	0.0327
431.735	0.0324
432.053	0.0327
432.37	0.0329
432.688	0.033
433.005	0.0325
433.322	0.0336
433.639	0.0334
433.957	0.0329
434.274	0.0333
434.591	0.0332
434.907	0.0331
435.224	0.033
435.541	0.0329
435.858	0.0341
436.174	0.0336
436.491	0.0327
436.807	0.0321
437.124	0.0326
437.44	0.0323
437.756	0.0329
438.072	0.032
438.388	0.0334
438.704	0.0323
439.02	0.0322
439.336	0.0324
439.652	0.0325
439.968	0.0321
440.283	0.0327
440.599	0.0325
440.914	0.0321
441.23	0.0323
441.545	0.0324
441.86	0.0325
442.175	0.0323
442.491	0.0318
442.806	0.0319
443.121	0.0311
443.435	0.0319
443.75	0.0314
444.065	0.0314
444.38	0.032
444.694	0.0313
445.009	0.0311
445.323	0.032
445.638	0.0311
445.952	0.0314
446.266	0.031
446.58	0.0303
446.894	0.0313
447.208	0.0308
447.522	0.0294
447.836	0.0315
448.15	0.0302
448.464	0.0298
448.777	0.0305
449.091	0.0303
449.404	0.0304
449.718	0.03
450.031	0.0298
450.345	0.0299
450.658	0.0298
450.971	0.0291
451.284	0.0296
451.597	0.0297
451.91	0.0296
452.223	0.0301
452.535	0.029
452.848	0.0295
453.161	0.0289
453.473	0.029
453.786	0.0289
454.098	0.0288
454.411	0.0288
454.723	0.0293
455.035	0.0281
455.347	0.0277
455.659	0.0285
455.971	0.0291
456.283	0.0289
456.595	0.0284
456.907	0.0289
457.218	0.0288
457.53	0.0279
457.841	0.0279
458.153	0.0273
458.464	0.0269
458.776	0.0271
459.087	0.0279
459.398	0.0272
459.709	0.0263
460.02	0.027
460.331	0.0275
460.642	0.0267
460.953	0.0266
461.263	0.0264
461.574	0.0261
461.885	0.0268
462.195	0.0256
462.506	0.0264
462.816	0.0263
463.126	0.0254
463.437	0.0252
463.747	0.0252
464.057	0.0242
464.367	0.0243
464.677	0.025
464.987	0.0246
465.296	0.0242
465.606	0.0237
465.916	0.0236
466.225	0.024
466.535	0.0233
466.844	0.0241
467.154	0.0238
467.463	0.0236
467.772	0.0231
468.081	0.0237
468.39	0.0235
468.699	0.0236
469.008	0.0231
469.317	0.023
469.626	0.0239
469.935	0.0227
470.243	0.0232
470.552	0.0221
470.86	0.0228
471.169	0.0217
471.477	0.0217
471.785	0.0219
472.093	0.0213
472.402	0.0216
472.71	0.0212
473.018	0.0199
473.326	0.021
473.633	0.0207
473.941	0.0207
474.249	0.0203
474.556	0.02
474.864	0.0202
475.171	0.0203
475.479	0.0197
475.786	0.0202
476.094	0.0194
476.401	0.0193
476.708	0.0191
477.015	0.0188
477.322	0.0184
477.629	0.0179
477.936	0.0189
478.242	0.0182
478.549	0.018
478.856	0.0186
479.162	0.0187
479.469	0.018
479.775	0.0183
480.081	0.0169
480.388	0.0166
480.694	0.0179
481	0.0171
481.306	0.0168
481.612	0.0172
481.918	0.0179
482.224	0.017
482.53	0.0169
482.835	0.0164
483.141	0.0166
483.446	0.0167
483.752	0.0153
484.057	0.016
484.363	0.0156
484.668	0.0157
484.973	0.0148
485.278	0.0146
485.583	0.0144
485.888	0.0145
486.193	0.0132
486.498	0.0142
486.803	0.0142
487.107	0.0139
487.412	0.0131
487.717	0.0137
488.021	0.0139
488.325	0.0134
488.63	0.0138
488.934	0.014
489.238	0.0129
489.542	0.0129
489.846	0.0128
490.15	0.013
490.454	0.0136
490.758	0.013
491.062	0.0129
491.366	0.012
491.669	0.0125
491.973	0.0123
492.276	0.0129
492.58	0.0116
492.883	0.012
493.186	0.0107
493.489	0.012
493.792	0.0105
494.096	0.0113
494.399	0.0115
494.701	0.011
495.004	0.0099
495.307	0.0109
495.61	0.0111
495.912	0.011
496.215	0.0103
496.517	0.011
496.82	0.0098
497.122	0.0103
497.424	0.0101
497.727	0.0093
498.029	0.0093
498.331	0.0094
498.633	0.0087
498.935	0.0089
499.237	0.009
499.538	0.0084
499.84	0.0096
500.142	0.0092
500.443	0.0089
500.745	0.0087
501.046	0.0084
501.348	0.0074
501.649	0.0079
501.95	0.008
502.251	0.0087
502.552	0.0084
502.853	0.0083
503.154	0.0091
503.455	0.0074
503.756	0.0086
504.057	0.0074
504.357	0.0082
504.658	0.0076
504.958	0.0075
505.259	0.008
505.559	0.0066
505.859	0.0068
506.16	0.0062
506.46	0.0071
506.76	0.0072
507.06	0.0065
507.36	0.0059
507.66	0.0071
507.96	0.0078
508.259	0.0061
508.559	0.0062
508.859	0.007
509.158	0.0063
509.457	0.0047
509.757	0.0059
510.056	0.0056
510.355	0.0061
510.655	0.0055
510.954	0.0058
511.253	0.006
511.552	0.0057
511.851	0.0053
512.149	0.0051
512.448	0.0052
512.747	0.0048
513.045	0.0052
513.344	0.0053
513.642	0.0048
513.941	0.0055
514.239	0.0052
514.537	0.0049
514.836	0.0044
515.134	0.0053
515.432	0.005
515.73	0.0053
516.028	0.0052
516.326	0.0042
516.623	0.0038
516.921	0.004
517.219	0.0047
517.516	0.0043
517.814	0.0049
518.111	0.0042
518.409	0.0049
518.706	0.0043
519.003	0.0034
519.3	0.003
519.597	0.0041
519.894	0.0039
520.191	0.0049
520.488	0.0055
520.785	0.004
521.082	0.0053
521.378	0.005
521.675	0.0042
521.971	0.0033
522.268	0.004
522.564	0.0043
522.861	0.0056
523.157	0.0041
523.453	0.0039
523.749	0.0031
524.045	0.0036
524.341	0.0037
524.637	0.0032
524.933	0.004
525.229	0.0043
525.524	0.0043
525.82	0.0036
526.115	0.0042
526.411	0.0041
526.706	0.0033
527.002	0.0048
527.297	0.0023
527.592	0.004
527.887	0.0031
528.182	0.0032
528.477	0.0037
528.772	0.0032
529.067	0.0034
529.362	0.0041
529.657	0.004
529.951	0.0032
530.246	0.0022
530.54	0.0029
530.835	0.0034
531.129	0.0033
531.423	0.0028
531.718	0.0035
532.012	0.0032
532.306	0.0036
532.6	0.0031
532.894	0.0037
533.188	0.0034
533.482	0.0039
533.775	0.0026
534.069	0.004
534.363	0.0022
534.656	0.0031
534.95	0.0021
535.243	0.0027
535.536	0.0023
535.83	0.0026
536.123	0.0014
536.416	0.0026
536.709	0.0028
537.002	0.0032
537.295	0.0031
537.588	0.004
537.881	0.003
538.173	0.003
538.466	0.0023
538.759	0.0036
539.051	0.0029
539.344	0.003
539.636	0.0023
539.928	0.0038
540.22	0.0024
540.513	0.0034
540.805	0.0029
541.097	0.0036
541.389	0.0028
541.681	0.0036
541.972	0.0026
542.264	0.0039
542.556	0.0034
542.847	0.0032
543.139	0.0041
543.431	0.0021
543.722	0.0026
544.013	0.0029
544.305	0.0031
544.596	0.0028
544.887	0.0039
545.178	0.0044
545.469	0.0042
545.76	0.0042
546.051	0.0042
546.342	0.004
546.632	0.0035
546.923	0.0032
547.214	0.0019
547.504	0.0037
547.795	0.0028
548.085	0.0039
548.375	0.0034
548.666	0.0031
548.956	0.0016
549.246	0.0045
549.536	0.003
549.826	0.0045
550.116	0.0041
550.406	0.0033
550.695	0.0039
550.985	0.004
551.275	0.0042
551.564	0.0054
551.854	0.005
552.143	0.0045
552.433	0.004
552.722	0.0035
553.011	0.0048
553.3	0.0043
553.589	0.004
553.879	0.0036
554.167	0.0034
554.456	0.003
554.745	0.0043
555.034	0.0051
555.323	0.0037
555.611	0.0035
555.9	0.0038
556.188	0.0026
556.477	0.0027
556.765	0.0038
557.053	0.0035
557.342	0.0036
557.63	0.0037
557.918	0.0035
558.206	0.005
558.494	0.0047
558.782	0.004
559.069	0.0044
559.357	0.0035
559.645	0.0043
559.932	0.0037
560.22	0.0035
560.507	0.0024
560.795	0.0032
561.082	0.0021
561.37	0.0027
561.657	0.0019
561.944	0.0028
562.231	0.0032
562.518	0.0033
562.805	0.0038
563.092	0.0033
563.379	0.0037
563.665	0.0034
563.952	0.0049
564.239	0.0044
564.525	0.0038
564.811	0.0031
565.098	0.0037
565.384	0.0037
565.67	0.0043
565.957	0.0041
566.243	0.0038
566.529	0.003
566.815	0.0041
567.101	0.0036
567.387	0.0032
567.672	0.003
567.958	0.003
568.244	0.0021
568.529	0.0029
568.815	0.0034
569.1	0.003
569.386	0.0037
569.671	0.0034
569.956	0.0032
570.242	0.0026
570.527	0.0028
570.812	0.0024
571.097	0.0017
571.382	0.0016
571.666	0.0016
571.951	0.0031
572.236	0.0026
572.521	0.0028
572.805	0.0033
573.09	0.0031
573.374	0.0019
573.659	0.002
573.943	0.0022
574.227	0.0033
574.511	0.003
574.795	0.0024
575.079	0.0028
575.363	0.0023
575.647	0.0022
575.931	0.0026
576.215	0.0029
576.499	0.0026
576.782	0.0018
577.066	0.0029
577.349	0.0031
577.633	0.0039
577.916	0.0021
578.2	0.0029
578.483	0.0031
578.766	0.0033
579.049	0.0028
579.332	0.0025
579.615	0.0022
579.898	0.0022
580.181	0.0028
580.464	0.0024
580.746	0.0024
581.029	0.0027
581.312	0.0021
581.594	0.0014
581.877	0.0016
582.159	0.0032
582.441	0.0013
582.724	0.0022
583.006	0.0033
583.288	0.0028
583.57	0.0027
583.852	0.0032
584.134	0.0035
584.416	0.0026
584.697	0.0024
584.979	0.0022
585.261	0.0024
585.542	0.0025
585.824	0.0026
586.105	0.0027
586.387	0.0028
586.668	0.0031
586.949	0.0034
587.231	0.0035
587.512	0.0028
587.793	0.0026
588.074	0.0027
588.355	0.0023
588.636	0.0021
588.916	0.0034
589.197	0.0017
589.478	0.0032
589.758	0.0023
590.039	0.0027
590.319	0.0015
590.6	0.0017
590.88	0.0023
591.16	0.0027
591.441	0.0024
591.721	0.0029
592.001	0.0021
592.281	0.0024
592.561	0.0033
592.841	0.0027
593.12	0.0025
593.4	0.0025
593.68	0.0022
593.959	0.0024
594.239	0.0036
594.518	0.0035
594.798	0.0032
595.077	0.0024
595.356	0.0028
595.636	0.0023
595.915	0.0025
596.194	0.0035
596.473	0.0031
596.752	0.003
597.031	0.0032
597.31	0.0021
597.588	0.0018
597.867	0.0025
598.146	0.001
598.424	0.0012
598.703	0.002
598.981	0.0018
599.259	0.0011
599.538	0.0021
599.816	0.0028
600.094	0.0028
600.372	0.002
600.65	0.003
600.928	0.0025
601.206	0.0025
601.484	0.0028
601.762	0.0036
602.04	0.0041
602.317	0.0037
602.595	0.0036
602.872	0.0028
603.15	0.0038
603.427	0.0021
603.704	0.0014
603.982	0.0018
604.259	0.0015
604.536	0.002
604.813	0.0017
605.09	0.0026
605.367	0.0019
605.644	0.0013
605.921	0.0013
606.197	0.0017
606.474	0.0016
606.751	0.0016
607.027	0.0021
607.304	0.0017
607.58	0.0022
607.856	0.0027
608.133	0.0039
608.409	0.0037
608.685	0.0035
608.961	0.0026
609.237	0.0043
609.513	0.0038
609.789	0.0026
610.065	0.0035
610.341	0.0019
610.616	0.0028
610.892	0.0032
611.167	0.0039
611.443	0.004
611.718	0.0039
611.994	0.0035
612.269	0.0031
612.544	0.0031
612.819	0.003
613.095	0.0025
613.37	0.0017
613.645	0.0015
613.919	0.0026
614.194	0.0027
614.469	0.0028
614.744	0.0028
615.019	0.0018
615.293	0.0017
615.568	0.0028
615.842	0.0009
616.116	0.0014
616.391	0.0013
616.665	0.0004
616.939	0.0008
617.213	0.0009
617.488	0.0018
617.762	0.0018
618.035	0.0023
618.309	0.002
618.583	0.0025
618.857	0.0024
619.131	0.0025
619.404	0.0032
619.678	0.0034
619.951	0.0025
620.225	0.0015
620.498	0.0021
620.771	0.0015
621.045	0.0024
621.318	0.0032
621.591	0.0027
621.864	0.0016
622.137	0.0007
622.41	0.0017
622.683	0.0017
622.956	0.002
623.228	0.0017
623.501	0.0032
623.774	0.0031
624.046	0.0025
624.319	0.0032
624.591	0.0016
624.863	0.0018
625.136	0.0035
625.408	0.004
625.68	0.0039
625.952	0.0025
626.224	0.0034
626.496	0.0034
626.768	0.0041
627.04	0.0035
627.311	0.0035
627.583	0.0032
627.855	0.0039
628.126	0.0021
628.398	0.0021
628.669	0.0024
628.941	0.0022
629.212	0.0001
629.483	0.0019
629.755	0.0013
630.026	0.0025
630.297	0.0018
630.568	0.0023
630.839	0.003
631.11	0.0026
631.38	0.0036
631.651	0.0024
631.922	0.003
632.192	0.0027
632.463	0.0029
632.733	0.0019
633.004	0.0026
633.274	0.0015
633.545	0.0019
633.815	0.0026
634.085	0.0024
634.355	0.0031
634.625	0.0023
634.895	0.0025
635.165	0.0025
635.435	0.0035
635.705	0.0037
635.974	0.0029
636.244	0.0023
636.514	0.0013
636.783	0.0018
637.053	0.0025
637.322	0.0024
637.591	0.0017
637.861	0.0009
638.13	0.0029
638.399	0.0024
638.668	0.0029
638.937	0.0036
639.206	0.0032
639.475	0.0041
639.744	0.0023
640.013	0.0033
640.281	0.0026
640.55	0.0027
640.819	0.0026
641.087	0.0028
641.356	0.0028
641.624	0.0031
641.892	0.0036
642.161	0.0028
642.429	0.0027
642.697	0.0031
642.965	0.0018
643.233	0.0016
643.501	0.0009
643.769	0.0021
644.037	0.0016
644.305	0.0014
644.572	0.0027
644.84	0.0018
645.108	0.0029
645.375	0.0022
645.643	0.0034
645.91	0.003
646.177	0.0035
646.445	0.0026
646.712	0.0027
646.979	0.0026
647.246	0.0045
647.513	0.0038
647.78	0.0033
648.047	0.0017
648.314	0.0012
648.58	0.0009
648.847	-0.0004
649.114	-0.001
649.38	-0.0004
649.647	-0.0005
649.913	0.0005
650.18	0.0018
650.446	0.0018
650.712	0.0032
650.978	0.0035
651.245	0.0038
651.511	0.0042
651.777	0.0038
652.043	0.0029
652.309	0.0032
652.574	0.0028
652.84	0.0031
653.106	0.0039
653.371	0.0049
653.637	0.0038
653.903	0.0033
654.168	0.0038
654.433	0.0035
654.699	0.0016
654.964	0.0013
655.229	0.0016
655.494	0.0016
655.759	-0.0008
656.024	0.0001
656.289	-0
656.554	-0.0003
656.819	0.0016
657.084	0.0038
657.349	0.0039
657.613	0.0032
657.878	0.0015
658.142	0.0012
658.407	0.0014
658.671	0.0023
658.936	0.002
659.2	0.0028
659.464	0.0026
659.728	0.0024
659.992	0.0012
660.256	-0.0005
660.52	0.0013
660.784	0.0019
661.048	0.0018
661.312	0.0014
661.575	0.0014
661.839	0.0031
662.103	0.0026
662.366	0.0015
662.63	0.0022
662.893	0.0019
663.156	0.0034
663.42	0.0038
663.683	0.0029
663.946	0.0033
664.209	0.0045
664.472	0.0035
664.735	0.004
664.998	0.0045
665.261	0.0048
665.524	0.0038
665.786	0.0034
666.049	0.0041
666.312	0.0039
666.574	0.0034
666.837	0.0043
667.099	0.004
667.361	0.004
667.624	0.0041
667.886	0.0043
668.148	0.0039
668.41	0.0033
668.672	0.0041
668.934	0.0041
669.196	0.0035
669.458	0.0022
669.72	0.0022
669.982	0.002
670.243	0.0022
670.505	0.002
670.766	0.0016
671.028	0.0023
671.289	0.003
671.551	0.0027
671.812	0.0009
672.073	0.0022
672.334	0.0019
672.596	0.0014
672.857	0.0022
673.118	0.004
673.379	0.0042
673.639	0.0032
673.9	0.0029
674.161	0.0037
674.422	0.0037
674.682	0.002
674.943	0.0027
675.203	0.0036
675.464	0.0031
675.724	0.0029
675.985	0.0028
676.245	0.0021
676.505	0.0011
676.765	0.0013
677.025	0.0023
677.285	0.001
677.545	0.0014
677.805	0.0007
678.065	0.0016
678.325	0.0023
678.585	0.0037
678.844	0.004
679.104	0.004
679.363	0.0054
679.623	0.0046
679.882	0.005
680.142	0.0061
680.401	0.005
680.66	0.0049
680.919	0.0031
681.178	0.0044
681.437	0.0038
681.696	0.0028
681.955	0.0054
682.214	0.0052
682.473	0.0047
682.732	0.0035
682.99	0.0052
683.249	0.0052
683.508	0.0052
683.766	0.0049
684.024	0.0045
684.283	0.0026
684.541	0.0021
684.799	0.002
685.058	0.0009
685.316	-0.0001
685.574	0.0001
685.832	0.0001
686.09	0.0005
686.348	0.0002
686.606	0.0006
686.863	-0.0001
687.121	0.0001
687.379	-0.0002
687.636	-0.0013
687.894	-0.0005
688.151	-0.0006
688.409	0
688.666	0.0001
688.923	0
689.181	0.0006
689.438	-0.0006
689.695	0.0009
689.952	-0.0002
690.209	0.0003
690.466	-0.0003
690.723	0.0007
690.979	0.0002
691.236	0.0001
691.493	-0.001
691.75	-0.0006
692.006	-0.0003
692.263	-0.0013
692.519	-0.0009
692.775	-0.0019
693.032	-0.0022
693.288	-0.0031
693.544	-0.0016
693.8	-0.0002
694.056	-0.0007
694.313	-0.0012
694.568	-0.0001
694.824	-0.0001
695.08	-0
695.336	0.0011
695.592	-0
695.847	0.0012
696.103	0.0033
696.359	0.0035
696.614	0.004
696.869	0.0022
697.125	0.0004
697.38	-0.0007
697.635	0.0009
697.891	0.0022
698.146	0.002
698.401	0.0016
698.656	0.0013
698.911	0.0023
699.166	0.0014
699.42	0.0028
699.675	0.0024
699.93	0.0038
700.185	0.0036
700.439	0.0026
700.694	0.0025
700.948	0.0024
701.203	0.0025
701.457	0.0015
701.711	0.0018
701.965	0.0006
702.22	0.0005
702.474	0.0007
702.728	0.0001
702.982	0.0009
703.236	0.0006
703.49	0.0011
703.743	0.0008
703.997	0.0009
704.251	0.0007
704.504	0.0016
704.758	0.0016
705.012	0.0021
705.265	0.002
705.518	0.0018
705.772	0.0026
706.025	0.0032
706.278	0.0025
706.531	0.0012
706.785	-0.0001
707.038	-0.0009
707.291	-0.0002
707.543	-0.0003
707.796	-0.0009
708.049	0.0001
708.302	-0.0007
708.555	-0.0005
708.807	0.0007
709.06	0.002
709.312	0.0015
709.565	0.0024
709.817	0.0036
710.069	0.0026
710.322	0.0031
710.574	0.0029
710.826	0.0018
711.078	0.002
711.33	0.0019
711.582	0.0021
711.834	0.0016
712.086	0.0026
712.338	0.0018
712.59	0.0015
712.841	-0.0001
713.093	-0.0001
713.344	0.0011
713.596	0.0004
713.847	0.0001
714.099	0.0004
714.35	0.001
714.601	-0.0004
714.853	-0.001
715.104	0
715.355	-0.0005
715.606	0.0011
715.857	0.0011
716.108	0.0014
716.359	0.002
716.609	0.0013
716.86	0.0021
717.111	0.0025
717.361	0.0021
717.612	0.0014
717.863	0.0025
718.113	0.0034
718.363	0.0022
718.614	0.0022
718.864	0.0022
719.114	0.0013
719.364	0.0005
719.614	0.0011
719.865	0.0006
720.114	0.0005
720.364	0.0014
720.614	0.0003
720.864	0.0004
721.114	-0.0003
721.364	-0.0009
721.613	-0.0006
721.863	-0.0001
722.112	0
722.362	0.0005
722.611	0.001
722.86	0.0011
723.11	0.0022
723.359	0.0025
723.608	0.0021
723.857	0.0036
724.106	0.0029
724.355	0.0029
724.604	0.0024
724.853	0.0016
725.102	0.0002
725.351	-0.0012
725.599	-0.0025
725.848	-0.0016
726.097	0
726.345	-0.0013
726.594	-0.0005
726.842	0
727.09	-0.0006
727.339	-0.0003
727.587	-0.0007
727.835	-0.0013
728.083	-0.0015
728.331	-0.0015
728.579	-0.0002
728.827	-0.0014
729.075	-0.0023
729.323	-0.002
729.571	-0.0021
729.818	-0.0024
730.066	-0.0019
730.314	-0.0008
730.561	-0.0016
730.809	-0.0024
731.056	-0.0025
731.303	-0.0024
731.551	-0.0012
731.798	-0.0019
732.045	-0.0007
732.292	-0.001
732.539	-0.0005
732.786	-0.0011
733.033	-0.0018
733.28	-0.0013
733.527	-0.0013
733.774	-0.0018
734.021	-0.002
734.267	-0.0021
734.514	-0.0018
734.76	-0.0023
735.007	-0.002
735.253	-0.0006
735.5	0.001
735.746	0.0017
735.992	0.0012
736.238	0.0015
736.485	0.0012
736.731	0.0023
736.977	0.0006
737.223	-0.0001
737.469	0.0001
737.715	0.0005
737.96	0.0014
738.206	0.0019
738.452	0.0013
738.697	0.001
738.943	0.0002
739.189	0.001
739.434	-0.0002
739.679	0.0009
739.925	0.0023
740.17	0.0028
740.415	0.0026
740.66	0.0023
740.906	0.0023
741.151	0.0018
741.396	0.0014
741.641	0.0007
741.886	0.0015
742.13	0.0007
742.375	0.0015
742.62	-0.0002
742.865	-0.0008
743.109	0
743.354	-0.0012
743.598	-0.0018
743.843	-0.0026
744.087	-0.0023
744.331	-0.0024
744.576	-0.0018
744.82	-0.0011
745.064	-0
745.308	-0.0001
745.552	-0.0004
745.796	-0.0005
746.04	-0.0009
746.284	-0.0011
746.528	-0.0001
746.771	-0.0006
747.015	-0.0001
747.259	-0.0013
747.502	-0.0013
747.746	-0.0008
747.989	0.0005
748.233	0.0016
748.476	0.0013
748.719	0.0015
748.963	0.0009
749.206	0.0007
749.449	0.0011
749.692	0.0007
749.935	0.0007
750.178	0.0009
750.421	0
750.664	0.0014
750.906	0.0014
751.149	0.0009
751.392	0.0011
751.635	0.0009
751.877	0.0007
752.12	0.0012
752.362	0.0015
752.604	0.0019
752.847	0.0014
753.089	0.0014
753.331	0.0015
753.573	0.0011
753.816	0.0017
754.058	0.0015
754.3	0.0021
754.542	0.0028
754.783	0.0024
755.025	0.0029
755.267	0.0027
755.509	0.0033
755.75	0.0014
755.992	0.001
756.234	0.0012
756.475	0.0017
756.716	0.0009
756.958	0
757.199	0.0004
757.44	0.0012
757.682	0.001
757.923	0.0014
758.164	0.0027
758.405	0.0027
758.646	0.0022
758.887	0.0014
759.128	0.0018
759.369	0.0011
759.609	0.0008
759.85	0.0007
760.091	0.0008
760.331	0.0016
760.572	0.0022
760.812	0.0004
761.053	0.0004
761.293	0.0018
761.533	0.0027
761.774	0.0015
762.014	0.0033
762.254	0.0025
762.494	0.0018
762.734	0.0017
762.974	0.0022
763.214	0.0019
763.454	0.002
763.694	0.0019
763.933	0.0033
764.173	0.005
764.413	0.0041
764.652	0.0018
764.892	0.0019
765.131	0.0009
765.371	0.0006
765.61	0.0003
765.849	-0.0007
766.089	-0.0012
766.328	-0.0002
766.567	-0.0013
766.806	-0.0012
767.045	-0.0027
767.284	-0.0014
767.523	-0.0013
767.762	-0.0019
768.001	-0.0013
768.239	-0.0021
768.478	-0.0022
768.717	-0.0025
768.955	-0.0026
769.194	-0.0017
769.432	-0.0004
769.671	-0.0002
769.909	-0
770.148	-0.0016
770.386	0.0001
770.624	-0.0013
770.862	-0.001
771.1	-0.0012
771.338	-0.001
771.576	0.0003
771.814	0.0008
772.052	0.0003
772.29	0.0022
772.528	0.0012
772.765	-0
773.003	0.0006
773.24	0.0005
773.478	-0.0002
773.716	0.0014
773.953	0.0021
774.19	0.0024
774.428	0.0032
774.665	0.0044
774.902	0.004
775.139	0.0034
775.376	0.0026
775.613	0.003
775.85	0.0027
776.087	0.003
776.324	0.0025
776.561	0.0016
776.798	0.0013
777.034	0.0018
777.271	0.0016
777.508	0.0014
777.744	0.0031
777.981	0.003
778.217	0.0019
778.454	0.0021
778.69	0.0013
778.926	0.0016
779.162	0.0007
779.399	0.0021
779.635	0.0012
779.871	0.0005
780.107	0.0007
780.343	-0.0008
780.579	0.0002
780.814	0.0016
781.05	0.0009
781.286	-0.0002
781.522	-0.0009
781.757	-0.0013
781.993	-0.0003
782.228	-0.001
782.464	-0.0002
782.699	0.0006
782.934	0.0002
783.17	0.0001
783.405	0.0016
783.64	0.0007
783.875	-0.0004
784.11	-0.0002
784.345	-0.0001
784.58	0.0001
784.815	0.0004
785.05	-0.0008
785.285	-0.0006
785.52	0.0002
785.754	-0.0002
785.989	0.0012
786.223	0.0016
786.458	0.0026
786.692	0.0034
786.927	0.0045
787.161	0.0048
787.396	0.0048
787.63	0.0038
787.864	0.0022
788.098	0.0012
788.332	0.0009
788.566	0.0001
788.8	0.0002
789.034	0.0004
789.268	0.0002
789.502	0.0001
789.736	0.0014
789.969	0.0013
790.203	0.0016
790.437	0.0028
790.67	0.0025
790.904	0.0041
791.137	0.004
791.37	0.0046
791.604	0.0049
791.837	0.0051
792.07	0.0051
792.303	0.0057
792.537	0.0059
792.77	0.0058
793.003	0.0044
793.236	0.0037
793.469	0.0037
793.701	0.0031
793.934	0.0027
794.167	0.002
794.4	0.0008
794.632	0
794.865	0.0001
795.097	-0.0007
795.33	-0.0002
795.562	-0.0001
795.795	-0.001
796.027	-0.0006
796.259	0.0017
796.491	0.0011
796.724	0.0023
796.956	0.0018
797.188	0.0015
797.42	0.0017
797.652	0.002
797.883	0.0018
798.115	0.0026
798.347	0.0028
798.579	0.0034
798.81	0.0032
799.042	0.0033
799.274	0.0037
799.505	0.0036
799.737	0.0028
799.968	0.0027
800.199	0.0018
800.431	0.0026
800.662	0.0014
800.893	0.0027
801.124	0.0026
801.355	0.0035
801.586	0.0037
801.817	0.0058
802.048	0.0041
802.279	0.005
802.51	0.0052
802.741	0.0062
802.971	0.005
803.202	0.004
803.433	0.0035
803.663	0.0028
803.894	0.0033
804.124	0.0026
804.354	0.0043
804.585	0.0051
804.815	0.005
805.045	0.0056
805.275	0.0044
805.506	0.0127
805.736	-0.1176
805.966	-0.1369
806.196	-0.0253
