Data from 03 0.4 mM K2Cr2O7 0.25 M BQDS 1 M H2SO4 5 min_Absorbance_0218.txt Node
Date: Wed Dec 15 11:40:13 EST 2021
User: kwabilab-user
Spectrometer: HDX00518
Trigger mode: 0
Integration Time (sec): 5.000000E-2
Scans to average: 50
Nonlinearity correction enabled: false
Boxcar width: 0
Storing dark spectrum: false
XAxis mode: Wavelengths
Number of Pixels in Spectrum: 2068
>>>>>Begin Spectral Data<<<<<
195.27	-0.2792
195.642	0.0893
196.014	-0.2443
196.386	-0.1117
196.758	-0.0505
197.129	-0.0158
197.501	-0.0171
197.872	0.0304
198.244	0.0054
198.615	0.0433
198.986	0.0187
199.357	0.0236
199.728	0.0192
200.099	0.0152
200.47	0.0163
200.841	0.0046
201.212	0.0044
201.582	0.0235
201.953	0.0285
202.323	0.0271
202.694	0.0194
203.064	0.0028
203.434	0.0155
203.804	0.0079
204.174	0.0223
204.544	0.0278
204.914	-0.0039
205.284	0.022
205.653	0.0251
206.023	0.0278
206.393	0.0169
206.762	0.0093
207.131	0.0141
207.501	0.0297
207.87	0.0263
208.239	0.0057
208.608	0.0306
208.977	-0.0012
209.346	0.008
209.715	0.0306
210.083	0.0266
210.452	0.0237
210.82	0.0389
211.189	0.0235
211.557	0.016
211.925	0.0142
212.294	0.0335
212.662	0.0305
213.03	0.0331
213.398	0.0153
213.766	0.0044
214.133	0.026
214.501	0.0351
214.869	0.0011
215.236	0.0209
215.604	0.0209
215.971	0.0577
216.338	0.031
216.705	0.0251
217.072	0.0318
217.439	0.046
217.806	0.0146
218.173	0.0452
218.54	0.0519
218.907	0.0552
219.273	0.0656
219.64	0.0806
220.006	0.0833
220.373	0.0841
220.739	0.1056
221.105	0.1291
221.471	0.1443
221.837	0.1505
222.203	0.1551
222.569	0.1665
222.935	0.1895
223.3	0.2226
223.666	0.2489
224.031	0.2687
224.397	0.2965
224.762	0.3103
225.127	0.3404
225.493	0.362
225.858	0.3893
226.223	0.3867
226.588	0.4101
226.952	0.4265
227.317	0.4642
227.682	0.4757
228.046	0.4738
228.411	0.5033
228.775	0.531
229.14	0.5294
229.504	0.5315
229.868	0.5334
230.232	0.5488
230.596	0.5698
230.96	0.5782
231.324	0.5809
231.688	0.5775
232.052	0.5999
232.415	0.596
232.779	0.6073
233.142	0.6166
233.505	0.6045
233.869	0.5962
234.232	0.6104
234.595	0.5973
234.958	0.5964
235.321	0.6006
235.684	0.5951
236.047	0.5911
236.409	0.5945
236.772	0.5907
237.134	0.5909
237.497	0.5755
237.859	0.5864
238.222	0.5851
238.584	0.5749
238.946	0.5737
239.308	0.5665
239.67	0.5703
240.032	0.567
240.393	0.5595
240.755	0.5558
241.117	0.5605
241.478	0.5549
241.84	0.5485
242.201	0.5477
242.562	0.5427
242.924	0.5351
243.285	0.5328
243.646	0.5303
244.007	0.525
244.368	0.5307
244.728	0.5295
245.089	0.5197
245.45	0.5181
245.81	0.5188
246.171	0.5135
246.531	0.5125
246.891	0.5062
247.252	0.5099
247.612	0.5024
247.972	0.5037
248.332	0.503
248.692	0.5007
249.051	0.4988
249.411	0.5017
249.771	0.5022
250.13	0.4917
250.49	0.4915
250.849	0.4914
251.208	0.4865
251.568	0.4891
251.927	0.4843
252.286	0.486
252.645	0.4831
253.004	0.4831
253.363	0.4779
253.721	0.4838
254.08	0.4808
254.439	0.4786
254.797	0.4779
255.155	0.4787
255.514	0.4723
255.872	0.4762
256.23	0.4724
256.588	0.4736
256.946	0.4744
257.304	0.4743
257.662	0.4733
258.02	0.4729
258.377	0.4653
258.735	0.468
259.093	0.4642
259.45	0.4625
259.807	0.4631
260.165	0.4675
260.522	0.464
260.879	0.4576
261.236	0.4606
261.593	0.4569
261.95	0.4539
262.306	0.459
262.663	0.4557
263.02	0.4529
263.376	0.4498
263.733	0.4527
264.089	0.448
264.445	0.4473
264.802	0.445
265.158	0.4414
265.514	0.4428
265.87	0.4377
266.226	0.4337
266.581	0.4402
266.937	0.4388
267.293	0.4289
267.648	0.4305
268.004	0.4272
268.359	0.425
268.714	0.4222
269.07	0.4245
269.425	0.4187
269.78	0.4182
270.135	0.4161
270.49	0.413
270.844	0.4142
271.199	0.4141
271.554	0.4027
271.908	0.4046
272.263	0.406
272.617	0.4022
272.972	0.3997
273.326	0.3976
273.68	0.3893
274.034	0.3914
274.388	0.3895
274.742	0.3861
275.096	0.3818
275.45	0.3813
275.803	0.3782
276.157	0.3733
276.51	0.3723
276.864	0.3686
277.217	0.3695
277.571	0.3669
277.924	0.3617
278.277	0.3599
278.63	0.355
278.983	0.3508
279.336	0.3492
279.688	0.3447
280.041	0.3457
280.394	0.336
280.746	0.3349
281.099	0.333
281.451	0.3282
281.803	0.3255
282.156	0.3205
282.508	0.3187
282.86	0.317
283.212	0.3155
283.564	0.3095
283.916	0.3056
284.267	0.3017
284.619	0.3001
284.971	0.2974
285.322	0.2956
285.673	0.2906
286.025	0.2858
286.376	0.2838
286.727	0.2797
287.078	0.2768
287.429	0.2749
287.78	0.2715
288.131	0.2679
288.482	0.2632
288.833	0.2607
289.183	0.2593
289.534	0.2558
289.884	0.2512
290.235	0.248
290.585	0.2464
290.935	0.243
291.285	0.2399
291.635	0.2366
291.985	0.2329
292.335	0.2311
292.685	0.2283
293.035	0.2241
293.384	0.2206
293.734	0.2188
294.083	0.2144
294.433	0.2129
294.782	0.2107
295.131	0.2056
295.48	0.2044
295.829	0.2014
296.179	0.1978
296.527	0.1956
296.876	0.1923
297.225	0.1874
297.574	0.1864
297.922	0.1839
298.271	0.1811
298.619	0.1779
298.968	0.1766
299.316	0.1737
299.664	0.1715
300.012	0.1699
300.36	0.1658
300.708	0.1656
301.056	0.1607
301.404	0.1593
301.752	0.157
302.099	0.1553
302.447	0.1527
302.794	0.1503
303.142	0.1482
303.489	0.1463
303.836	0.1446
304.183	0.1434
304.531	0.1417
304.878	0.14
305.224	0.1377
305.571	0.1366
305.918	0.1345
306.265	0.1321
306.611	0.1313
306.958	0.1313
307.304	0.1294
307.651	0.1278
307.997	0.126
308.343	0.1257
308.689	0.1252
309.035	0.1245
309.381	0.1225
309.727	0.1221
310.073	0.121
310.419	0.1199
310.764	0.1198
311.11	0.1193
311.455	0.1184
311.801	0.1179
312.146	0.1172
312.491	0.1169
312.837	0.1164
313.182	0.116
313.527	0.1151
313.872	0.1149
314.216	0.1154
314.561	0.1148
314.906	0.1141
315.251	0.1153
315.595	0.1149
315.94	0.1144
316.284	0.115
316.628	0.1148
316.972	0.1149
317.317	0.1146
317.661	0.1158
318.005	0.1155
318.348	0.1159
318.692	0.1156
319.036	0.1162
319.38	0.117
319.723	0.1166
320.067	0.1176
320.41	0.1179
320.754	0.1182
321.097	0.1181
321.44	0.1194
321.783	0.12
322.126	0.1214
322.469	0.121
322.812	0.122
323.155	0.1228
323.498	0.1236
323.84	0.1236
324.183	0.1255
324.525	0.126
324.868	0.1277
325.21	0.1277
325.552	0.1288
325.894	0.1295
326.236	0.1297
326.578	0.1306
326.92	0.1319
327.262	0.1319
327.604	0.1336
327.946	0.1341
328.287	0.1352
328.629	0.1362
328.97	0.1371
329.312	0.1379
329.653	0.1394
329.994	0.1406
330.335	0.1415
330.676	0.1422
331.017	0.1433
331.358	0.1442
331.699	0.1452
332.04	0.1464
332.38	0.1479
332.721	0.1485
333.061	0.1496
333.402	0.1512
333.742	0.1511
334.083	0.1522
334.423	0.1537
334.763	0.1549
335.103	0.1545
335.443	0.1555
335.783	0.1573
336.123	0.1573
336.462	0.1586
336.802	0.159
337.141	0.1602
337.481	0.1606
337.82	0.1616
338.16	0.1625
338.499	0.1639
338.838	0.1642
339.177	0.1652
339.516	0.1656
339.855	0.1672
340.194	0.1671
340.533	0.1677
340.872	0.1679
341.21	0.1693
341.549	0.1691
341.887	0.1706
342.226	0.1704
342.564	0.1715
342.902	0.1713
343.24	0.1725
343.578	0.1723
343.916	0.1716
344.254	0.1732
344.592	0.1731
344.93	0.1735
345.268	0.173
345.605	0.1734
345.943	0.174
346.28	0.1743
346.618	0.1738
346.955	0.1739
347.292	0.1751
347.629	0.1746
347.966	0.1741
348.303	0.1743
348.64	0.1743
348.977	0.1751
349.314	0.1751
349.65	0.1744
349.987	0.1755
350.324	0.1741
350.66	0.175
350.996	0.1745
351.333	0.1736
351.669	0.1738
352.005	0.1739
352.341	0.1724
352.677	0.1719
353.013	0.1712
353.349	0.1706
353.685	0.169
354.02	0.1697
354.356	0.1689
354.691	0.1677
355.027	0.1672
355.362	0.1664
355.697	0.1657
356.033	0.1652
356.368	0.1645
356.703	0.1642
357.038	0.1633
357.373	0.1622
357.707	0.1624
358.042	0.1609
358.377	0.1602
358.711	0.1605
359.046	0.1595
359.38	0.1588
359.715	0.1579
360.049	0.1572
360.383	0.1555
360.717	0.1548
361.051	0.1541
361.385	0.1539
361.719	0.1524
362.053	0.1521
362.387	0.1491
362.72	0.1489
363.054	0.148
363.387	0.1466
363.721	0.1457
364.054	0.1443
364.387	0.1423
364.721	0.1416
365.054	0.141
365.387	0.1391
365.72	0.1381
366.053	0.137
366.385	0.1353
366.718	0.1352
367.051	0.1334
367.383	0.1333
367.716	0.1325
368.048	0.1315
368.381	0.1308
368.713	0.1282
369.045	0.1285
369.377	0.1277
369.709	0.1273
370.041	0.1247
370.373	0.125
370.705	0.1234
371.037	0.1224
371.368	0.1212
371.7	0.1199
372.031	0.119
372.363	0.1179
372.694	0.1165
373.025	0.1147
373.356	0.1138
373.688	0.1127
374.019	0.1115
374.35	0.1094
374.68	0.1082
375.011	0.1069
375.342	0.1058
375.673	0.1047
376.003	0.102
376.334	0.1021
376.664	0.1009
376.995	0.0997
377.325	0.0977
377.655	0.0966
377.985	0.0954
378.315	0.0949
378.645	0.0944
378.975	0.0937
379.305	0.0911
379.635	0.0917
379.964	0.0907
380.294	0.0901
380.623	0.0889
380.953	0.0873
381.282	0.0871
381.611	0.0859
381.941	0.0855
382.27	0.0844
382.599	0.0837
382.928	0.0815
383.257	0.0814
383.585	0.0803
383.914	0.0785
384.243	0.0782
384.571	0.0769
384.9	0.0761
385.228	0.074
385.557	0.0742
385.885	0.0718
386.213	0.0709
386.541	0.0703
386.869	0.0696
387.197	0.0677
387.525	0.0668
387.853	0.0654
388.181	0.0647
388.508	0.0639
388.836	0.0624
389.164	0.0619
389.491	0.061
389.818	0.0596
390.146	0.0599
390.473	0.0589
390.8	0.0584
391.127	0.0564
391.454	0.0557
391.781	0.0561
392.108	0.0551
392.435	0.0535
392.761	0.0534
393.088	0.0536
393.415	0.0519
393.741	0.0523
394.067	0.0522
394.394	0.0508
394.72	0.0502
395.046	0.0492
395.372	0.0488
395.698	0.0481
396.024	0.0471
396.35	0.0469
396.676	0.0465
397.001	0.0454
397.327	0.0446
397.653	0.0436
397.978	0.0436
398.303	0.0426
398.629	0.0424
398.954	0.0416
399.279	0.0417
399.604	0.0405
399.929	0.0405
400.254	0.0395
400.579	0.04
400.904	0.0384
401.229	0.0384
401.553	0.0383
401.878	0.0378
402.202	0.0377
402.527	0.0366
402.851	0.0372
403.175	0.0362
403.5	0.0362
403.824	0.0352
404.148	0.036
404.472	0.0352
404.796	0.0349
405.119	0.0349
405.443	0.0344
405.767	0.0338
406.09	0.0345
406.414	0.0338
406.737	0.0344
407.061	0.0338
407.384	0.034
407.707	0.0333
408.03	0.0331
408.353	0.0329
408.676	0.0327
408.999	0.0329
409.322	0.0321
409.645	0.0325
409.968	0.0328
410.29	0.0324
410.613	0.0333
410.935	0.0321
411.258	0.033
411.58	0.0312
411.902	0.0316
412.224	0.0315
412.546	0.0316
412.868	0.0327
413.19	0.0319
413.512	0.0319
413.834	0.0319
414.156	0.0319
414.477	0.0311
414.799	0.0318
415.121	0.0306
415.442	0.0309
415.763	0.0308
416.085	0.0322
416.406	0.0315
416.727	0.0318
417.048	0.0318
417.369	0.0314
417.69	0.0318
418.011	0.0313
418.331	0.0314
418.652	0.0311
418.973	0.0309
419.293	0.0312
419.614	0.0309
419.934	0.0318
420.254	0.0311
420.574	0.0306
420.895	0.0311
421.215	0.0306
421.535	0.0305
421.855	0.0303
422.174	0.0297
422.494	0.031
422.814	0.0303
423.134	0.0308
423.453	0.0309
423.773	0.0313
424.092	0.0311
424.411	0.0307
424.731	0.0304
425.05	0.0311
425.369	0.0311
425.688	0.0313
426.007	0.0307
426.326	0.0309
426.644	0.0305
426.963	0.0306
427.282	0.0311
427.6	0.0309
427.919	0.0307
428.237	0.0311
428.556	0.0311
428.874	0.0313
429.192	0.0313
429.51	0.0304
429.828	0.0308
430.146	0.0309
430.464	0.0308
430.782	0.0303
431.1	0.0305
431.418	0.0309
431.735	0.0306
432.053	0.0309
432.37	0.0309
432.688	0.0303
433.005	0.0305
433.322	0.0318
433.639	0.0318
433.957	0.0307
434.274	0.0309
434.591	0.031
434.907	0.0306
435.224	0.0312
435.541	0.0311
435.858	0.032
436.174	0.0316
436.491	0.0304
436.807	0.0301
437.124	0.0308
437.44	0.0305
437.756	0.031
438.072	0.0299
438.388	0.0304
438.704	0.0303
439.02	0.0302
439.336	0.0298
439.652	0.0307
439.968	0.0305
440.283	0.0308
440.599	0.0313
440.914	0.0299
441.23	0.03
441.545	0.0297
441.86	0.031
442.175	0.0304
442.491	0.0298
442.806	0.0296
443.121	0.0289
443.435	0.0293
443.75	0.0292
444.065	0.0296
444.38	0.0297
444.694	0.0293
445.009	0.0296
445.323	0.0294
445.638	0.0294
445.952	0.0292
446.266	0.029
446.58	0.0277
446.894	0.0285
447.208	0.0281
447.522	0.0279
447.836	0.0286
448.15	0.028
448.464	0.0275
448.777	0.0282
449.091	0.0282
449.404	0.0283
449.718	0.0282
450.031	0.0272
450.345	0.0276
450.658	0.0275
450.971	0.0275
451.284	0.0274
451.597	0.0276
451.91	0.0275
452.223	0.0278
452.535	0.0274
452.848	0.027
453.161	0.0276
453.473	0.0268
453.786	0.0272
454.098	0.0272
454.411	0.027
454.723	0.0275
455.035	0.0261
455.347	0.0262
455.659	0.0266
455.971	0.0273
456.283	0.0271
456.595	0.0271
456.907	0.0265
457.218	0.0269
457.53	0.0255
457.841	0.0257
458.153	0.0257
458.464	0.0255
458.776	0.0246
459.087	0.0255
459.398	0.0246
459.709	0.0244
460.02	0.0257
460.331	0.0246
460.642	0.025
460.953	0.0248
461.263	0.0251
461.574	0.0241
461.885	0.0251
462.195	0.0242
462.506	0.0242
462.816	0.0247
463.126	0.0239
463.437	0.0236
463.747	0.0234
464.057	0.0221
464.367	0.0221
464.677	0.0227
464.987	0.0226
465.296	0.0222
465.606	0.0222
465.916	0.0211
466.225	0.0221
466.535	0.0219
466.844	0.0224
467.154	0.0223
467.463	0.0226
467.772	0.0216
468.081	0.0216
468.39	0.0215
468.699	0.0218
469.008	0.0212
469.317	0.0217
469.626	0.0214
469.935	0.0211
470.243	0.0213
470.552	0.0208
470.86	0.0211
471.169	0.0201
471.477	0.02
471.785	0.0198
472.093	0.02
472.402	0.0198
472.71	0.0194
473.018	0.0189
473.326	0.0195
473.633	0.0192
473.941	0.0189
474.249	0.0194
474.556	0.0189
474.864	0.0186
475.171	0.0187
475.479	0.0182
475.786	0.0193
476.094	0.0185
476.401	0.0178
476.708	0.0183
477.015	0.0175
477.322	0.0165
477.629	0.0172
477.936	0.018
478.242	0.017
478.549	0.0169
478.856	0.017
479.162	0.017
479.469	0.016
479.775	0.0159
480.081	0.0154
480.388	0.0154
480.694	0.0157
481	0.0156
481.306	0.0161
481.612	0.0166
481.918	0.0163
482.224	0.0157
482.53	0.0159
482.835	0.0159
483.141	0.0156
483.446	0.0153
483.752	0.0147
484.057	0.0143
484.363	0.0142
484.668	0.0145
484.973	0.0132
485.278	0.0135
485.583	0.0128
485.888	0.0131
486.193	0.0117
486.498	0.013
486.803	0.0138
487.107	0.0127
487.412	0.012
487.717	0.0126
488.021	0.0126
488.325	0.0123
488.63	0.0129
488.934	0.0121
489.238	0.0119
489.542	0.0119
489.846	0.0118
490.15	0.0124
490.454	0.0128
490.758	0.0117
491.062	0.0116
491.366	0.0113
491.669	0.0114
491.973	0.0115
492.276	0.011
492.58	0.0105
492.883	0.0109
493.186	0.0102
493.489	0.0118
493.792	0.0099
494.096	0.0099
494.399	0.0098
494.701	0.0092
495.004	0.0092
495.307	0.0095
495.61	0.0104
495.912	0.0098
496.215	0.0094
496.517	0.01
496.82	0.0088
497.122	0.0099
497.424	0.0092
497.727	0.0084
498.029	0.0082
498.331	0.0083
498.633	0.0085
498.935	0.0081
499.237	0.0089
499.538	0.0087
499.84	0.0089
500.142	0.008
500.443	0.0083
500.745	0.0077
501.046	0.0079
501.348	0.007
501.649	0.0076
501.95	0.0075
502.251	0.0085
502.552	0.0072
502.853	0.0066
503.154	0.0079
503.455	0.0071
503.756	0.0075
504.057	0.0065
504.357	0.0073
504.658	0.0073
504.958	0.0069
505.259	0.0064
505.559	0.0063
505.859	0.0056
506.16	0.0063
506.46	0.0057
506.76	0.0057
507.06	0.0051
507.36	0.0056
507.66	0.0068
507.96	0.0072
508.259	0.0057
508.559	0.0055
508.859	0.0067
509.158	0.0063
509.457	0.0059
509.757	0.0052
510.056	0.0053
510.355	0.0056
510.655	0.0048
510.954	0.0051
511.253	0.0051
511.552	0.0051
511.851	0.0051
512.149	0.0051
512.448	0.0043
512.747	0.0043
513.045	0.0043
513.344	0.0051
513.642	0.0052
513.941	0.0055
514.239	0.0045
514.537	0.0037
514.836	0.0049
515.134	0.0052
515.432	0.0042
515.73	0.0046
516.028	0.0044
516.326	0.0035
516.623	0.0028
516.921	0.0031
517.219	0.0044
517.516	0.0039
517.814	0.0044
518.111	0.004
518.409	0.0043
518.706	0.0044
519.003	0.0035
519.3	0.0034
519.597	0.0043
519.894	0.0034
520.191	0.0052
520.488	0.0047
520.785	0.0035
521.082	0.005
521.378	0.0042
521.675	0.0027
521.971	0.0036
522.268	0.0048
522.564	0.004
522.861	0.0043
523.157	0.0037
523.453	0.0044
523.749	0.0046
524.045	0.0041
524.341	0.0038
524.637	0.0037
524.933	0.0041
525.229	0.0035
525.524	0.0031
525.82	0.0036
526.115	0.0032
526.411	0.0039
526.706	0.0029
527.002	0.004
527.297	0.0019
527.592	0.0031
527.887	0.0028
528.182	0.0024
528.477	0.004
528.772	0.0029
529.067	0.0037
529.362	0.0043
529.657	0.003
529.951	0.0037
530.246	0.0029
530.54	0.0037
530.835	0.0021
531.129	0.003
531.423	0.0026
531.718	0.0037
532.012	0.0031
532.306	0.004
532.6	0.0035
532.894	0.0027
533.188	0.0018
533.482	0.004
533.775	0.0035
534.069	0.0032
534.363	0.0028
534.656	0.0024
534.95	0.0036
535.243	0.002
535.536	0.0025
535.83	0.0028
536.123	0.0014
536.416	0.0018
536.709	0.0025
537.002	0.004
537.295	0.003
537.588	0.0033
537.881	0.0021
538.173	0.004
538.466	0.0033
538.759	0.003
539.051	0.0037
539.344	0.0038
539.636	0.0024
539.928	0.0039
540.22	0.0033
540.513	0.0037
540.805	0.0044
541.097	0.0033
541.389	0.003
541.681	0.0032
541.972	0.0025
542.264	0.0041
542.556	0.0033
542.847	0.0032
543.139	0.0036
543.431	0.0028
543.722	0.0029
544.013	0.0034
544.305	0.0035
544.596	0.0033
544.887	0.0039
545.178	0.0048
545.469	0.0036
545.76	0.0046
546.051	0.0041
546.342	0.0046
546.632	0.0036
546.923	0.0035
547.214	0.002
547.504	0.0032
547.795	0.0026
548.085	0.0034
548.375	0.0036
548.666	0.0039
548.956	0.0034
549.246	0.0042
549.536	0.0047
549.826	0.0056
550.116	0.0054
550.406	0.0045
550.695	0.0047
550.985	0.0044
551.275	0.0038
551.564	0.0052
551.854	0.0054
552.143	0.0041
552.433	0.0041
552.722	0.0052
553.011	0.0037
553.3	0.004
553.589	0.0047
553.879	0.0037
554.167	0.0036
554.456	0.0034
554.745	0.0034
555.034	0.0043
555.323	0.0027
555.611	0.0035
555.9	0.0031
556.188	0.0034
556.477	0.0031
556.765	0.0036
557.053	0.0049
557.342	0.0035
557.63	0.0038
557.918	0.0043
558.206	0.0043
558.494	0.0044
558.782	0.005
559.069	0.0052
559.357	0.004
559.645	0.0034
559.932	0.0041
560.22	0.003
560.507	0.002
560.795	0.0028
561.082	0.0016
561.37	0.0034
561.657	0.0028
561.944	0.0027
562.231	0.0027
562.518	0.0038
562.805	0.0045
563.092	0.0023
563.379	0.0034
563.665	0.0038
563.952	0.0048
564.239	0.0043
564.525	0.004
564.811	0.0038
565.098	0.0037
565.384	0.0042
565.67	0.0045
565.957	0.0041
566.243	0.0045
566.529	0.0034
566.815	0.0036
567.101	0.0046
567.387	0.0029
567.672	0.0036
567.958	0.0025
568.244	0.0029
568.529	0.0032
568.815	0.0034
569.1	0.0026
569.386	0.0034
569.671	0.0029
569.956	0.0026
570.242	0.0029
570.527	0.0028
570.812	0.0018
571.097	0.0018
571.382	0.0016
571.666	0.0015
571.951	0.0028
572.236	0.0024
572.521	0.0033
572.805	0.0033
573.09	0.0028
573.374	0.0016
573.659	0.0024
573.943	0.0023
574.227	0.0028
574.511	0.0021
574.795	0.0031
575.079	0.0026
575.363	0.0025
575.647	0.0031
575.931	0.0033
576.215	0.0027
576.499	0.0021
576.782	0.0018
577.066	0.0027
577.349	0.0033
577.633	0.0029
577.916	0.0017
578.2	0.0027
578.483	0.0038
578.766	0.0037
579.049	0.0031
579.332	0.0034
579.615	0.0017
579.898	0.0024
580.181	0.0027
580.464	0.003
580.746	0.0027
581.029	0.0026
581.312	0.0009
581.594	0.0012
581.877	0.0021
582.159	0.0037
582.441	0.0017
582.724	0.0033
583.006	0.0041
583.288	0.0036
583.57	0.0033
583.852	0.0043
584.134	0.0037
584.416	0.0024
584.697	0.0024
584.979	0.0018
585.261	0.0014
585.542	0.0028
585.824	0.0034
586.105	0.0027
586.387	0.0029
586.668	0.0032
586.949	0.0039
587.231	0.0034
587.512	0.0029
587.793	0.003
588.074	0.003
588.355	0.0033
588.636	0.0023
588.916	0.0036
589.197	0.0038
589.478	0.0026
589.758	0.0023
590.039	0.0017
590.319	0.0023
590.6	0.0024
590.88	0.0026
591.16	0.0022
591.441	0.0034
591.721	0.0025
592.001	0.0014
592.281	0.0022
592.561	0.0028
592.841	0.0018
593.12	0.0023
593.4	0.003
593.68	0.0027
593.959	0.0028
594.239	0.0042
594.518	0.0051
594.798	0.0031
595.077	0.0025
595.356	0.0027
595.636	0.0033
595.915	0.0028
596.194	0.0035
596.473	0.0034
596.752	0.0036
597.031	0.0034
597.31	0.0025
597.588	0.0022
597.867	0.0018
598.146	0.0018
598.424	0.0017
598.703	0.0018
598.981	0.0011
599.259	0.0014
599.538	0.0028
599.816	0.0035
600.094	0.0023
600.372	0.0022
600.65	0.0029
600.928	0.0032
601.206	0.0022
601.484	0.0026
601.762	0.0032
602.04	0.0039
602.317	0.0036
602.595	0.0043
602.872	0.0042
603.15	0.0039
603.427	0.0009
603.704	0.0015
603.982	0.0019
604.259	0.0016
604.536	0.002
604.813	0.0026
605.09	0.0022
605.367	0.0013
605.644	0.0014
605.921	0.0019
606.197	0.0011
606.474	0.0025
606.751	0.0013
607.027	0.0025
607.304	0.0026
607.58	0.0022
607.856	0.0029
608.133	0.0043
608.409	0.0035
608.685	0.0041
608.961	0.0039
609.237	0.004
609.513	0.0054
609.789	0.0033
610.065	0.0031
610.341	0.0025
610.616	0.0034
610.892	0.0037
611.167	0.0038
611.443	0.0038
611.718	0.0034
611.994	0.0037
612.269	0.0023
612.544	0.003
612.819	0.002
613.095	0.0022
613.37	0.0016
613.645	0.0017
613.919	0.0038
614.194	0.0029
614.469	0.0027
614.744	0.0019
615.019	0.0015
615.293	0.0018
615.568	0.0022
615.842	0.0018
616.116	0.0026
616.391	0.0015
616.665	0.0008
616.939	0.0013
617.213	0.0012
617.488	0.0028
617.762	0.0021
618.035	0.0027
618.309	0.0026
618.583	0.0032
618.857	0.0037
619.131	0.0031
619.404	0.0037
619.678	0.0042
619.951	0.0024
620.225	0.0013
620.498	0.0026
620.771	0.0022
621.045	0.0026
621.318	0.0026
621.591	0.0018
621.864	0.0009
622.137	0.001
622.41	0.0022
622.683	0.0019
622.956	0.0016
623.228	0.0019
623.501	0.003
623.774	0.0037
624.046	0.0039
624.319	0.0028
624.591	0.0022
624.863	0.0026
625.136	0.0037
625.408	0.0046
625.68	0.0038
625.952	0.0037
626.224	0.0045
626.496	0.0038
626.768	0.0041
627.04	0.0039
627.311	0.0037
627.583	0.0055
627.855	0.0044
628.126	0.0037
628.398	0.0039
628.669	0.0026
628.941	0.0017
629.212	0.001
629.483	0.0026
629.755	0.0021
630.026	0.0023
630.297	0.0023
630.568	0.0033
630.839	0.0039
631.11	0.0045
631.38	0.0034
631.651	0.0031
631.922	0.0037
632.192	0.0029
632.463	0.0029
632.733	0.0028
633.004	0.0026
633.274	0.0027
633.545	0.0026
633.815	0.0046
634.085	0.0044
634.355	0.0031
634.625	0.004
634.895	0.0042
635.165	0.0034
635.435	0.0031
635.705	0.003
635.974	0.0024
636.244	0.0022
636.514	0.0018
636.783	0.0021
637.053	0.0029
637.322	0.0032
637.591	0.0028
637.861	0.0014
638.13	0.0028
638.399	0.0035
638.668	0.0037
638.937	0.0047
639.206	0.0043
639.475	0.0053
639.744	0.0045
640.013	0.0046
640.281	0.0044
640.55	0.0041
640.819	0.0047
641.087	0.0038
641.356	0.0045
641.624	0.0035
641.892	0.0045
642.161	0.004
642.429	0.0043
642.697	0.0041
642.965	0.0036
643.233	0.0023
643.501	0.0043
643.769	0.004
644.037	0.0041
644.305	0.0029
644.572	0.0037
644.84	0.0041
645.108	0.0044
645.375	0.0045
645.643	0.0041
645.91	0.0033
646.177	0.0035
646.445	0.0023
646.712	0.0033
646.979	0.0033
647.246	0.0048
647.513	0.0039
647.78	0.0036
648.047	0.0022
648.314	0.0014
648.58	0.0008
648.847	0.0004
649.114	-0
649.38	-0.0007
649.647	0.0001
649.913	0.001
650.18	0.0027
650.446	0.003
650.712	0.0032
650.978	0.0042
651.245	0.0041
651.511	0.0051
651.777	0.0047
652.043	0.0033
652.309	0.0043
652.574	0.004
652.84	0.0043
653.106	0.0053
653.371	0.0058
653.637	0.005
653.903	0.0055
654.168	0.005
654.433	0.0049
654.699	0.0044
654.964	0.0024
655.229	0.0013
655.494	0.0016
655.759	-0.0031
656.024	-0
656.289	-0
656.554	0.0031
656.819	0.0044
657.084	0.0051
657.349	0.0053
657.613	0.0048
657.878	0.0032
658.142	0.0026
658.407	0.0031
658.671	0.0031
658.936	0.0037
659.2	0.004
659.464	0.0027
659.728	0.0035
659.992	0.0022
660.256	0.0008
660.52	0.0026
660.784	0.0016
661.048	0.0027
661.312	0.0035
661.575	0.0032
661.839	0.0042
662.103	0.0035
662.366	0.003
662.63	0.003
662.893	0.0027
663.156	0.0035
663.42	0.0044
663.683	0.0032
663.946	0.0044
664.209	0.005
664.472	0.0043
664.735	0.0045
664.998	0.0058
665.261	0.0057
665.524	0.0051
665.786	0.0051
666.049	0.0051
666.312	0.004
666.574	0.0041
666.837	0.005
667.099	0.0043
667.361	0.0054
667.624	0.0033
667.886	0.005
668.148	0.0045
668.41	0.0046
668.672	0.0047
668.934	0.0046
669.196	0.0033
669.458	0.0026
669.72	0.0024
669.982	0.0029
670.243	0.0029
670.505	0.0025
670.766	0.0023
671.028	0.0034
671.289	0.003
671.551	0.0032
671.812	0.0019
672.073	0.0031
672.334	0.0032
672.596	0.0026
672.857	0.0033
673.118	0.0044
673.379	0.0057
673.639	0.005
673.9	0.0054
674.161	0.0044
674.422	0.0051
674.682	0.0041
674.943	0.0048
675.203	0.0048
675.464	0.0042
675.724	0.0032
675.985	0.0034
676.245	0.0032
676.505	0.0026
676.765	0.0021
677.025	0.0038
677.285	0.002
677.545	0.0021
677.805	0.0015
678.065	0.0021
678.325	0.0034
678.585	0.0045
678.844	0.0045
679.104	0.0055
679.363	0.0063
679.623	0.0063
679.882	0.0061
680.142	0.0065
680.401	0.0065
680.66	0.0062
680.919	0.005
681.178	0.0056
681.437	0.0041
681.696	0.0033
681.955	0.006
682.214	0.0057
682.473	0.0061
682.732	0.0052
682.99	0.006
683.249	0.0067
683.508	0.0061
683.766	0.0056
684.024	0.0051
684.283	0.0033
684.541	0.0028
684.799	0.0022
685.058	0.0008
685.316	0.0004
685.574	-0
685.832	0.0015
686.09	0.0021
686.348	0.0012
686.606	0.0011
686.863	0.0014
687.121	0.0012
687.379	0.0016
687.636	-0
687.894	0.0014
688.151	0.0016
688.409	0.0016
688.666	0.0028
688.923	0.0025
689.181	0.0028
689.438	0.0019
689.695	0.0023
689.952	0.002
690.209	0.0015
690.466	0.001
690.723	0.0015
690.979	0.0014
691.236	0.0001
691.493	-0.0011
691.75	0.0002
692.006	0.0009
692.263	0.0002
692.519	0.0006
692.775	-0.0006
693.032	-0.0007
693.288	-0.0016
693.544	-0.001
693.8	0.0012
694.056	0.0004
694.313	0.001
694.568	0.0018
694.824	0.0018
695.08	0.0017
695.336	0.0017
695.592	0.0006
695.847	0.0036
696.103	0.0039
696.359	0.0044
696.614	0.0041
696.869	0.0023
697.125	-0.0001
697.38	0.0008
697.635	0.0024
697.891	0.003
698.146	0.0032
698.401	0.0025
698.656	0.0017
698.911	0.0033
699.166	0.002
699.42	0.0035
699.675	0.0043
699.93	0.0051
700.185	0.0053
700.439	0.0032
700.694	0.003
700.948	0.0028
701.203	0.003
701.457	0.0032
701.711	0.0033
701.965	0.0025
702.22	0.0016
702.474	0.0018
702.728	0.0006
702.982	0.0019
703.236	0.0018
703.49	0.0032
703.743	0.0016
703.997	0.0021
704.251	0.0008
704.504	0.0022
704.758	0.0017
705.012	0.0018
705.265	0.0033
705.518	0.0034
705.772	0.0044
706.025	0.005
706.278	0.0041
706.531	0.003
706.785	0.0015
707.038	0.001
707.291	0.0018
707.543	0.0006
707.796	0.0009
708.049	0.0009
708.302	0.0011
708.555	0.0012
708.807	0.0024
709.06	0.0029
709.312	0.0045
709.565	0.0051
709.817	0.0059
710.069	0.0046
710.322	0.004
710.574	0.0031
710.826	0.0017
711.078	0.0023
711.33	0.0024
711.582	0.0026
711.834	0.0009
712.086	0.0014
712.338	0.0017
712.59	0.0006
712.841	-0.0007
713.093	0.0006
713.344	0.0012
713.596	0.0003
713.847	-0.0003
714.099	0.0012
714.35	0.0019
714.601	0.0004
714.853	0.0001
715.104	0.0007
715.355	-0.0006
715.606	0.0013
715.857	0.0017
716.108	0.002
716.359	0.003
716.609	0.0017
716.86	0.0039
717.111	0.0021
717.361	0.0024
717.612	0.0027
717.863	0.0032
718.113	0.004
718.363	0.0021
718.614	0.0031
718.864	0.0025
719.114	0.0022
719.364	0.0007
719.614	0.0004
719.865	0.0014
720.114	0.0019
720.364	0.0025
720.614	0.0018
720.864	0.0016
721.114	0.0005
721.364	0.0011
721.613	0.0014
721.863	0.0016
722.112	0.0021
722.362	0.0017
722.611	0.0032
722.86	0.0035
723.11	0.0046
723.359	0.0042
723.608	0.0035
723.857	0.0047
724.106	0.0038
724.355	0.0036
724.604	0.0043
724.853	0.0026
725.102	0.0019
725.351	-0.0003
725.599	-0.0009
725.848	-0
726.097	0.0009
726.345	-0.0001
726.594	0.0014
726.842	0.0018
727.09	0.0004
727.339	0.0002
727.587	0.0004
727.835	-0
728.083	-0.0001
728.331	0.0004
728.579	0.0011
728.827	0.0006
729.075	-0.001
729.323	-0.0011
729.571	-0.0011
729.818	-0.0015
730.066	-0.0012
730.314	-0.0001
730.561	-0.0002
730.809	-0.002
731.056	-0.0021
731.303	-0.0011
731.551	-0.0003
731.798	-0.0007
732.045	0.0007
732.292	0.0008
732.539	0.0009
732.786	-0.001
733.033	-0.0012
733.28	-0.0002
733.527	-0.0008
733.774	-0.0015
734.021	-0.0017
734.267	-0.0008
734.514	-0.0015
734.76	-0.0006
735.007	-0.0007
735.253	-0.0002
735.5	0.0011
735.746	0.0018
735.992	0.0021
736.238	0.0022
736.485	0.0024
736.731	0.0031
736.977	0.0015
737.223	0.0008
737.469	0.0012
737.715	0.0028
737.96	0.0034
738.206	0.0027
738.452	0.0032
738.697	0.0033
738.943	0.002
739.189	0.0017
739.434	0.0006
739.679	0.0023
739.925	0.0044
740.17	0.0045
740.415	0.0034
740.66	0.0042
740.906	0.0035
741.151	0.0022
741.396	0.0023
741.641	0.0011
741.886	0.0014
742.13	0.0006
742.375	0.0018
742.62	-0.0006
742.865	0.0001
743.109	0.0009
743.354	-0.0007
743.598	-0.0003
743.843	-0.0017
744.087	-0.002
744.331	-0.0017
744.576	-0.0008
744.82	0.0001
745.064	0.0009
745.308	0.0022
745.552	0.0018
745.796	0.0003
746.04	0.0012
746.284	-0.0005
746.528	0.0007
746.771	0.0012
747.015	0.0013
747.259	0.0003
747.502	0
747.746	0.0015
747.989	0.0021
748.233	0.0036
748.476	0.0028
748.719	0.0026
748.963	0.0019
749.206	0.0009
749.449	0.0002
749.692	0.0001
749.935	0.0016
750.178	0.0012
750.421	0.0012
750.664	0.0019
750.906	0.0022
751.149	0.0015
751.392	0.002
751.635	0.0017
751.877	0.0022
752.12	0.0024
752.362	0.0033
752.604	0.0026
752.847	0.0023
753.089	0.0024
753.331	0.0011
753.573	0.001
753.816	0.0016
754.058	0.0026
754.3	0.0026
754.542	0.0038
754.783	0.0028
755.025	0.0037
755.267	0.003
755.509	0.0024
755.75	0.0004
755.992	0.0016
756.234	0.0019
756.475	0.0019
756.716	0.001
756.958	0.0002
757.199	0.0015
757.44	0.0019
757.682	0.0003
757.923	0.0021
758.164	0.0028
758.405	0.003
758.646	0.004
758.887	0.0032
759.128	0.0027
759.369	0.0017
759.609	0.0012
759.85	0.0009
760.091	0.0019
760.331	0.0021
760.572	0.0018
760.812	0.0009
761.053	0.0017
761.293	0.0029
761.533	0.0034
761.774	0.0038
762.014	0.0038
762.254	0.0026
762.494	0.0027
762.734	0.0027
762.974	0.0026
763.214	0.0033
763.454	0.0023
763.694	0.0024
763.933	0.0044
764.173	0.006
764.413	0.0053
764.652	0.0022
764.892	0.0028
765.131	0.0022
765.371	0.0015
765.61	0.0015
765.849	0.0001
766.089	-0.001
766.328	0.0002
766.567	-0.0006
766.806	-0.0008
767.045	-0.0009
767.284	0.001
767.523	0.0006
767.762	-0.0003
768.001	-0.0005
768.239	-0.0005
768.478	-0.0003
768.717	-0.0003
768.955	-0.0004
769.194	0.0008
769.432	0.0019
769.671	0.0017
769.909	0.0015
770.148	0.0006
770.386	0.0016
770.624	0.0008
770.862	-0.0001
771.1	0
771.338	-0.0007
771.576	0.0006
771.814	0.0013
772.052	0.0001
772.29	0.0025
772.528	0.0015
772.765	0.0005
773.003	0.001
773.24	0.0015
773.478	0.0016
773.716	0.0027
773.953	0.0023
774.19	0.0022
774.428	0.0039
774.665	0.0043
774.902	0.0036
775.139	0.0035
775.376	0.0029
775.613	0.0037
775.85	0.0048
776.087	0.0054
776.324	0.0044
776.561	0.0033
776.798	0.0035
777.034	0.0021
777.271	0.002
777.508	0.0022
777.744	0.0039
777.981	0.0036
778.217	0.0029
778.454	0.0027
778.69	0.0025
778.926	0.002
779.162	0.002
779.399	0.0021
779.635	0.0022
779.871	0.002
780.107	0.0019
780.343	0.0018
780.579	0.002
780.814	0.0033
781.05	0.0028
781.286	0.0016
781.522	0.0008
781.757	0.0012
781.993	0.0013
782.228	0.0005
782.464	0.0016
782.699	0.0013
782.934	0.0013
783.17	0.0008
783.405	0.0024
783.64	0.0018
783.875	0.0007
784.11	0.0007
784.345	0.0019
784.58	0.0018
784.815	0.0022
785.05	0.0019
785.285	0.0011
785.52	0.0009
785.754	0.0013
785.989	0.0024
786.223	0.0035
786.458	0.0042
786.692	0.0044
786.927	0.0056
787.161	0.0051
787.396	0.0052
787.63	0.0043
787.864	0.004
788.098	0.002
788.332	0.0017
788.566	0.0014
788.8	0.0008
789.034	0.0016
789.268	0.0009
789.502	0.0023
789.736	0.0024
789.969	0.0033
790.203	0.0027
790.437	0.0045
790.67	0.0045
790.904	0.0054
791.137	0.0069
791.37	0.0067
791.604	0.0071
791.837	0.0063
792.07	0.0071
792.303	0.0074
792.537	0.0076
792.77	0.0065
793.003	0.0058
793.236	0.0045
793.469	0.004
793.701	0.0034
793.934	0.0023
794.167	0.001
794.4	0.0005
794.632	0.0005
794.865	0.0007
795.097	0.0002
795.33	-0
795.562	0.0008
795.795	0.0006
796.027	0.0011
796.259	0.0023
796.491	0.0016
796.724	0.0025
796.956	0.0022
797.188	0.0028
797.42	0.0022
797.652	0.0024
797.883	0.0023
798.115	0.0032
798.347	0.0027
798.579	0.0027
798.81	0.0034
799.042	0.0035
799.274	0.004
799.505	0.0036
799.737	0.0034
799.968	0.0032
800.199	0.0025
800.431	0.0024
800.662	0.0017
800.893	0.003
801.124	0.0027
801.355	0.0036
801.586	0.0053
801.817	0.0061
802.048	0.0064
802.279	0.0063
802.51	0.0073
802.741	0.0071
802.971	0.0072
803.202	0.0061
803.433	0.0056
803.663	0.0049
803.894	0.004
804.124	0.0045
804.354	0.0045
804.585	0.0065
804.815	0.0052
805.045	0.0071
805.275	0.0059
805.506	0.009
805.736	-0.0995
805.966	-0.1145
806.196	-0.0645
