Data from 03 0.4 mM K2Cr2O7 0.25 M BQDS 1 M H2SO4 5 min_Absorbance_0268.txt Node
Date: Wed Dec 15 15:50:13 EST 2021
User: kwabilab-user
Spectrometer: HDX00518
Trigger mode: 0
Integration Time (sec): 5.000000E-2
Scans to average: 50
Nonlinearity correction enabled: false
Boxcar width: 0
Storing dark spectrum: false
XAxis mode: Wavelengths
Number of Pixels in Spectrum: 2068
>>>>>Begin Spectral Data<<<<<
195.27	-0.2138
195.642	0.2293
196.014	-0.0877
196.386	0.1696
196.758	-0.0497
197.129	0.0177
197.501	-0.0157
197.872	0.0301
198.244	0.012
198.615	0.0514
198.986	0.036
199.357	0.0252
199.728	0.0482
200.099	0.0369
200.47	0.0313
200.841	0.028
201.212	0.0308
201.582	0.03
201.953	0.0248
202.323	0.0232
202.694	0.0139
203.064	0.0222
203.434	0.0235
203.804	0.0158
204.174	0.018
204.544	0.0588
204.914	0.0059
205.284	0.0114
205.653	-0.0011
206.023	0.0318
206.393	0.0334
206.762	0.0363
207.131	0.0279
207.501	0.0356
207.87	0.0276
208.239	0.0288
208.608	0.0437
208.977	0.0094
209.346	0.0195
209.715	0.0513
210.083	0.0228
210.452	0.0145
210.82	0.0352
211.189	0.028
211.557	0.0355
211.925	0.0058
212.294	0.0468
212.662	0.0414
213.03	0.037
213.398	0.0353
213.766	0.0349
214.133	0.0377
214.501	0.0148
214.869	0.0318
215.236	0.0385
215.604	0.0352
215.971	0.0533
216.338	0.0468
216.705	0.0507
217.072	0.0616
217.439	0.0436
217.806	0.0562
218.173	0.0717
218.54	0.0736
218.907	0.082
219.273	0.0706
219.64	0.094
220.006	0.0794
220.373	0.0979
220.739	0.119
221.105	0.1291
221.471	0.1532
221.837	0.1692
222.203	0.1981
222.569	0.185
222.935	0.2282
223.3	0.2363
223.666	0.2563
224.031	0.2938
224.397	0.289
224.762	0.3124
225.127	0.3438
225.493	0.3723
225.858	0.3872
226.223	0.4239
226.588	0.4321
226.952	0.4293
227.317	0.4899
227.682	0.4929
228.046	0.4815
228.411	0.5411
228.775	0.5308
229.14	0.5245
229.504	0.5422
229.868	0.5402
230.232	0.5565
230.596	0.5747
230.96	0.5902
231.324	0.591
231.688	0.5827
232.052	0.5854
232.415	0.6042
232.779	0.5996
233.142	0.6014
233.505	0.6071
233.869	0.6146
234.232	0.6151
234.595	0.6036
234.958	0.5979
235.321	0.6081
235.684	0.6033
236.047	0.5955
236.409	0.593
236.772	0.5855
237.134	0.5869
237.497	0.5894
237.859	0.5866
238.222	0.5853
238.584	0.5751
238.946	0.5648
239.308	0.576
239.67	0.5697
240.032	0.5638
240.393	0.5524
240.755	0.5542
241.117	0.5527
241.478	0.5529
241.84	0.5477
242.201	0.544
242.562	0.5356
242.924	0.5313
243.285	0.5267
243.646	0.5233
244.007	0.5192
244.368	0.521
244.728	0.5202
245.089	0.5126
245.45	0.5099
245.81	0.504
246.171	0.507
246.531	0.5058
246.891	0.504
247.252	0.4966
247.612	0.4957
247.972	0.4934
248.332	0.4856
248.692	0.495
249.051	0.4882
249.411	0.4897
249.771	0.4828
250.13	0.483
250.49	0.4801
250.849	0.4813
251.208	0.4796
251.568	0.4827
251.927	0.4716
252.286	0.4785
252.645	0.4741
253.004	0.4759
253.363	0.4713
253.721	0.4678
254.08	0.4668
254.439	0.4649
254.797	0.4656
255.155	0.4602
255.514	0.4623
255.872	0.4591
256.23	0.4599
256.588	0.4666
256.946	0.4629
257.304	0.46
257.662	0.4639
258.02	0.4569
258.377	0.4553
258.735	0.4528
259.093	0.4527
259.45	0.4446
259.807	0.4506
260.165	0.4505
260.522	0.4496
260.879	0.4431
261.236	0.4427
261.593	0.4395
261.95	0.4414
262.306	0.4446
262.663	0.4373
263.02	0.4365
263.376	0.437
263.733	0.433
264.089	0.4345
264.445	0.4319
264.802	0.4306
265.158	0.4295
265.514	0.4292
265.87	0.4223
266.226	0.4245
266.581	0.4207
266.937	0.4206
267.293	0.4202
267.648	0.42
268.004	0.4153
268.359	0.4201
268.714	0.4102
269.07	0.4086
269.425	0.4041
269.78	0.4042
270.135	0.4055
270.49	0.3978
270.844	0.397
271.199	0.3984
271.554	0.3904
271.908	0.391
272.263	0.3899
272.617	0.3905
272.972	0.3901
273.326	0.3847
273.68	0.3799
274.034	0.3784
274.388	0.3776
274.742	0.3741
275.096	0.3721
275.45	0.3698
275.803	0.3672
276.157	0.3621
276.51	0.3625
276.864	0.3589
277.217	0.3582
277.571	0.3574
277.924	0.3509
278.277	0.3498
278.63	0.343
278.983	0.3406
279.336	0.3379
279.688	0.3346
280.041	0.3355
280.394	0.3261
280.746	0.3253
281.099	0.3222
281.451	0.3182
281.803	0.3169
282.156	0.3125
282.508	0.3116
282.86	0.3072
283.212	0.3067
283.564	0.2996
283.916	0.2952
284.267	0.2951
284.619	0.2939
284.971	0.2891
285.322	0.2852
285.673	0.2828
286.025	0.2787
286.376	0.2757
286.727	0.2718
287.078	0.2698
287.429	0.27
287.78	0.2646
288.131	0.2624
288.482	0.2564
288.833	0.2564
289.183	0.253
289.534	0.2486
289.884	0.2467
290.235	0.2425
290.585	0.2401
290.935	0.2366
291.285	0.2334
291.635	0.2297
291.985	0.2271
292.335	0.2249
292.685	0.2225
293.035	0.2184
293.384	0.2145
293.734	0.2125
294.083	0.2101
294.433	0.2056
294.782	0.2047
295.131	0.2007
295.48	0.1991
295.829	0.1946
296.179	0.1932
296.527	0.1882
296.876	0.1873
297.225	0.1835
297.574	0.1811
297.922	0.1788
298.271	0.176
298.619	0.1725
298.968	0.1722
299.316	0.169
299.664	0.1674
300.012	0.1639
300.36	0.1615
300.708	0.1588
301.056	0.1577
301.404	0.1547
301.752	0.1522
302.099	0.1499
302.447	0.148
302.794	0.1464
303.142	0.1444
303.489	0.142
303.836	0.1402
304.183	0.1388
304.531	0.1373
304.878	0.1344
305.224	0.1332
305.571	0.1317
305.918	0.1302
306.265	0.128
306.611	0.1275
306.958	0.1273
307.304	0.1257
307.651	0.124
307.997	0.1225
308.343	0.1216
308.689	0.1207
309.035	0.1201
309.381	0.1186
309.727	0.1175
310.073	0.1173
310.419	0.1164
310.764	0.1162
311.11	0.1146
311.455	0.1141
311.801	0.1139
312.146	0.1128
312.491	0.1133
312.837	0.1124
313.182	0.1109
313.527	0.1111
313.872	0.1113
314.216	0.111
314.561	0.1103
314.906	0.1105
315.251	0.1109
315.595	0.11
315.94	0.1097
316.284	0.1107
316.628	0.1111
316.972	0.1113
317.317	0.1107
317.661	0.111
318.005	0.1111
318.348	0.1108
318.692	0.1115
319.036	0.1114
319.38	0.1121
319.723	0.1121
320.067	0.1133
320.41	0.1133
320.754	0.1142
321.097	0.1136
321.44	0.1146
321.783	0.1159
322.126	0.1161
322.469	0.1162
322.812	0.118
323.155	0.1183
323.498	0.1183
323.84	0.1185
324.183	0.1201
324.525	0.121
324.868	0.1226
325.21	0.1232
325.552	0.1234
325.894	0.1244
326.236	0.1244
326.578	0.1257
326.92	0.1272
327.262	0.1271
327.604	0.1276
327.946	0.1287
328.287	0.1296
328.629	0.1306
328.97	0.1315
329.312	0.1323
329.653	0.1336
329.994	0.135
330.335	0.1359
330.676	0.1369
331.017	0.1379
331.358	0.1389
331.699	0.14
332.04	0.1406
332.38	0.1422
332.721	0.1427
333.061	0.1436
333.402	0.1444
333.742	0.1448
334.083	0.1462
334.423	0.1473
334.763	0.148
335.103	0.149
335.443	0.1494
335.783	0.1506
336.123	0.1507
336.462	0.1519
336.802	0.1528
337.141	0.1531
337.481	0.154
337.82	0.1558
338.16	0.1563
338.499	0.1574
338.838	0.1571
339.177	0.1586
339.516	0.1596
339.855	0.1599
340.194	0.1608
340.533	0.1606
340.872	0.1612
341.21	0.1624
341.549	0.1625
341.887	0.1634
342.226	0.1631
342.564	0.1643
342.902	0.1649
343.24	0.1647
343.578	0.165
343.916	0.1653
344.254	0.166
344.592	0.166
344.93	0.1666
345.268	0.1664
345.605	0.1665
345.943	0.1665
346.28	0.1669
346.618	0.1666
346.955	0.1676
347.292	0.168
347.629	0.1675
347.966	0.1672
348.303	0.1679
348.64	0.1672
348.977	0.1678
349.314	0.1685
349.65	0.1681
349.987	0.1678
350.324	0.1671
350.66	0.1676
350.996	0.1671
351.333	0.1674
351.669	0.166
352.005	0.1663
352.341	0.1651
352.677	0.1653
353.013	0.1638
353.349	0.1641
353.685	0.1633
354.02	0.1624
354.356	0.1622
354.691	0.1613
355.027	0.1606
355.362	0.1599
355.697	0.159
356.033	0.1588
356.368	0.1582
356.703	0.1579
357.038	0.1572
357.373	0.1565
357.707	0.1568
358.042	0.1548
358.377	0.1542
358.711	0.1546
359.046	0.1532
359.38	0.1524
359.715	0.1521
360.049	0.1505
360.383	0.1498
360.717	0.1484
361.051	0.1484
361.385	0.147
361.719	0.1467
362.053	0.1459
362.387	0.1434
362.72	0.1436
363.054	0.1422
363.387	0.1412
363.721	0.1403
364.054	0.139
364.387	0.1369
364.721	0.136
365.054	0.1347
365.387	0.1336
365.72	0.1335
366.053	0.1329
366.385	0.1299
366.718	0.1297
367.051	0.1284
367.383	0.1281
367.716	0.1276
368.048	0.126
368.381	0.1261
368.713	0.1236
369.045	0.1243
369.377	0.1228
369.709	0.121
370.041	0.1206
370.373	0.1198
370.705	0.1186
371.037	0.1177
371.368	0.116
371.7	0.1142
372.031	0.1145
372.363	0.113
372.694	0.1119
373.025	0.1112
373.356	0.1093
373.688	0.108
374.019	0.1075
374.35	0.105
374.68	0.1047
375.011	0.1027
375.342	0.1021
375.673	0.1002
376.003	0.0983
376.334	0.0984
376.664	0.0971
376.995	0.0958
377.325	0.0946
377.655	0.093
377.985	0.092
378.315	0.0919
378.645	0.0902
378.975	0.09
379.305	0.088
379.635	0.0889
379.964	0.0874
380.294	0.0866
380.623	0.0855
380.953	0.0837
381.282	0.0839
381.611	0.0834
381.941	0.0824
382.27	0.0808
382.599	0.0803
382.928	0.0785
383.257	0.0786
383.585	0.0776
383.914	0.0759
384.243	0.0751
384.571	0.0739
384.9	0.0725
385.228	0.0716
385.557	0.071
385.885	0.0689
386.213	0.0689
386.541	0.0677
386.869	0.0667
387.197	0.0654
387.525	0.0645
387.853	0.0632
388.181	0.0624
388.508	0.0613
388.836	0.061
389.164	0.0599
389.491	0.0587
389.818	0.0571
390.146	0.0572
390.473	0.0563
390.8	0.0561
391.127	0.0546
391.454	0.0543
391.781	0.0539
392.108	0.0533
392.435	0.0515
392.761	0.0508
393.088	0.0509
393.415	0.0502
393.741	0.0504
394.067	0.0504
394.394	0.0497
394.72	0.0488
395.046	0.0471
395.372	0.0468
395.698	0.047
396.024	0.0455
396.35	0.0458
396.676	0.0448
397.001	0.0441
397.327	0.0435
397.653	0.0424
397.978	0.0425
398.303	0.0406
398.629	0.0407
398.954	0.0405
399.279	0.0405
399.604	0.0394
399.929	0.0395
400.254	0.0388
400.579	0.0376
400.904	0.0379
401.229	0.0374
401.553	0.037
401.878	0.0372
402.202	0.0369
402.527	0.0361
402.851	0.0357
403.175	0.0353
403.5	0.0348
403.824	0.034
404.148	0.0343
404.472	0.0342
404.796	0.0341
405.119	0.034
405.443	0.0328
405.767	0.0331
406.09	0.0328
406.414	0.033
406.737	0.0334
407.061	0.0331
407.384	0.0328
407.707	0.0327
408.03	0.032
408.353	0.0324
408.676	0.032
408.999	0.0316
409.322	0.0311
409.645	0.0318
409.968	0.0319
410.29	0.0316
410.613	0.0326
410.935	0.0311
411.258	0.0318
411.58	0.0305
411.902	0.0311
412.224	0.0309
412.546	0.0311
412.868	0.032
413.19	0.0308
413.512	0.0312
413.834	0.031
414.156	0.0315
414.477	0.0305
414.799	0.0308
415.121	0.0309
415.442	0.0305
415.763	0.0299
416.085	0.0312
416.406	0.0303
416.727	0.0309
417.048	0.0313
417.369	0.0314
417.69	0.0301
418.011	0.0308
418.331	0.0303
418.652	0.031
418.973	0.0305
419.293	0.0304
419.614	0.0303
419.934	0.0308
420.254	0.0304
420.574	0.0295
420.895	0.0302
421.215	0.0297
421.535	0.0299
421.855	0.0297
422.174	0.0294
422.494	0.0295
422.814	0.0298
423.134	0.0302
423.453	0.0301
423.773	0.0302
424.092	0.03
424.411	0.0304
424.731	0.0307
425.05	0.0305
425.369	0.0305
425.688	0.0302
426.007	0.0308
426.326	0.0307
426.644	0.0302
426.963	0.0296
427.282	0.0302
427.6	0.0303
427.919	0.03
428.237	0.0302
428.556	0.0303
428.874	0.0302
429.192	0.0297
429.51	0.0301
429.828	0.0297
430.146	0.0301
430.464	0.0294
430.782	0.0298
431.1	0.0298
431.418	0.0298
431.735	0.0298
432.053	0.0299
432.37	0.0301
432.688	0.0295
433.005	0.0293
433.322	0.0306
433.639	0.0313
433.957	0.0306
434.274	0.0305
434.591	0.0305
434.907	0.0298
435.224	0.0303
435.541	0.0298
435.858	0.0306
436.174	0.0305
436.491	0.0294
436.807	0.0293
437.124	0.0293
437.44	0.03
437.756	0.0297
438.072	0.0288
438.388	0.0296
438.704	0.0294
439.02	0.0296
439.336	0.0292
439.652	0.0301
439.968	0.0294
440.283	0.0299
440.599	0.0297
440.914	0.0296
441.23	0.0296
441.545	0.0297
441.86	0.0297
442.175	0.0297
442.491	0.0292
442.806	0.0287
443.121	0.0282
443.435	0.0288
443.75	0.0282
444.065	0.028
444.38	0.0292
444.694	0.0286
445.009	0.0285
445.323	0.0286
445.638	0.0285
445.952	0.0284
446.266	0.0277
446.58	0.0271
446.894	0.028
447.208	0.0278
447.522	0.0273
447.836	0.0275
448.15	0.0273
448.464	0.027
448.777	0.028
449.091	0.0274
449.404	0.0271
449.718	0.0271
450.031	0.0266
450.345	0.0266
450.658	0.027
450.971	0.0266
451.284	0.0265
451.597	0.0272
451.91	0.0266
452.223	0.0264
452.535	0.0263
452.848	0.0268
453.161	0.0261
453.473	0.0263
453.786	0.0263
454.098	0.0262
454.411	0.0263
454.723	0.0266
455.035	0.0254
455.347	0.0252
455.659	0.0255
455.971	0.0257
456.283	0.026
456.595	0.026
456.907	0.0253
457.218	0.026
457.53	0.025
457.841	0.0244
458.153	0.0251
458.464	0.0246
458.776	0.0247
459.087	0.0251
459.398	0.0244
459.709	0.0234
460.02	0.0241
460.331	0.0248
460.642	0.0239
460.953	0.0239
461.263	0.0244
461.574	0.0231
461.885	0.0234
462.195	0.0237
462.506	0.0235
462.816	0.0239
463.126	0.0232
463.437	0.0238
463.747	0.0228
464.057	0.0219
464.367	0.0212
464.677	0.0219
464.987	0.0219
465.296	0.0211
465.606	0.0214
465.916	0.0212
466.225	0.0212
466.535	0.0217
466.844	0.0218
467.154	0.022
467.463	0.0213
467.772	0.0207
468.081	0.0213
468.39	0.0213
468.699	0.0212
469.008	0.0211
469.317	0.0206
469.626	0.0208
469.935	0.02
470.243	0.0209
470.552	0.0196
470.86	0.0209
471.169	0.0197
471.477	0.0193
471.785	0.0198
472.093	0.0191
472.402	0.0194
472.71	0.0186
473.018	0.0184
473.326	0.0189
473.633	0.0194
473.941	0.0182
474.249	0.0192
474.556	0.0178
474.864	0.0186
475.171	0.0186
475.479	0.0176
475.786	0.0179
476.094	0.0176
476.401	0.0182
476.708	0.0174
477.015	0.0167
477.322	0.0165
477.629	0.0167
477.936	0.0172
478.242	0.0164
478.549	0.0164
478.856	0.0164
479.162	0.0165
479.469	0.016
479.775	0.0161
480.081	0.0159
480.388	0.0154
480.694	0.0156
481	0.0157
481.306	0.0155
481.612	0.0161
481.918	0.0152
482.224	0.0154
482.53	0.0152
482.835	0.0155
483.141	0.0154
483.446	0.0147
483.752	0.0142
484.057	0.0141
484.363	0.0143
484.668	0.0147
484.973	0.0138
485.278	0.0127
485.583	0.0125
485.888	0.0134
486.193	0.0116
486.498	0.0126
486.803	0.0126
487.107	0.0117
487.412	0.0107
487.717	0.0118
488.021	0.0122
488.325	0.0121
488.63	0.0119
488.934	0.0115
489.238	0.0116
489.542	0.0118
489.846	0.0118
490.15	0.012
490.454	0.0122
490.758	0.0113
491.062	0.0106
491.366	0.0113
491.669	0.011
491.973	0.0112
492.276	0.0112
492.58	0.0104
492.883	0.0107
493.186	0.0102
493.489	0.0111
493.792	0.0098
494.096	0.0097
494.399	0.0096
494.701	0.0093
495.004	0.0091
495.307	0.0095
495.61	0.0096
495.912	0.0098
496.215	0.0091
496.517	0.0092
496.82	0.0086
497.122	0.0084
497.424	0.0092
497.727	0.0094
498.029	0.0086
498.331	0.0096
498.633	0.0087
498.935	0.0082
499.237	0.0093
499.538	0.0081
499.84	0.0086
500.142	0.0081
500.443	0.0085
500.745	0.0082
501.046	0.0085
501.348	0.0077
501.649	0.0071
501.95	0.0074
502.251	0.008
502.552	0.0072
502.853	0.0078
503.154	0.0078
503.455	0.0068
503.756	0.0076
504.057	0.0065
504.357	0.0073
504.658	0.0071
504.958	0.006
505.259	0.0061
505.559	0.0052
505.859	0.0055
506.16	0.0058
506.46	0.006
506.76	0.0059
507.06	0.0043
507.36	0.0056
507.66	0.007
507.96	0.0071
508.259	0.0066
508.559	0.0052
508.859	0.0063
509.158	0.0063
509.457	0.0044
509.757	0.0056
510.056	0.0048
510.355	0.0053
510.655	0.0047
510.954	0.0039
511.253	0.0057
511.552	0.0054
511.851	0.0059
512.149	0.0049
512.448	0.0043
512.747	0.0053
513.045	0.0043
513.344	0.0049
513.642	0.0057
513.941	0.0055
514.239	0.0047
514.537	0.0037
514.836	0.0041
515.134	0.0046
515.432	0.0046
515.73	0.0043
516.028	0.0043
516.326	0.0039
516.623	0.004
516.921	0.0042
517.219	0.0049
517.516	0.0039
517.814	0.0052
518.111	0.0045
518.409	0.0053
518.706	0.0047
519.003	0.0033
519.3	0.0039
519.597	0.0048
519.894	0.0028
520.191	0.0054
520.488	0.0059
520.785	0.0035
521.082	0.0043
521.378	0.0049
521.675	0.0037
521.971	0.0038
522.268	0.0045
522.564	0.0045
522.861	0.0052
523.157	0.0046
523.453	0.0042
523.749	0.0047
524.045	0.0037
524.341	0.0044
524.637	0.0043
524.933	0.0053
525.229	0.0035
525.524	0.0035
525.82	0.0037
526.115	0.0037
526.411	0.0038
526.706	0.0034
527.002	0.0038
527.297	0.0025
527.592	0.0042
527.887	0.003
528.182	0.0026
528.477	0.0037
528.772	0.0031
529.067	0.0038
529.362	0.0036
529.657	0.0042
529.951	0.0035
530.246	0.0024
530.54	0.0041
530.835	0.003
531.129	0.0041
531.423	0.0031
531.718	0.0032
532.012	0.0036
532.306	0.0037
532.6	0.0034
532.894	0.0038
533.188	0.0033
533.482	0.0043
533.775	0.0036
534.069	0.0033
534.363	0.0036
534.656	0.0034
534.95	0.0032
535.243	0.0028
535.536	0.0033
535.83	0.0027
536.123	0.0016
536.416	0.0026
536.709	0.003
537.002	0.0038
537.295	0.003
537.588	0.004
537.881	0.0024
538.173	0.0039
538.466	0.0033
538.759	0.0034
539.051	0.0041
539.344	0.0042
539.636	0.0034
539.928	0.0049
540.22	0.0022
540.513	0.0029
540.805	0.0039
541.097	0.0036
541.389	0.0031
541.681	0.0032
541.972	0.0024
542.264	0.0036
542.556	0.0033
542.847	0.0036
543.139	0.0032
543.431	0.0019
543.722	0.0017
544.013	0.0032
544.305	0.0031
544.596	0.0036
544.887	0.0035
545.178	0.0044
545.469	0.0032
545.76	0.0032
546.051	0.0046
546.342	0.0036
546.632	0.0029
546.923	0.0039
547.214	0.0025
547.504	0.0036
547.795	0.0027
548.085	0.0042
548.375	0.0039
548.666	0.004
548.956	0.0038
549.246	0.0054
549.536	0.0042
549.826	0.0051
550.116	0.0049
550.406	0.0044
550.695	0.0048
550.985	0.0046
551.275	0.0047
551.564	0.0054
551.854	0.0053
552.143	0.0043
552.433	0.0047
552.722	0.0044
553.011	0.0046
553.3	0.0045
553.589	0.0049
553.879	0.0045
554.167	0.0038
554.456	0.004
554.745	0.0045
555.034	0.0049
555.323	0.0035
555.611	0.0044
555.9	0.0036
556.188	0.0031
556.477	0.0029
556.765	0.0038
557.053	0.0046
557.342	0.0038
557.63	0.0041
557.918	0.0041
558.206	0.0051
558.494	0.0054
558.782	0.005
559.069	0.0053
559.357	0.0042
559.645	0.0046
559.932	0.0037
560.22	0.0043
560.507	0.0024
560.795	0.0021
561.082	0.0022
561.37	0.0036
561.657	0.0024
561.944	0.0039
562.231	0.0039
562.518	0.004
562.805	0.005
563.092	0.003
563.379	0.0035
563.665	0.0033
563.952	0.0047
564.239	0.0048
564.525	0.0041
564.811	0.0035
565.098	0.0049
565.384	0.0037
565.67	0.0041
565.957	0.0044
566.243	0.0057
566.529	0.0049
566.815	0.0054
567.101	0.0047
567.387	0.0042
567.672	0.0045
567.958	0.0037
568.244	0.0025
568.529	0.0042
568.815	0.0034
569.1	0.0038
569.386	0.0036
569.671	0.0032
569.956	0.0033
570.242	0.0031
570.527	0.0032
570.812	0.0021
571.097	0.0027
571.382	0.0019
571.666	0.0027
571.951	0.0024
572.236	0.0021
572.521	0.0026
572.805	0.004
573.09	0.003
573.374	0.0025
573.659	0.0019
573.943	0.0022
574.227	0.0033
574.511	0.0026
574.795	0.0034
575.079	0.003
575.363	0.0024
575.647	0.0032
575.931	0.0035
576.215	0.0042
576.499	0.003
576.782	0.0022
577.066	0.0023
577.349	0.0035
577.633	0.0032
577.916	0.003
578.2	0.0029
578.483	0.0031
578.766	0.0041
579.049	0.0032
579.332	0.0027
579.615	0.0025
579.898	0.0024
580.181	0.0033
580.464	0.0031
580.746	0.0031
581.029	0.0038
581.312	0.002
581.594	0.0013
581.877	0.0023
582.159	0.003
582.441	0.0024
582.724	0.0035
583.006	0.0042
583.288	0.0033
583.57	0.0034
583.852	0.0044
584.134	0.0038
584.416	0.0028
584.697	0.0025
584.979	0.0028
585.261	0.0026
585.542	0.0027
585.824	0.0035
586.105	0.0033
586.387	0.0032
586.668	0.0028
586.949	0.0044
587.231	0.004
587.512	0.0035
587.793	0.0028
588.074	0.0035
588.355	0.0033
588.636	0.0028
588.916	0.0044
589.197	0.0029
589.478	0.0044
589.758	0.003
590.039	0.0025
590.319	0.0024
590.6	0.0028
590.88	0.0023
591.16	0.0027
591.441	0.0037
591.721	0.0029
592.001	0.0027
592.281	0.0028
592.561	0.0032
592.841	0.0028
593.12	0.0021
593.4	0.0026
593.68	0.0031
593.959	0.0024
594.239	0.0036
594.518	0.0047
594.798	0.0045
595.077	0.003
595.356	0.0035
595.636	0.0034
595.915	0.0029
596.194	0.0033
596.473	0.0037
596.752	0.0035
597.031	0.0033
597.31	0.0024
597.588	0.0025
597.867	0.0027
598.146	0.0026
598.424	0.0022
598.703	0.0024
598.981	0.0018
599.259	0.0016
599.538	0.003
599.816	0.0036
600.094	0.003
600.372	0.0031
600.65	0.0037
600.928	0.0034
601.206	0.0031
601.484	0.0026
601.762	0.0042
602.04	0.004
602.317	0.0041
602.595	0.0047
602.872	0.0041
603.15	0.0045
603.427	0.0023
603.704	0.002
603.982	0.0019
604.259	0.0017
604.536	0.002
604.813	0.0031
605.09	0.002
605.367	0.0019
605.644	0.0012
605.921	0.0016
606.197	0.0016
606.474	0.0023
606.751	0.0019
607.027	0.0018
607.304	0.0019
607.58	0.0025
607.856	0.0031
608.133	0.0039
608.409	0.0039
608.685	0.0039
608.961	0.0043
609.237	0.004
609.513	0.005
609.789	0.0028
610.065	0.0026
610.341	0.0024
610.616	0.0029
610.892	0.0028
611.167	0.0032
611.443	0.0032
611.718	0.0022
611.994	0.0023
612.269	0.0024
612.544	0.003
612.819	0.0021
613.095	0.0024
613.37	0.0014
613.645	0.0014
613.919	0.003
614.194	0.0023
614.469	0.0026
614.744	0.0022
615.019	0.0014
615.293	0.0016
615.568	0.0025
615.842	0.0017
616.116	0.0023
616.391	0.002
616.665	0.0016
616.939	0.001
617.213	0.0021
617.488	0.0026
617.762	0.0027
618.035	0.0035
618.309	0.0025
618.583	0.0032
618.857	0.0039
619.131	0.0034
619.404	0.0028
619.678	0.0039
619.951	0.0035
620.225	0.0016
620.498	0.0016
620.771	0.0016
621.045	0.0024
621.318	0.0026
621.591	0.0029
621.864	0.001
622.137	0.0013
622.41	0.0019
622.683	0.0022
622.956	0.0026
623.228	0.0029
623.501	0.0032
623.774	0.0043
624.046	0.0033
624.319	0.0029
624.591	0.0029
624.863	0.0035
625.136	0.0037
625.408	0.0043
625.68	0.0037
625.952	0.003
626.224	0.0042
626.496	0.0042
626.768	0.0043
627.04	0.0045
627.311	0.0034
627.583	0.0043
627.855	0.0045
628.126	0.0037
628.398	0.0037
628.669	0.0037
628.941	0.0023
629.212	0.002
629.483	0.0026
629.755	0.0022
630.026	0.003
630.297	0.0025
630.568	0.0036
630.839	0.0044
631.11	0.0053
631.38	0.005
631.651	0.0044
631.922	0.004
632.192	0.0038
632.463	0.004
632.733	0.0036
633.004	0.004
633.274	0.0028
633.545	0.0045
633.815	0.0052
634.085	0.0053
634.355	0.0048
634.625	0.0052
634.895	0.0047
635.165	0.0035
635.435	0.0037
635.705	0.0031
635.974	0.004
636.244	0.0023
636.514	0.0018
636.783	0.0021
637.053	0.0033
637.322	0.0025
637.591	0.0016
637.861	0.0007
638.13	0.0027
638.399	0.0037
638.668	0.0034
638.937	0.004
639.206	0.0042
639.475	0.0054
639.744	0.0042
640.013	0.0049
640.281	0.0043
640.55	0.0036
640.819	0.0034
641.087	0.0035
641.356	0.0039
641.624	0.0037
641.892	0.0047
642.161	0.0055
642.429	0.0049
642.697	0.0049
642.965	0.0046
643.233	0.0031
643.501	0.0034
643.769	0.0031
644.037	0.0035
644.305	0.0029
644.572	0.0032
644.84	0.0025
645.108	0.0034
645.375	0.0036
645.643	0.0029
645.91	0.0034
646.177	0.003
646.445	0.0028
646.712	0.003
646.979	0.002
647.246	0.0041
647.513	0.0034
647.78	0.0031
648.047	0.0006
648.314	0.0012
648.58	-0
648.847	-0.0001
649.114	-0.0013
649.38	-0
649.647	0.0006
649.913	0.0007
650.18	0.0021
650.446	0.0029
650.712	0.0032
650.978	0.0042
651.245	0.0044
651.511	0.0051
651.777	0.0047
652.043	0.0033
652.309	0.0037
652.574	0.0035
652.84	0.0044
653.106	0.0045
653.371	0.0048
653.637	0.0054
653.903	0.0049
654.168	0.0054
654.433	0.0052
654.699	0.0043
654.964	0.0035
655.229	0.003
655.494	0.0028
655.759	-0
656.024	0.0005
656.289	-0
656.554	0.0007
656.819	0.0034
657.084	0.0049
657.349	0.0052
657.613	0.0049
657.878	0.0037
658.142	0.0038
658.407	0.0025
658.671	0.0036
658.936	0.0033
659.2	0.0042
659.464	0.0038
659.728	0.0038
659.992	0.0027
660.256	0.0019
660.52	0.0021
660.784	0.0026
661.048	0.0031
661.312	0.0039
661.575	0.0046
661.839	0.0051
662.103	0.0043
662.366	0.0036
662.63	0.0043
662.893	0.003
663.156	0.0035
663.42	0.0049
663.683	0.0039
663.946	0.0054
664.209	0.0056
664.472	0.0043
664.735	0.0052
664.998	0.0061
665.261	0.007
665.524	0.006
665.786	0.0055
666.049	0.0056
666.312	0.0052
666.574	0.0057
666.837	0.0058
667.099	0.0045
667.361	0.0054
667.624	0.0048
667.886	0.0048
668.148	0.0053
668.41	0.006
668.672	0.006
668.934	0.0061
669.196	0.0047
669.458	0.0037
669.72	0.003
669.982	0.0034
670.243	0.0036
670.505	0.0034
670.766	0.0031
671.028	0.0037
671.289	0.0042
671.551	0.0042
671.812	0.0016
672.073	0.0038
672.334	0.0037
672.596	0.0037
672.857	0.0035
673.118	0.0055
673.379	0.0061
673.639	0.0054
673.9	0.0051
674.161	0.0056
674.422	0.0059
674.682	0.0061
674.943	0.0049
675.203	0.0055
675.464	0.0053
675.724	0.0039
675.985	0.0031
676.245	0.0027
676.505	0.0029
676.765	0.0027
677.025	0.0038
677.285	0.0032
677.545	0.0035
677.805	0.0025
678.065	0.0028
678.325	0.0041
678.585	0.005
678.844	0.0043
679.104	0.0054
679.363	0.0063
679.623	0.0052
679.882	0.0062
680.142	0.0057
680.401	0.0062
680.66	0.0067
680.919	0.0057
681.178	0.0061
681.437	0.0047
681.696	0.0036
681.955	0.0063
682.214	0.0063
682.473	0.0059
682.732	0.0041
682.99	0.0065
683.249	0.0066
683.508	0.0057
683.766	0.0054
684.024	0.0052
684.283	0.0035
684.541	0.0035
684.799	0.0025
685.058	0.0009
685.316	0.0003
685.574	-0.0003
685.832	0.001
686.09	0.0014
686.348	0.0009
686.606	0.0025
686.863	0.0019
687.121	0.0029
687.379	0.0015
687.636	0.0014
687.894	0.0019
688.151	0.0021
688.409	0.0033
688.666	0.0031
688.923	0.0026
689.181	0.0031
689.438	0.0025
689.695	0.0026
689.952	0.0028
690.209	0.0022
690.466	0.0022
690.723	0.0029
690.979	0.003
691.236	0.0017
691.493	-0.0003
691.75	0.0008
692.006	0.0011
692.263	0.0004
692.519	0.0005
692.775	-0.0013
693.032	-0.0009
693.288	-0.0016
693.544	-0.0008
693.8	0.0011
694.056	0.0011
694.313	0.0013
694.568	0.0021
694.824	0.0006
695.08	0.0011
695.336	0.0016
695.592	0.0004
695.847	0.002
696.103	0.0036
696.359	0.0044
696.614	0.0044
696.869	0.003
697.125	0.0005
697.38	0.0007
697.635	0.0022
697.891	0.0034
698.146	0.0021
698.401	0.0033
698.656	0.0021
698.911	0.0016
699.166	0.0024
699.42	0.0043
699.675	0.0042
699.93	0.005
700.185	0.0052
700.439	0.0037
700.694	0.0028
700.948	0.0031
701.203	0.0024
701.457	0.0035
701.711	0.0028
701.965	0.0023
702.22	0.0015
702.474	0.001
702.728	0.0014
702.982	0.0016
703.236	0.0026
703.49	0.0036
703.743	0.0025
703.997	0.0036
704.251	0.002
704.504	0.0029
704.758	0.0012
705.012	0.0017
705.265	0.0027
705.518	0.0033
705.772	0.0035
706.025	0.0047
706.278	0.0032
706.531	0.0039
706.785	0.0015
707.038	0.001
707.291	0.0017
707.543	0.0012
707.796	0.0012
708.049	0.0011
708.302	0.0007
708.555	0.0014
708.807	0.0023
709.06	0.0027
709.312	0.0038
709.565	0.004
709.817	0.006
710.069	0.0042
710.322	0.0043
710.574	0.0035
710.826	0.0029
711.078	0.0022
711.33	0.0018
711.582	0.0023
711.834	0.0009
712.086	0.0018
712.338	0.0015
712.59	0.0011
712.841	0.0002
713.093	-0.0005
713.344	0.0004
713.596	0.0008
713.847	-0.0005
714.099	0.0007
714.35	0.0019
714.601	0.0008
714.853	-0.0002
715.104	0.0002
715.355	0.0003
715.606	0.0015
715.857	0.0023
716.108	0.0031
716.359	0.0035
716.609	0.0019
716.86	0.0036
717.111	0.0037
717.361	0.0027
717.612	0.0026
717.863	0.0032
718.113	0.0038
718.363	0.0023
718.614	0.0028
718.864	0.0041
719.114	0.0035
719.364	0.0024
719.614	0.0019
719.865	0.0024
720.114	0.0039
720.364	0.0042
720.614	0.003
720.864	0.0032
721.114	0.0018
721.364	0.0015
721.613	0.0015
721.863	0.0014
722.112	0.002
722.362	0.0019
722.611	0.0026
722.86	0.0034
723.11	0.0042
723.359	0.003
723.608	0.0032
723.857	0.0039
724.106	0.0023
724.355	0.002
724.604	0.0021
724.853	0.0011
725.102	0.0003
725.351	-0.0006
725.599	-0.0017
725.848	-0.0008
726.097	0.0007
726.345	0.0002
726.594	0.0006
726.842	0.0013
727.09	0.0005
727.339	0.0013
727.587	0.0003
727.835	-0.0002
728.083	-0.0003
728.331	0.0008
728.579	0.0018
728.827	-0.0002
729.075	-0.0003
729.323	-0.0006
729.571	-0.0014
729.818	-0.0013
730.066	-0.0015
730.314	-0.0005
730.561	-0.0008
730.809	-0.0013
731.056	-0.002
731.303	-0.0023
731.551	-0.0017
731.798	-0.0014
732.045	-0
732.292	-0.0007
732.539	-0.0001
732.786	-0.0007
733.033	-0.0012
733.28	-0.0005
733.527	-0.0008
733.774	-0.0021
734.021	-0.0013
734.267	-0.0001
734.514	-0.0002
734.76	-0.0005
735.007	-0.0002
735.253	0.0011
735.5	0.002
735.746	0.0028
735.992	0.0021
736.238	0.0023
736.485	0.0021
736.731	0.0031
736.977	0.0022
737.223	0.0011
737.469	0.0012
737.715	0.0024
737.96	0.0037
738.206	0.0037
738.452	0.0033
738.697	0.0034
738.943	0.0012
739.189	0.0023
739.434	0.0005
739.679	0.0012
739.925	0.0035
740.17	0.0042
740.415	0.0037
740.66	0.0034
740.906	0.0031
741.151	0.0029
741.396	0.0025
741.641	0.0021
741.886	0.0016
742.13	0.001
742.375	0.0016
742.62	0.0001
742.865	-0.0004
743.109	0.0006
743.354	0.0001
743.598	0
743.843	-0.0007
744.087	-0.0016
744.331	-0
744.576	0.0006
744.82	0.0008
745.064	0.0016
745.308	0.0021
745.552	0.0022
745.796	0.0009
746.04	0.0007
746.284	0.0003
746.528	0.001
746.771	0.0017
747.015	0.002
747.259	0.0003
747.502	0.0015
747.746	0.0021
747.989	0.0026
748.233	0.0042
748.476	0.0038
748.719	0.0022
748.963	0.0019
749.206	0.0017
749.449	0.0008
749.692	-0.0002
749.935	0.0015
750.178	0.0012
750.421	0.0009
750.664	0.0013
750.906	0.0015
751.149	0.0004
751.392	0.0017
751.635	0.0018
751.877	0.0025
752.12	0.0027
752.362	0.0025
752.604	0.003
752.847	0.0015
753.089	0.0018
753.331	0.0018
753.573	0.0018
753.816	0.0025
754.058	0.0024
754.3	0.0029
754.542	0.0037
754.783	0.0035
755.025	0.0033
755.267	0.0033
755.509	0.0028
755.75	0.0014
755.992	0.0018
756.234	0.0026
756.475	0.0037
756.716	0.0027
756.958	0.002
757.199	0.0024
757.44	0.0031
757.682	0.0021
757.923	0.0026
758.164	0.0034
758.405	0.0034
758.646	0.0035
758.887	0.0038
759.128	0.004
759.369	0.0033
759.609	0.0031
759.85	0.0026
760.091	0.003
760.331	0.0033
760.572	0.0028
760.812	0.002
761.053	0.0025
761.293	0.0038
761.533	0.0039
761.774	0.004
762.014	0.005
762.254	0.0043
762.494	0.0039
762.734	0.0036
762.974	0.0033
763.214	0.0026
763.454	0.0034
763.694	0.0028
763.933	0.0038
764.173	0.0056
764.413	0.0052
764.652	0.0023
764.892	0.0014
765.131	0.0013
765.371	0.001
765.61	0.0015
765.849	0
766.089	-0.0003
766.328	0.001
766.567	-0.0004
766.806	0.0004
767.045	-0.0003
767.284	0.0005
767.523	0.0007
767.762	0.0009
768.001	0.0009
768.239	0.0002
768.478	-0.0006
768.717	-0.0002
768.955	0.0006
769.194	0.0006
769.432	0.0012
769.671	0.0017
769.909	0.0017
770.148	0.001
770.386	0.0012
770.624	0.0008
770.862	-0.0007
771.1	-0.0005
771.338	-0.0008
771.576	-0.0007
771.814	0.0009
772.052	0.0008
772.29	0.0024
772.528	0.0017
772.765	0.0016
773.003	0.0015
773.24	0.0024
773.478	0.0023
773.716	0.0035
773.953	0.0036
774.19	0.0032
774.428	0.004
774.665	0.0042
774.902	0.0044
775.139	0.0043
775.376	0.0031
775.613	0.0049
775.85	0.0057
776.087	0.0062
776.324	0.006
776.561	0.005
776.798	0.0042
777.034	0.0037
777.271	0.0036
777.508	0.0031
777.744	0.0047
777.981	0.0046
778.217	0.0045
778.454	0.0038
778.69	0.0042
778.926	0.0035
779.162	0.0035
779.399	0.0042
779.635	0.0036
779.871	0.0036
780.107	0.0037
780.343	0.0028
780.579	0.0028
780.814	0.0035
781.05	0.0037
781.286	0.0028
781.522	0.0017
781.757	0.0015
781.993	0.0016
782.228	0.001
782.464	0.0017
782.699	0.0021
782.934	0.002
783.17	0.0015
783.405	0.0027
783.64	0.0021
783.875	0.0009
784.11	0.0017
784.345	0.0025
784.58	0.0028
784.815	0.0028
785.05	0.0023
785.285	0.002
785.52	0.0024
785.754	0.0026
785.989	0.0029
786.223	0.0038
786.458	0.0048
786.692	0.0051
786.927	0.0056
787.161	0.0054
787.396	0.0053
787.63	0.0053
787.864	0.0042
788.098	0.003
788.332	0.0027
788.566	0.0023
788.8	0.0022
789.034	0.0025
789.268	0.0023
789.502	0.0026
789.736	0.0029
789.969	0.003
790.203	0.0034
790.437	0.0039
790.67	0.004
790.904	0.0059
791.137	0.0068
791.37	0.0064
791.604	0.0071
791.837	0.0076
792.07	0.0077
792.303	0.0079
792.537	0.0087
792.77	0.0078
793.003	0.0074
793.236	0.006
793.469	0.0047
793.701	0.0038
793.934	0.0026
794.167	0.0021
794.4	0.0015
794.632	0.0009
794.865	0.0006
795.097	0.0009
795.33	0.0019
795.562	0.0015
795.795	0.001
796.027	0.0015
796.259	0.0023
796.491	0.0021
796.724	0.0026
796.956	0.0027
797.188	0.0027
797.42	0.0025
797.652	0.0026
797.883	0.0028
798.115	0.003
798.347	0.0038
798.579	0.0034
798.81	0.0035
799.042	0.0032
799.274	0.0043
799.505	0.0033
799.737	0.0031
799.968	0.0026
800.199	0.0015
800.431	0.0028
800.662	0.0023
800.893	0.0028
801.124	0.003
801.355	0.0037
801.586	0.0041
801.817	0.0069
802.048	0.0066
802.279	0.0061
802.51	0.0077
802.741	0.0085
802.971	0.007
803.202	0.006
803.433	0.0055
803.663	0.0041
803.894	0.0042
804.124	0.0046
804.354	0.0049
804.585	0.0061
804.815	0.0064
805.045	0.006
805.275	0.0061
805.506	0.0131
805.736	-0.0268
805.966	-0.166
806.196	-0.1775
