Data from 03 0.4 mM K2Cr2O7 0.25 M BQDS 1 M H2SO4 5 min_Absorbance_0228.txt Node
Date: Wed Dec 15 12:30:13 EST 2021
User: kwabilab-user
Spectrometer: HDX00518
Trigger mode: 0
Integration Time (sec): 5.000000E-2
Scans to average: 50
Nonlinearity correction enabled: false
Boxcar width: 0
Storing dark spectrum: false
XAxis mode: Wavelengths
Number of Pixels in Spectrum: 2068
>>>>>Begin Spectral Data<<<<<
195.27	-0.2359
195.642	-0.1353
196.014	-0.1325
196.386	-0.1503
196.758	-0.0929
197.129	-0.0058
197.501	-0.0319
197.872	0.0029
198.244	0.0055
198.615	0.0301
198.986	0.0184
199.357	0.0269
199.728	0.0331
200.099	0.01
200.47	0.0095
200.841	0.0105
201.212	0.0096
201.582	0.038
201.953	0.0297
202.323	0.0216
202.694	0.0149
203.064	0.029
203.434	0.0081
203.804	0.0143
204.174	0.0115
204.544	0.036
204.914	0.02
205.284	0.0169
205.653	-0.0046
206.023	0.0289
206.393	0.0164
206.762	0.0022
207.131	0.0382
207.501	0.0103
207.87	0.0448
208.239	0.0214
208.608	0.0129
208.977	0.0125
209.346	0.0233
209.715	0.0314
210.083	0.0151
210.452	0.0248
210.82	0.0141
211.189	0.0022
211.557	0.032
211.925	0.009
212.294	0.0336
212.662	0.036
213.03	0.0257
213.398	0.0005
213.766	-0.005
214.133	0.0183
214.501	0.0089
214.869	0.0128
215.236	0.0087
215.604	0.0465
215.971	0.047
216.338	0.0265
216.705	0.0344
217.072	0.0448
217.439	0.0319
217.806	0.0377
218.173	0.0731
218.54	0.0546
218.907	0.0677
219.273	0.058
219.64	0.0616
220.006	0.0645
220.373	0.0896
220.739	0.1217
221.105	0.1326
221.471	0.1327
221.837	0.15
222.203	0.1948
222.569	0.1786
222.935	0.2045
223.3	0.2145
223.666	0.2611
224.031	0.262
224.397	0.2841
224.762	0.312
225.127	0.3412
225.493	0.354
225.858	0.3749
226.223	0.406
226.588	0.4147
226.952	0.4246
227.317	0.4681
227.682	0.4773
228.046	0.4723
228.411	0.5158
228.775	0.5222
229.14	0.5319
229.504	0.529
229.868	0.5497
230.232	0.5548
230.596	0.5633
230.96	0.578
231.324	0.5709
231.688	0.572
232.052	0.5982
232.415	0.59
232.779	0.5908
233.142	0.6023
233.505	0.6065
233.869	0.5997
234.232	0.6042
234.595	0.606
234.958	0.6071
235.321	0.6048
235.684	0.6018
236.047	0.5808
236.409	0.5849
236.772	0.59
237.134	0.5883
237.497	0.5806
237.859	0.5918
238.222	0.5807
238.584	0.5679
238.946	0.5744
239.308	0.5722
239.67	0.5683
240.032	0.564
240.393	0.5609
240.755	0.5565
241.117	0.5585
241.478	0.5524
241.84	0.548
242.201	0.5411
242.562	0.5423
242.924	0.5395
243.285	0.5247
243.646	0.5305
244.007	0.527
244.368	0.5305
244.728	0.52
245.089	0.5183
245.45	0.5082
245.81	0.5102
246.171	0.5064
246.531	0.5059
246.891	0.5029
247.252	0.4992
247.612	0.504
247.972	0.4976
248.332	0.4992
248.692	0.4935
249.051	0.4961
249.411	0.4919
249.771	0.4872
250.13	0.4898
250.49	0.4819
250.849	0.4829
251.208	0.4847
251.568	0.4849
251.927	0.477
252.286	0.4869
252.645	0.4781
253.004	0.4856
253.363	0.4763
253.721	0.4791
254.08	0.4771
254.439	0.4744
254.797	0.4729
255.155	0.4717
255.514	0.4687
255.872	0.4677
256.23	0.4701
256.588	0.4717
256.946	0.4701
257.304	0.4711
257.662	0.4732
258.02	0.4691
258.377	0.4626
258.735	0.465
259.093	0.4578
259.45	0.4581
259.807	0.4632
260.165	0.4619
260.522	0.4576
260.879	0.4566
261.236	0.4574
261.593	0.4533
261.95	0.4555
262.306	0.4489
262.663	0.4537
263.02	0.4499
263.376	0.4436
263.733	0.4447
264.089	0.4443
264.445	0.4472
264.802	0.4421
265.158	0.4368
265.514	0.4353
265.87	0.4375
266.226	0.433
266.581	0.4364
266.937	0.4337
267.293	0.4279
267.648	0.4283
268.004	0.425
268.359	0.424
268.714	0.4207
269.07	0.4175
269.425	0.4187
269.78	0.4135
270.135	0.4162
270.49	0.4097
270.844	0.4135
271.199	0.4064
271.554	0.4041
271.908	0.4015
272.263	0.4008
272.617	0.3971
272.972	0.3923
273.326	0.3942
273.68	0.388
274.034	0.3857
274.388	0.3878
274.742	0.3836
275.096	0.3806
275.45	0.3782
275.803	0.3742
276.157	0.3698
276.51	0.3671
276.864	0.3663
277.217	0.3646
277.571	0.3661
277.924	0.3546
278.277	0.3574
278.63	0.351
278.983	0.35
279.336	0.3451
279.688	0.3436
280.041	0.3359
280.394	0.3354
280.746	0.3317
281.099	0.3292
281.451	0.3276
281.803	0.3233
282.156	0.3198
282.508	0.3166
282.86	0.3145
283.212	0.3107
283.564	0.3055
283.916	0.3019
284.267	0.2992
284.619	0.2988
284.971	0.2953
285.322	0.2942
285.673	0.2891
286.025	0.2842
286.376	0.2828
286.727	0.2778
287.078	0.2741
287.429	0.274
287.78	0.2683
288.131	0.267
288.482	0.2625
288.833	0.2597
289.183	0.2572
289.534	0.2525
289.884	0.2507
290.235	0.2459
290.585	0.2434
290.935	0.2415
291.285	0.2375
291.635	0.233
291.985	0.2329
292.335	0.2292
292.685	0.2265
293.035	0.2224
293.384	0.2199
293.734	0.2161
294.083	0.2133
294.433	0.211
294.782	0.2085
295.131	0.2044
295.48	0.2023
295.829	0.1986
296.179	0.197
296.527	0.1938
296.876	0.1908
297.225	0.1878
297.574	0.1859
297.922	0.1822
298.271	0.1789
298.619	0.176
298.968	0.1744
299.316	0.1729
299.664	0.1697
300.012	0.1672
300.36	0.1644
300.708	0.1624
301.056	0.1598
301.404	0.1588
301.752	0.1561
302.099	0.154
302.447	0.1514
302.794	0.1498
303.142	0.1478
303.489	0.1444
303.836	0.1439
304.183	0.1414
304.531	0.1406
304.878	0.1379
305.224	0.1363
305.571	0.1349
305.918	0.1347
306.265	0.1306
306.611	0.1296
306.958	0.1294
307.304	0.1286
307.651	0.1272
307.997	0.1257
308.343	0.1245
308.689	0.1233
309.035	0.1224
309.381	0.1216
309.727	0.1206
310.073	0.1196
310.419	0.1196
310.764	0.1192
311.11	0.1178
311.455	0.117
311.801	0.117
312.146	0.116
312.491	0.1157
312.837	0.116
313.182	0.1137
313.527	0.1141
313.872	0.1144
314.216	0.1143
314.561	0.1134
314.906	0.1131
315.251	0.1136
315.595	0.1142
315.94	0.1136
316.284	0.1131
316.628	0.1135
316.972	0.1135
317.317	0.1138
317.661	0.1142
318.005	0.1141
318.348	0.1146
318.692	0.1145
319.036	0.1151
319.38	0.1161
319.723	0.1151
320.067	0.1166
320.41	0.1171
320.754	0.1169
321.097	0.1169
321.44	0.1182
321.783	0.1191
322.126	0.1197
322.469	0.1199
322.812	0.1206
323.155	0.1216
323.498	0.1221
323.84	0.1228
324.183	0.124
324.525	0.1253
324.868	0.1261
325.21	0.126
325.552	0.1269
325.894	0.1278
326.236	0.1288
326.578	0.1294
326.92	0.1305
327.262	0.1302
327.604	0.1323
327.946	0.1324
328.287	0.1335
328.629	0.1351
328.97	0.1359
329.312	0.1364
329.653	0.1379
329.994	0.1385
330.335	0.1395
330.676	0.142
331.017	0.1417
331.358	0.143
331.699	0.1442
332.04	0.1445
332.38	0.146
332.721	0.1467
333.061	0.1477
333.402	0.1493
333.742	0.1494
334.083	0.1503
334.423	0.1517
334.763	0.1525
335.103	0.1533
335.443	0.154
335.783	0.1551
336.123	0.1556
336.462	0.1567
336.802	0.1572
337.141	0.1587
337.481	0.1591
337.82	0.1602
338.16	0.1615
338.499	0.1619
338.838	0.163
339.177	0.1636
339.516	0.1644
339.855	0.1653
340.194	0.1655
340.533	0.1664
340.872	0.166
341.21	0.1674
341.549	0.1679
341.887	0.1691
342.226	0.1686
342.564	0.169
342.902	0.1701
343.24	0.1703
343.578	0.1713
343.916	0.1707
344.254	0.1714
344.592	0.1721
344.93	0.1718
345.268	0.1714
345.605	0.1713
345.943	0.1719
346.28	0.1725
346.618	0.1716
346.955	0.1721
347.292	0.1726
347.629	0.1733
347.966	0.1723
348.303	0.1727
348.64	0.1728
348.977	0.173
349.314	0.173
349.65	0.173
349.987	0.1728
350.324	0.1726
350.66	0.1737
350.996	0.1721
351.333	0.1725
351.669	0.1715
352.005	0.1719
352.341	0.1702
352.677	0.1704
353.013	0.1694
353.349	0.1689
353.685	0.1688
354.02	0.1678
354.356	0.1676
354.691	0.1662
355.027	0.166
355.362	0.1645
355.697	0.164
356.033	0.1643
356.368	0.1623
356.703	0.1621
357.038	0.162
357.373	0.1607
357.707	0.1606
358.042	0.16
358.377	0.1592
358.711	0.1589
359.046	0.1573
359.38	0.1573
359.715	0.1566
360.049	0.1552
360.383	0.154
360.717	0.1535
361.051	0.1525
361.385	0.1522
361.719	0.151
362.053	0.1505
362.387	0.1483
362.72	0.1477
363.054	0.1468
363.387	0.1453
363.721	0.1441
364.054	0.143
364.387	0.1414
364.721	0.1401
365.054	0.1388
365.387	0.1376
365.72	0.1374
366.053	0.1356
366.385	0.1342
366.718	0.1338
367.051	0.1324
367.383	0.132
367.716	0.1316
368.048	0.13
368.381	0.1301
368.713	0.1282
369.045	0.1275
369.377	0.1263
369.709	0.1254
370.041	0.1245
370.373	0.1234
370.705	0.1224
371.037	0.1208
371.368	0.1199
371.7	0.119
372.031	0.1178
372.363	0.1162
372.694	0.1157
373.025	0.1138
373.356	0.1129
373.688	0.1116
374.019	0.1104
374.35	0.1085
374.68	0.1072
375.011	0.106
375.342	0.1049
375.673	0.1031
376.003	0.1016
376.334	0.1014
376.664	0.0993
376.995	0.0985
377.325	0.097
377.655	0.0965
377.985	0.0952
378.315	0.0944
378.645	0.0929
378.975	0.0926
379.305	0.091
379.635	0.0913
379.964	0.0896
380.294	0.0893
380.623	0.0875
380.953	0.0865
381.282	0.086
381.611	0.0857
381.941	0.0848
382.27	0.0833
382.599	0.0828
382.928	0.0811
383.257	0.0804
383.585	0.0795
383.914	0.0777
384.243	0.0768
384.571	0.0759
384.9	0.075
385.228	0.0736
385.557	0.0728
385.885	0.0716
386.213	0.0704
386.541	0.0691
386.869	0.069
387.197	0.0671
387.525	0.0661
387.853	0.0647
388.181	0.0636
388.508	0.0633
388.836	0.0621
389.164	0.0613
389.491	0.0603
389.818	0.059
390.146	0.0587
390.473	0.0579
390.8	0.0578
391.127	0.0563
391.454	0.0558
391.781	0.0554
392.108	0.0547
392.435	0.0529
392.761	0.0526
393.088	0.0522
393.415	0.052
393.741	0.052
394.067	0.0519
394.394	0.0506
394.72	0.0497
395.046	0.0482
395.372	0.0478
395.698	0.0474
396.024	0.0468
396.35	0.047
396.676	0.0453
397.001	0.0452
397.327	0.0446
397.653	0.0435
397.978	0.0435
398.303	0.042
398.629	0.042
398.954	0.0415
399.279	0.0412
399.604	0.0404
399.929	0.0403
400.254	0.0393
400.579	0.0387
400.904	0.0385
401.229	0.0379
401.553	0.0383
401.878	0.0378
402.202	0.0377
402.527	0.0366
402.851	0.0371
403.175	0.0354
403.5	0.0357
403.824	0.0347
404.148	0.035
404.472	0.0351
404.796	0.0352
405.119	0.0339
405.443	0.0343
405.767	0.0334
406.09	0.0341
406.414	0.0333
406.737	0.0334
407.061	0.0337
407.384	0.0337
407.707	0.0333
408.03	0.0328
408.353	0.0327
408.676	0.0327
408.999	0.0326
409.322	0.0321
409.645	0.0323
409.968	0.0324
410.29	0.0324
410.613	0.0321
410.935	0.0314
411.258	0.0323
411.58	0.031
411.902	0.0319
412.224	0.0319
412.546	0.0321
412.868	0.0324
413.19	0.0317
413.512	0.0314
413.834	0.0311
414.156	0.0317
414.477	0.0304
414.799	0.0313
415.121	0.0304
415.442	0.0311
415.763	0.0312
416.085	0.0318
416.406	0.0306
416.727	0.0313
417.048	0.0316
417.369	0.0317
417.69	0.0311
418.011	0.0308
418.331	0.031
418.652	0.0309
418.973	0.031
419.293	0.0311
419.614	0.0305
419.934	0.0314
420.254	0.0308
420.574	0.0297
420.895	0.0301
421.215	0.0306
421.535	0.0303
421.855	0.0303
422.174	0.0301
422.494	0.0302
422.814	0.0305
423.134	0.0305
423.453	0.0309
423.773	0.0307
424.092	0.0313
424.411	0.0306
424.731	0.0304
425.05	0.0306
425.369	0.0308
425.688	0.0311
426.007	0.0305
426.326	0.0307
426.644	0.0307
426.963	0.0302
427.282	0.0307
427.6	0.031
427.919	0.0305
428.237	0.0307
428.556	0.0314
428.874	0.0305
429.192	0.0306
429.51	0.0306
429.828	0.03
430.146	0.0307
430.464	0.0301
430.782	0.0303
431.1	0.0301
431.418	0.0305
431.735	0.0303
432.053	0.0306
432.37	0.0311
432.688	0.0299
433.005	0.0298
433.322	0.0312
433.639	0.0312
433.957	0.0305
434.274	0.0314
434.591	0.0309
434.907	0.0308
435.224	0.0313
435.541	0.0308
435.858	0.0318
436.174	0.0311
436.491	0.0298
436.807	0.0301
437.124	0.0299
437.44	0.0303
437.756	0.0307
438.072	0.0298
438.388	0.0302
438.704	0.0301
439.02	0.0298
439.336	0.0299
439.652	0.03
439.968	0.0302
440.283	0.0303
440.599	0.0307
440.914	0.0298
441.23	0.0297
441.545	0.0295
441.86	0.03
442.175	0.0309
442.491	0.0293
442.806	0.0292
443.121	0.0287
443.435	0.0293
443.75	0.0296
444.065	0.0291
444.38	0.0292
444.694	0.0286
445.009	0.0294
445.323	0.0291
445.638	0.0285
445.952	0.0286
446.266	0.0279
446.58	0.0276
446.894	0.0289
447.208	0.0286
447.522	0.0276
447.836	0.0278
448.15	0.0276
448.464	0.0282
448.777	0.0278
449.091	0.0277
449.404	0.0279
449.718	0.0272
450.031	0.0272
450.345	0.0271
450.658	0.0269
450.971	0.0272
451.284	0.0266
451.597	0.0276
451.91	0.0264
452.223	0.0274
452.535	0.027
452.848	0.0262
453.161	0.0266
453.473	0.0266
453.786	0.0266
454.098	0.0264
454.411	0.0261
454.723	0.0274
455.035	0.0258
455.347	0.0257
455.659	0.0266
455.971	0.0266
456.283	0.027
456.595	0.0264
456.907	0.0266
457.218	0.0268
457.53	0.0252
457.841	0.0255
458.153	0.0251
458.464	0.0245
458.776	0.0251
459.087	0.0246
459.398	0.0249
459.709	0.0239
460.02	0.0251
460.331	0.0246
460.642	0.0247
460.953	0.024
461.263	0.0242
461.574	0.024
461.885	0.0248
462.195	0.0231
462.506	0.0245
462.816	0.0244
463.126	0.0235
463.437	0.0228
463.747	0.0231
464.057	0.022
464.367	0.022
464.677	0.0227
464.987	0.0227
465.296	0.0219
465.606	0.0218
465.916	0.0207
466.225	0.0218
466.535	0.0223
466.844	0.0221
467.154	0.0223
467.463	0.0223
467.772	0.0208
468.081	0.0215
468.39	0.022
468.699	0.0212
469.008	0.0211
469.317	0.0216
469.626	0.0218
469.935	0.0209
470.243	0.0217
470.552	0.0198
470.86	0.0206
471.169	0.02
471.477	0.0195
471.785	0.0195
472.093	0.0197
472.402	0.0199
472.71	0.0189
473.018	0.0186
473.326	0.0192
473.633	0.0185
473.941	0.0191
474.249	0.0197
474.556	0.0184
474.864	0.0188
475.171	0.0184
475.479	0.0177
475.786	0.0186
476.094	0.0173
476.401	0.0178
476.708	0.0174
477.015	0.0173
477.322	0.0172
477.629	0.0163
477.936	0.0176
478.242	0.0165
478.549	0.0168
478.856	0.0169
479.162	0.0171
479.469	0.0167
479.775	0.0163
480.081	0.0158
480.388	0.0159
480.694	0.0161
481	0.0158
481.306	0.0151
481.612	0.0158
481.918	0.0167
482.224	0.0155
482.53	0.0155
482.835	0.0155
483.141	0.0154
483.446	0.0152
483.752	0.0143
484.057	0.0141
484.363	0.0143
484.668	0.0142
484.973	0.0136
485.278	0.0133
485.583	0.0128
485.888	0.0132
486.193	0.0118
486.498	0.0129
486.803	0.0129
487.107	0.0128
487.412	0.0104
487.717	0.0118
488.021	0.0129
488.325	0.012
488.63	0.012
488.934	0.0119
489.238	0.011
489.542	0.0114
489.846	0.0116
490.15	0.0121
490.454	0.0125
490.758	0.0115
491.062	0.0118
491.366	0.0107
491.669	0.011
491.973	0.0107
492.276	0.0114
492.58	0.0106
492.883	0.0102
493.186	0.0104
493.489	0.0107
493.792	0.0098
494.096	0.0094
494.399	0.0102
494.701	0.0089
495.004	0.0093
495.307	0.0097
495.61	0.0098
495.912	0.0097
496.215	0.0089
496.517	0.0098
496.82	0.0086
497.122	0.0085
497.424	0.0083
497.727	0.0084
498.029	0.0085
498.331	0.0089
498.633	0.0088
498.935	0.008
499.237	0.0088
499.538	0.0081
499.84	0.009
500.142	0.0077
500.443	0.0086
500.745	0.0086
501.046	0.0079
501.348	0.0069
501.649	0.0068
501.95	0.0071
502.251	0.0082
502.552	0.0067
502.853	0.0071
503.154	0.0082
503.455	0.0065
503.756	0.0076
504.057	0.0073
504.357	0.0072
504.658	0.007
504.958	0.0065
505.259	0.007
505.559	0.0051
505.859	0.0054
506.16	0.0059
506.46	0.0058
506.76	0.0056
507.06	0.0049
507.36	0.0061
507.66	0.0054
507.96	0.0075
508.259	0.0067
508.559	0.0058
508.859	0.0058
509.158	0.0064
509.457	0.0048
509.757	0.005
510.056	0.005
510.355	0.0052
510.655	0.0043
510.954	0.0044
511.253	0.0041
511.552	0.0049
511.851	0.0048
512.149	0.0048
512.448	0.0043
512.747	0.0052
513.045	0.0045
513.344	0.0053
513.642	0.0045
513.941	0.005
514.239	0.0049
514.537	0.0041
514.836	0.0043
515.134	0.0047
515.432	0.004
515.73	0.0036
516.028	0.0046
516.326	0.004
516.623	0.0036
516.921	0.0033
517.219	0.0047
517.516	0.0039
517.814	0.0043
518.111	0.0046
518.409	0.0042
518.706	0.0035
519.003	0.0033
519.3	0.0031
519.597	0.0029
519.894	0.0029
520.191	0.0051
520.488	0.0048
520.785	0.0039
521.082	0.0039
521.378	0.004
521.675	0.0035
521.971	0.0039
522.268	0.0047
522.564	0.0039
522.861	0.0047
523.157	0.0036
523.453	0.0038
523.749	0.0036
524.045	0.0035
524.341	0.0037
524.637	0.0026
524.933	0.0039
525.229	0.0046
525.524	0.0029
525.82	0.0029
526.115	0.0037
526.411	0.0025
526.706	0.0038
527.002	0.0029
527.297	0.0014
527.592	0.0033
527.887	0.0032
528.182	0.0028
528.477	0.0035
528.772	0.0022
529.067	0.0035
529.362	0.0041
529.657	0.0033
529.951	0.0031
530.246	0.003
530.54	0.0039
530.835	0.0028
531.129	0.0038
531.423	0.0022
531.718	0.0031
532.012	0.003
532.306	0.0034
532.6	0.0027
532.894	0.0035
533.188	0.0025
533.482	0.0032
533.775	0.0028
534.069	0.0033
534.363	0.0032
534.656	0.0025
534.95	0.0023
535.243	0.0026
535.536	0.0029
535.83	0.002
536.123	0.0013
536.416	0.002
536.709	0.0033
537.002	0.0035
537.295	0.0028
537.588	0.004
537.881	0.0024
538.173	0.0029
538.466	0.003
538.759	0.0031
539.051	0.0035
539.344	0.0033
539.636	0.0023
539.928	0.0042
540.22	0.0026
540.513	0.0032
540.805	0.0039
541.097	0.0034
541.389	0.0034
541.681	0.0032
541.972	0.003
542.264	0.0035
542.556	0.004
542.847	0.0039
543.139	0.0037
543.431	0.0032
543.722	0.0023
544.013	0.0035
544.305	0.0026
544.596	0.0038
544.887	0.0038
545.178	0.0043
545.469	0.0036
545.76	0.0048
546.051	0.0044
546.342	0.0039
546.632	0.004
546.923	0.0032
547.214	0.0028
547.504	0.0035
547.795	0.0031
548.085	0.0037
548.375	0.0031
548.666	0.0039
548.956	0.0034
549.246	0.0039
549.536	0.0056
549.826	0.0042
550.116	0.0048
550.406	0.004
550.695	0.005
550.985	0.0049
551.275	0.0046
551.564	0.0058
551.854	0.0052
552.143	0.0039
552.433	0.0047
552.722	0.0043
553.011	0.0047
553.3	0.0042
553.589	0.0046
553.879	0.0043
554.167	0.0031
554.456	0.0038
554.745	0.0035
555.034	0.0055
555.323	0.0033
555.611	0.0036
555.9	0.0031
556.188	0.0028
556.477	0.0029
556.765	0.0058
557.053	0.0028
557.342	0.003
557.63	0.0033
557.918	0.0036
558.206	0.0044
558.494	0.0046
558.782	0.0041
559.069	0.005
559.357	0.0034
559.645	0.0038
559.932	0.0034
560.22	0.0031
560.507	0.0013
560.795	0.0016
561.082	0.002
561.37	0.0027
561.657	0.0022
561.944	0.0033
562.231	0.0023
562.518	0.0041
562.805	0.0036
563.092	0.0035
563.379	0.003
563.665	0.0031
563.952	0.0046
564.239	0.0039
564.525	0.0024
564.811	0.004
565.098	0.0033
565.384	0.0035
565.67	0.0042
565.957	0.0045
566.243	0.0048
566.529	0.0039
566.815	0.0048
567.101	0.0036
567.387	0.0035
567.672	0.004
567.958	0.0029
568.244	0.0017
568.529	0.0032
568.815	0.0034
569.1	0.0029
569.386	0.0034
569.671	0.0028
569.956	0.0029
570.242	0.0023
570.527	0.0019
570.812	0.0022
571.097	0.002
571.382	0.0018
571.666	0.0015
571.951	0.0027
572.236	0.0023
572.521	0.0029
572.805	0.0032
573.09	0.0023
573.374	0.0011
573.659	0.0016
573.943	0.0021
574.227	0.0023
574.511	0.0023
574.795	0.0029
575.079	0.0026
575.363	0.0021
575.647	0.0024
575.931	0.0035
576.215	0.0028
576.499	0.002
576.782	0.0018
577.066	0.0023
577.349	0.0034
577.633	0.0032
577.916	0.0024
578.2	0.0029
578.483	0.0029
578.766	0.004
579.049	0.0026
579.332	0.003
579.615	0.0028
579.898	0.0022
580.181	0.0033
580.464	0.0027
580.746	0.0026
581.029	0.003
581.312	0.0016
581.594	0.0008
581.877	0.0022
582.159	0.0037
582.441	0.0021
582.724	0.0034
583.006	0.0035
583.288	0.003
583.57	0.0028
583.852	0.0037
584.134	0.0036
584.416	0.002
584.697	0.0027
584.979	0.0017
585.261	0.0018
585.542	0.0023
585.824	0.0035
586.105	0.0029
586.387	0.003
586.668	0.0031
586.949	0.004
587.231	0.0035
587.512	0.0035
587.793	0.0024
588.074	0.0031
588.355	0.004
588.636	0.003
588.916	0.0031
589.197	0.0027
589.478	0.0031
589.758	0.0019
590.039	0.0021
590.319	0.0019
590.6	0.0021
590.88	0.0025
591.16	0.0028
591.441	0.0038
591.721	0.0022
592.001	0.0019
592.281	0.0024
592.561	0.0027
592.841	0.0019
593.12	0.0021
593.4	0.0027
593.68	0.0025
593.959	0.0033
594.239	0.0036
594.518	0.0043
594.798	0.004
595.077	0.0026
595.356	0.0032
595.636	0.0031
595.915	0.003
596.194	0.0032
596.473	0.0042
596.752	0.0038
597.031	0.0031
597.31	0.0023
597.588	0.0024
597.867	0.0026
598.146	0.0022
598.424	0.0015
598.703	0.0022
598.981	0.0004
599.259	0.0014
599.538	0.0033
599.816	0.0028
600.094	0.002
600.372	0.0023
600.65	0.0028
600.928	0.0028
601.206	0.0028
601.484	0.0026
601.762	0.0033
602.04	0.0035
602.317	0.0037
602.595	0.0047
602.872	0.0037
603.15	0.0029
603.427	0.0013
603.704	0.002
603.982	0.0014
604.259	0.0015
604.536	0.0018
604.813	0.0031
605.09	0.0027
605.367	0.0015
605.644	0.0017
605.921	0.0021
606.197	0.0006
606.474	0.0025
606.751	0.0016
607.027	0.0015
607.304	0.0021
607.58	0.0021
607.856	0.0029
608.133	0.0035
608.409	0.0042
608.685	0.0036
608.961	0.0039
609.237	0.0034
609.513	0.0056
609.789	0.003
610.065	0.0024
610.341	0.0028
610.616	0.0034
610.892	0.0044
611.167	0.0041
611.443	0.0042
611.718	0.0038
611.994	0.0038
612.269	0.0032
612.544	0.0033
612.819	0.0023
613.095	0.003
613.37	0.0022
613.645	0.0011
613.919	0.0029
614.194	0.0032
614.469	0.0032
614.744	0.0024
615.019	0.0015
615.293	0.0021
615.568	0.0027
615.842	0.0018
616.116	0.0027
616.391	0.0014
616.665	0.0012
616.939	0.0011
617.213	0.0022
617.488	0.0027
617.762	0.0025
618.035	0.0026
618.309	0.0028
618.583	0.0032
618.857	0.0036
619.131	0.0034
619.404	0.0031
619.678	0.0034
619.951	0.0025
620.225	0.0015
620.498	0.0018
620.771	0.0019
621.045	0.0025
621.318	0.0033
621.591	0.0029
621.864	0.0011
622.137	0.0009
622.41	0.002
622.683	0.0023
622.956	0.0021
623.228	0.0027
623.501	0.0035
623.774	0.0049
624.046	0.0038
624.319	0.0032
624.591	0.0029
624.863	0.0029
625.136	0.0035
625.408	0.0044
625.68	0.003
625.952	0.0034
626.224	0.0038
626.496	0.0037
626.768	0.0032
627.04	0.0044
627.311	0.0032
627.583	0.0051
627.855	0.0049
628.126	0.0036
628.398	0.0037
628.669	0.0041
628.941	0.002
629.212	0.0011
629.483	0.0029
629.755	0.0017
630.026	0.0025
630.297	0.0025
630.568	0.0035
630.839	0.0042
631.11	0.005
631.38	0.0048
631.651	0.0039
631.922	0.0041
632.192	0.0039
632.463	0.0048
632.733	0.0028
633.004	0.0033
633.274	0.0031
633.545	0.0027
633.815	0.0046
634.085	0.005
634.355	0.0036
634.625	0.0042
634.895	0.0038
635.165	0.0032
635.435	0.0054
635.705	0.0036
635.974	0.0033
636.244	0.0025
636.514	0.0022
636.783	0.0027
637.053	0.004
637.322	0.0032
637.591	0.0028
637.861	0.0016
638.13	0.0026
638.399	0.0043
638.668	0.0031
638.937	0.0052
639.206	0.004
639.475	0.005
639.744	0.0048
640.013	0.0042
640.281	0.0047
640.55	0.0041
640.819	0.0038
641.087	0.0038
641.356	0.004
641.624	0.0042
641.892	0.0047
642.161	0.0052
642.429	0.0048
642.697	0.0041
642.965	0.0043
643.233	0.0028
643.501	0.0039
643.769	0.0032
644.037	0.0037
644.305	0.0034
644.572	0.0038
644.84	0.0037
645.108	0.0041
645.375	0.0033
645.643	0.0043
645.91	0.0035
646.177	0.0036
646.445	0.0029
646.712	0.0039
646.979	0.0034
647.246	0.0054
647.513	0.0045
647.78	0.0046
648.047	0.0031
648.314	0.0021
648.58	0.0009
648.847	0.0007
649.114	-0.0005
649.38	0.0002
649.647	0.0008
649.913	-0.0001
650.18	0.0027
650.446	0.003
650.712	0.0041
650.978	0.0043
651.245	0.0052
651.511	0.0053
651.777	0.0059
652.043	0.0048
652.309	0.0047
652.574	0.0044
652.84	0.0054
653.106	0.0052
653.371	0.0061
653.637	0.0056
653.903	0.0053
654.168	0.0059
654.433	0.0049
654.699	0.0045
654.964	0.0033
655.229	0.0032
655.494	0.0026
655.759	-0.0019
656.024	0.0005
656.289	-0
656.554	0.002
656.819	0.0042
657.084	0.0052
657.349	0.0061
657.613	0.0058
657.878	0.0036
658.142	0.0035
658.407	0.0033
658.671	0.003
658.936	0.0035
659.2	0.0043
659.464	0.0032
659.728	0.0039
659.992	0.0024
660.256	0.0014
660.52	0.0023
660.784	0.0027
661.048	0.0025
661.312	0.0027
661.575	0.0041
661.839	0.0049
662.103	0.0046
662.366	0.0035
662.63	0.0034
662.893	0.0031
663.156	0.0034
663.42	0.0045
663.683	0.0039
663.946	0.0056
664.209	0.005
664.472	0.0046
664.735	0.0049
664.998	0.0058
665.261	0.006
665.524	0.0056
665.786	0.0056
666.049	0.0052
666.312	0.0038
666.574	0.0039
666.837	0.0051
667.099	0.0047
667.361	0.0052
667.624	0.005
667.886	0.0048
668.148	0.0052
668.41	0.0041
668.672	0.0048
668.934	0.005
669.196	0.0041
669.458	0.003
669.72	0.0027
669.982	0.0025
670.243	0.0026
670.505	0.0032
670.766	0.0024
671.028	0.0029
671.289	0.0034
671.551	0.0027
671.812	0.002
672.073	0.0031
672.334	0.0031
672.596	0.0034
672.857	0.0038
673.118	0.0046
673.379	0.0058
673.639	0.0053
673.9	0.0052
674.161	0.0055
674.422	0.006
674.682	0.0048
674.943	0.0039
675.203	0.0056
675.464	0.0056
675.724	0.0044
675.985	0.0038
676.245	0.0034
676.505	0.0028
676.765	0.0028
677.025	0.0028
677.285	0.0025
677.545	0.003
677.805	0.0016
678.065	0.0022
678.325	0.0038
678.585	0.0046
678.844	0.0043
679.104	0.0051
679.363	0.0062
679.623	0.0065
679.882	0.0056
680.142	0.0067
680.401	0.0068
680.66	0.0065
680.919	0.0054
681.178	0.0058
681.437	0.0044
681.696	0.0038
681.955	0.0063
682.214	0.0059
682.473	0.0061
682.732	0.0047
682.99	0.006
683.249	0.0061
683.508	0.0053
683.766	0.0059
684.024	0.0053
684.283	0.0038
684.541	0.003
684.799	0.0028
685.058	0.0019
685.316	0.0006
685.574	0.0001
685.832	0.001
686.09	0.0015
686.348	0.0016
686.606	0.002
686.863	0.0016
687.121	0.0026
687.379	0.0019
687.636	0.0006
687.894	0.0021
688.151	0.0021
688.409	0.0023
688.666	0.0027
688.923	0.0031
689.181	0.0031
689.438	0.0027
689.695	0.0021
689.952	0.002
690.209	0.0015
690.466	0.0009
690.723	0.0021
690.979	0.002
691.236	0.0012
691.493	-0.0002
691.75	-0
692.006	0.0004
692.263	0.0003
692.519	0.0005
692.775	-0.0016
693.032	-0.0007
693.288	-0.001
693.544	-0.0009
693.8	0.0011
694.056	0.0003
694.313	0.0008
694.568	0.0019
694.824	0.0017
695.08	0.0014
695.336	0.0016
695.592	0.0011
695.847	0.003
696.103	0.0041
696.359	0.0055
696.614	0.0051
696.869	0.0023
697.125	0.0003
697.38	0.0006
697.635	0.0023
697.891	0.004
698.146	0.0027
698.401	0.0025
698.656	0.0016
698.911	0.0032
699.166	0.0017
699.42	0.0041
699.675	0.0045
699.93	0.0054
700.185	0.0051
700.439	0.0039
700.694	0.003
700.948	0.0022
701.203	0.0033
701.457	0.0025
701.711	0.0034
701.965	0.0007
702.22	0.0013
702.474	0.0015
702.728	0.0003
702.982	0.0014
703.236	0.0024
703.49	0.0026
703.743	0.0016
703.997	0.0025
704.251	0.0012
704.504	0.0016
704.758	0.0012
705.012	0.0017
705.265	0.0018
705.518	0.0025
705.772	0.0029
706.025	0.0028
706.278	0.0029
706.531	0.0014
706.785	0.0003
707.038	0.0002
707.291	0.0007
707.543	-0.0002
707.796	-0.0002
708.049	0.0007
708.302	0.0006
708.555	0.001
708.807	0.0017
709.06	0.0025
709.312	0.0041
709.565	0.0044
709.817	0.0058
710.069	0.0046
710.322	0.004
710.574	0.0039
710.826	0.0021
711.078	0.0014
711.33	0.0025
711.582	0.0024
711.834	0.0017
712.086	0.0023
712.338	0.0011
712.59	0.0001
712.841	-0.001
713.093	-0.0006
713.344	0.0005
713.596	-0
713.847	-0.0002
714.099	0.0004
714.35	0.0016
714.601	0.0006
714.853	0.0004
715.104	0.0011
715.355	-0.0004
715.606	0.0015
715.857	0.0018
716.108	0.0019
716.359	0.0033
716.609	0.0018
716.86	0.0029
717.111	0.0021
717.361	0.002
717.612	0.0019
717.863	0.0033
718.113	0.0033
718.363	0.0016
718.614	0.0027
718.864	0.0032
719.114	0.0027
719.364	0.0006
719.614	0.0009
719.865	0.0008
720.114	0.0019
720.364	0.0022
720.614	0.0021
720.864	0.0017
721.114	0
721.364	0.0009
721.613	0.0009
721.863	0.0012
722.112	0.0016
722.362	0.0018
722.611	0.0024
722.86	0.0029
723.11	0.0042
723.359	0.0044
723.608	0.0031
723.857	0.0049
724.106	0.0042
724.355	0.0041
724.604	0.0037
724.853	0.0025
725.102	0.0013
725.351	-0.0005
725.599	-0.002
725.848	-0.0011
726.097	0.0005
726.345	-0.0003
726.594	0.0008
726.842	0.0018
727.09	0.0009
727.339	-0.0001
727.587	0.0003
727.835	0.0007
728.083	0.0001
728.331	0.0004
728.579	0.0013
728.827	-0.0002
729.075	-0.0004
729.323	-0.0011
729.571	-0.0015
729.818	-0.0016
730.066	-0.0002
730.314	0.0001
730.561	-0.0001
730.809	-0.002
731.056	-0.0015
731.303	-0.0013
731.551	-0.0004
731.798	-0.0009
732.045	0.0007
732.292	0.0005
732.539	0.0005
732.786	-0.0008
733.033	-0.001
733.28	-0.0006
733.527	-0.001
733.774	-0.0017
734.021	-0.0017
734.267	-0.0004
734.514	-0.0011
734.76	-0.001
735.007	-0.0012
735.253	-0.0006
735.5	0.0016
735.746	0.002
735.992	0.0014
736.238	0.0019
736.485	0.0018
736.731	0.0031
736.977	0.0019
737.223	0.0006
737.469	0.0013
737.715	0.0024
737.96	0.0035
738.206	0.0031
738.452	0.0033
738.697	0.0039
738.943	0.0014
739.189	0.0015
739.434	0.001
739.679	0.0028
739.925	0.0042
740.17	0.0049
740.415	0.0037
740.66	0.0036
740.906	0.0032
741.151	0.0028
741.396	0.0013
741.641	0.0018
741.886	0.0015
742.13	0.0005
742.375	0.0022
742.62	-0.0006
742.865	-0.0004
743.109	0.0012
743.354	-0.001
743.598	-0.0012
743.843	-0.0022
744.087	-0.0028
744.331	-0.0022
744.576	-0.0017
744.82	0.0002
745.064	0.0005
745.308	0.0017
745.552	0.0015
745.796	0.0003
746.04	0.0003
746.284	0
746.528	0.0011
746.771	0.001
747.015	0.0012
747.259	0.0004
747.502	0.0006
747.746	0.0015
747.989	0.0023
748.233	0.004
748.476	0.0023
748.719	0.0026
748.963	0.0021
749.206	0.0011
749.449	0.001
749.692	0.0008
749.935	0.0017
750.178	0.0008
750.421	0.0007
750.664	0.0022
750.906	0.002
751.149	0.0024
751.392	0.0028
751.635	0.0025
751.877	0.0034
752.12	0.0027
752.362	0.0036
752.604	0.0029
752.847	0.0021
753.089	0.0026
753.331	0.0021
753.573	0.0017
753.816	0.0029
754.058	0.0026
754.3	0.0025
754.542	0.0039
754.783	0.0028
755.025	0.0038
755.267	0.0028
755.509	0.0024
755.75	0.0005
755.992	0.0015
756.234	0.0019
756.475	0.0027
756.716	0.0013
756.958	0.0006
757.199	0.0016
757.44	0.0023
757.682	0.0014
757.923	0.0024
758.164	0.0037
758.405	0.0037
758.646	0.004
758.887	0.0045
759.128	0.0035
759.369	0.0019
759.609	0.0024
759.85	0.0022
760.091	0.002
760.331	0.0027
760.572	0.0024
760.812	0.0013
761.053	0.0024
761.293	0.0034
761.533	0.0037
761.774	0.0041
762.014	0.0039
762.254	0.0035
762.494	0.003
762.734	0.0022
762.974	0.0026
763.214	0.0021
763.454	0.0025
763.694	0.0026
763.933	0.0042
764.173	0.005
764.413	0.0048
764.652	0.0023
764.892	0.0022
765.131	0.0018
765.371	0.0014
765.61	0.0019
765.849	-0
766.089	-0.0008
766.328	0.0004
766.567	-0.0004
766.806	-0
767.045	-0.0014
767.284	0.0007
767.523	0.0002
767.762	-0.0002
768.001	-0.0007
768.239	0
768.478	-0.0007
768.717	-0.0005
768.955	-0.0009
769.194	0.0006
769.432	0.0016
769.671	0.001
769.909	0.0009
770.148	0.0009
770.386	0.0009
770.624	0.0002
770.862	-0.0007
771.1	-0.0003
771.338	-0.0009
771.576	-0.0006
771.814	0.0003
772.052	0.0004
772.29	0.0022
772.528	0.0012
772.765	0.0007
773.003	0.0012
773.24	0.0022
773.478	0.0019
773.716	0.0027
773.953	0.003
774.19	0.0034
774.428	0.0044
774.665	0.0042
774.902	0.0038
775.139	0.0034
775.376	0.0031
775.613	0.0042
775.85	0.0051
776.087	0.0062
776.324	0.0044
776.561	0.0038
776.798	0.0041
777.034	0.0038
777.271	0.0036
777.508	0.0033
777.744	0.004
777.981	0.005
778.217	0.0034
778.454	0.0034
778.69	0.0034
778.926	0.0027
779.162	0.0023
779.399	0.0029
779.635	0.003
779.871	0.0027
780.107	0.0031
780.343	0.0015
780.579	0.0029
780.814	0.0043
781.05	0.0037
781.286	0.0024
781.522	0.0016
781.757	0.0014
781.993	0.0019
782.228	0.0006
782.464	0.0017
782.699	0.0016
782.934	0.0016
783.17	0.0014
783.405	0.0023
783.64	0.0019
783.875	0.0012
784.11	0.0012
784.345	0.002
784.58	0.0025
784.815	0.0026
785.05	0.0017
785.285	0.0011
785.52	0.0014
785.754	0.0017
785.989	0.0022
786.223	0.0027
786.458	0.0037
786.692	0.0045
786.927	0.0053
787.161	0.0048
787.396	0.0055
787.63	0.005
787.864	0.0038
788.098	0.0021
788.332	0.0018
788.566	0.0014
788.8	0.001
789.034	0.0024
789.268	0.0018
789.502	0.0023
789.736	0.0028
789.969	0.0032
790.203	0.0034
790.437	0.0047
790.67	0.0047
790.904	0.0062
791.137	0.0068
791.37	0.0068
791.604	0.0067
791.837	0.0073
792.07	0.0072
792.303	0.0081
792.537	0.008
792.77	0.0071
793.003	0.006
793.236	0.0046
793.469	0.0039
793.701	0.0028
793.934	0.0025
794.167	0.0009
794.4	0.0006
794.632	0.0005
794.865	0.0001
795.097	0.0002
795.33	0.0007
795.562	0.0007
795.795	0.001
796.027	0.0013
796.259	0.0025
796.491	0.0016
796.724	0.0017
796.956	0.002
797.188	0.0015
797.42	0.002
797.652	0.0022
797.883	0.0021
798.115	0.0027
798.347	0.0031
798.579	0.0026
798.81	0.0033
799.042	0.0031
799.274	0.0038
799.505	0.0031
799.737	0.0027
799.968	0.0024
800.199	0.002
800.431	0.0022
800.662	0.0007
800.893	0.0017
801.124	0.0024
801.355	0.0035
801.586	0.0042
801.817	0.0058
802.048	0.0053
802.279	0.0066
802.51	0.0066
802.741	0.0071
802.971	0.007
803.202	0.0058
803.433	0.0048
803.663	0.0047
803.894	0.0042
804.124	0.0038
804.354	0.0045
804.585	0.0056
804.815	0.0054
805.045	0.0064
805.275	0.0036
805.506	0.0036
805.736	-0.1098
805.966	-0.2819
806.196	-0.0492
