Data from 03 0.4 mM K2Cr2O7 0.25 M BQDS 1 M H2SO4 5 min_Absorbance_0206.txt Node
Date: Wed Dec 15 10:40:12 EST 2021
User: kwabilab-user
Spectrometer: HDX00518
Trigger mode: 0
Integration Time (sec): 5.000000E-2
Scans to average: 50
Nonlinearity correction enabled: false
Boxcar width: 0
Storing dark spectrum: false
XAxis mode: Wavelengths
Number of Pixels in Spectrum: 2068
>>>>>Begin Spectral Data<<<<<
195.27	-0.1418
195.642	-0.0028
196.014	-0.0265
196.386	-0.0435
196.758	-0.0806
197.129	-0.0178
197.501	-0.0026
197.872	0.0174
198.244	0.0181
198.615	0.0317
198.986	0.0301
199.357	0.0178
199.728	0.0305
200.099	0.0163
200.47	0.023
200.841	0.0406
201.212	0.0204
201.582	0.0298
201.953	0.0275
202.323	0.0368
202.694	0.025
203.064	0.0107
203.434	0.0098
203.804	0.0292
204.174	0.0082
204.544	0.03
204.914	-0.001
205.284	0.006
205.653	0.0039
206.023	0.025
206.393	0.0052
206.762	0.03
207.131	0.0248
207.501	0.0079
207.87	0.0127
208.239	0.0143
208.608	0.0125
208.977	0.0115
209.346	0.0149
209.715	0.0203
210.083	0.0243
210.452	-0.0011
210.82	0.0203
211.189	-0.0041
211.557	0.0315
211.925	0.0014
212.294	0.0096
212.662	0.0292
213.03	0.0073
213.398	0.0011
213.766	0.0233
214.133	0.012
214.501	0.0062
214.869	0.0133
215.236	0.0064
215.604	0.02
215.971	0.0484
216.338	0.0334
216.705	0.0215
217.072	0.0207
217.439	0.0398
217.806	0.0456
218.173	0.0389
218.54	0.0423
218.907	0.0532
219.273	0.0566
219.64	0.0553
220.006	0.0743
220.373	0.0876
220.739	0.103
221.105	0.1281
221.471	0.1294
221.837	0.1445
222.203	0.1709
222.569	0.1701
222.935	0.1818
223.3	0.2181
223.666	0.2199
224.031	0.2511
224.397	0.2894
224.762	0.295
225.127	0.3377
225.493	0.3492
225.858	0.3738
226.223	0.3914
226.588	0.397
226.952	0.4288
227.317	0.4627
227.682	0.4657
228.046	0.4767
228.411	0.5076
228.775	0.5063
229.14	0.5153
229.504	0.5416
229.868	0.5504
230.232	0.5456
230.596	0.5454
230.96	0.5814
231.324	0.5665
231.688	0.569
232.052	0.5849
232.415	0.5884
232.779	0.5806
233.142	0.597
233.505	0.5905
233.869	0.6043
234.232	0.5959
234.595	0.5962
234.958	0.5979
235.321	0.6035
235.684	0.5966
236.047	0.5957
236.409	0.5855
236.772	0.5871
237.134	0.5884
237.497	0.582
237.859	0.5923
238.222	0.5926
238.584	0.5718
238.946	0.5714
239.308	0.5599
239.67	0.5769
240.032	0.5599
240.393	0.5647
240.755	0.5577
241.117	0.5599
241.478	0.5507
241.84	0.5521
242.201	0.548
242.562	0.5412
242.924	0.5309
243.285	0.5337
243.646	0.5385
244.007	0.5308
244.368	0.5279
244.728	0.5226
245.089	0.5241
245.45	0.5202
245.81	0.5173
246.171	0.5093
246.531	0.5108
246.891	0.5081
247.252	0.5034
247.612	0.5072
247.972	0.5041
248.332	0.5041
248.692	0.5048
249.051	0.5008
249.411	0.4988
249.771	0.4953
250.13	0.4886
250.49	0.4959
250.849	0.4909
251.208	0.4915
251.568	0.4885
251.927	0.4877
252.286	0.4947
252.645	0.4841
253.004	0.4923
253.363	0.4856
253.721	0.4858
254.08	0.49
254.439	0.4821
254.797	0.4799
255.155	0.4792
255.514	0.4811
255.872	0.4769
256.23	0.4744
256.588	0.4749
256.946	0.4777
257.304	0.4732
257.662	0.4783
258.02	0.4777
258.377	0.4688
258.735	0.4714
259.093	0.466
259.45	0.4637
259.807	0.4691
260.165	0.4699
260.522	0.4685
260.879	0.4644
261.236	0.4639
261.593	0.465
261.95	0.4568
262.306	0.4627
262.663	0.4601
263.02	0.4561
263.376	0.4525
263.733	0.4565
264.089	0.4514
264.445	0.4478
264.802	0.4497
265.158	0.4456
265.514	0.448
265.87	0.4427
266.226	0.4423
266.581	0.4448
266.937	0.4443
267.293	0.4417
267.648	0.4347
268.004	0.4317
268.359	0.4285
268.714	0.4286
269.07	0.4269
269.425	0.4262
269.78	0.423
270.135	0.4194
270.49	0.418
270.844	0.4177
271.199	0.4131
271.554	0.4083
271.908	0.4084
272.263	0.4102
272.617	0.404
272.972	0.3998
273.326	0.4011
273.68	0.3955
274.034	0.3953
274.388	0.3924
274.742	0.3903
275.096	0.3864
275.45	0.3834
275.803	0.3842
276.157	0.3768
276.51	0.3755
276.864	0.3723
277.217	0.3703
277.571	0.3668
277.924	0.3639
278.277	0.3618
278.63	0.3554
278.983	0.3536
279.336	0.3521
279.688	0.3465
280.041	0.3474
280.394	0.3377
280.746	0.3379
281.099	0.3344
281.451	0.3312
281.803	0.3285
282.156	0.3257
282.508	0.3219
282.86	0.3192
283.212	0.3164
283.564	0.3107
283.916	0.3057
284.267	0.3048
284.619	0.3033
284.971	0.2975
285.322	0.2969
285.673	0.2931
286.025	0.2896
286.376	0.2873
286.727	0.2822
287.078	0.2795
287.429	0.2768
287.78	0.2737
288.131	0.27
288.482	0.2653
288.833	0.2631
289.183	0.26
289.534	0.2563
289.884	0.2552
290.235	0.2516
290.585	0.248
290.935	0.2435
291.285	0.2434
291.635	0.2387
291.985	0.2367
292.335	0.2327
292.685	0.2293
293.035	0.226
293.384	0.2228
293.734	0.2206
294.083	0.2178
294.433	0.216
294.782	0.2115
295.131	0.2092
295.48	0.2055
295.829	0.2016
296.179	0.1995
296.527	0.1971
296.876	0.1945
297.225	0.1902
297.574	0.1884
297.922	0.1849
298.271	0.1825
298.619	0.1795
298.968	0.1767
299.316	0.1746
299.664	0.1735
300.012	0.1707
300.36	0.1678
300.708	0.1651
301.056	0.1633
301.404	0.1612
301.752	0.1593
302.099	0.1563
302.447	0.1543
302.794	0.1527
303.142	0.1501
303.489	0.1476
303.836	0.1463
304.183	0.1452
304.531	0.1431
304.878	0.1409
305.224	0.1393
305.571	0.1385
305.918	0.1364
306.265	0.1337
306.611	0.1334
306.958	0.132
307.304	0.1307
307.651	0.1298
307.997	0.1283
308.343	0.1267
308.689	0.126
309.035	0.126
309.381	0.1238
309.727	0.1237
310.073	0.1229
310.419	0.1216
310.764	0.1214
311.11	0.1203
311.455	0.1196
311.801	0.1193
312.146	0.1186
312.491	0.1185
312.837	0.1177
313.182	0.1166
313.527	0.1162
313.872	0.1165
314.216	0.1169
314.561	0.1166
314.906	0.1161
315.251	0.1163
315.595	0.1171
315.94	0.1161
316.284	0.1156
316.628	0.116
316.972	0.1167
317.317	0.1165
317.661	0.1171
318.005	0.117
318.348	0.117
318.692	0.1177
319.036	0.1176
319.38	0.1187
319.723	0.1184
320.067	0.119
320.41	0.1195
320.754	0.12
321.097	0.1202
321.44	0.1209
321.783	0.1222
322.126	0.1229
322.469	0.1229
322.812	0.1239
323.155	0.1247
323.498	0.125
323.84	0.125
324.183	0.1264
324.525	0.1269
324.868	0.1293
325.21	0.1288
325.552	0.1296
325.894	0.1309
326.236	0.1305
326.578	0.132
326.92	0.1338
327.262	0.1339
327.604	0.1342
327.946	0.1359
328.287	0.1369
328.629	0.1381
328.97	0.1386
329.312	0.1397
329.653	0.141
329.994	0.1415
330.335	0.1429
330.676	0.1441
331.017	0.1448
331.358	0.1466
331.699	0.1468
332.04	0.1481
332.38	0.1493
332.721	0.1506
333.061	0.1514
333.402	0.1526
333.742	0.1535
334.083	0.1536
334.423	0.1547
334.763	0.1567
335.103	0.1572
335.443	0.1577
335.783	0.1591
336.123	0.1594
336.462	0.1603
336.802	0.1609
337.141	0.1619
337.481	0.1633
337.82	0.164
338.16	0.1643
338.499	0.1658
338.838	0.1662
339.177	0.1676
339.516	0.1673
339.855	0.1688
340.194	0.1691
340.533	0.1697
340.872	0.1709
341.21	0.1716
341.549	0.1718
341.887	0.1721
342.226	0.1719
342.564	0.1735
342.902	0.1733
343.24	0.1741
343.578	0.1743
343.916	0.174
344.254	0.1754
344.592	0.1756
344.93	0.1752
345.268	0.1749
345.605	0.1754
345.943	0.1759
346.28	0.176
346.618	0.1754
346.955	0.1765
347.292	0.177
347.629	0.1767
347.966	0.1761
348.303	0.1767
348.64	0.1772
348.977	0.177
349.314	0.1767
349.65	0.177
349.987	0.1772
350.324	0.1768
350.66	0.1771
350.996	0.1765
351.333	0.1757
351.669	0.1754
352.005	0.1757
352.341	0.1748
352.677	0.174
353.013	0.173
353.349	0.1732
353.685	0.1717
354.02	0.1716
354.356	0.1702
354.691	0.1694
355.027	0.1693
355.362	0.1675
355.697	0.1683
356.033	0.1677
356.368	0.1668
356.703	0.1659
357.038	0.1662
357.373	0.1647
357.707	0.1638
358.042	0.1632
358.377	0.1631
358.711	0.1623
359.046	0.1608
359.38	0.1616
359.715	0.1602
360.049	0.1591
360.383	0.1577
360.717	0.1565
361.051	0.1565
361.385	0.1552
361.719	0.1539
362.053	0.1539
362.387	0.1514
362.72	0.1512
363.054	0.15
363.387	0.1479
363.721	0.1472
364.054	0.1464
364.387	0.1447
364.721	0.1429
365.054	0.1423
365.387	0.1408
365.72	0.1401
366.053	0.1385
366.385	0.1375
366.718	0.1368
367.051	0.1355
367.383	0.1345
367.716	0.1342
368.048	0.1334
368.381	0.1322
368.713	0.1303
369.045	0.1298
369.377	0.1286
369.709	0.1284
370.041	0.1263
370.373	0.1258
370.705	0.125
371.037	0.1234
371.368	0.123
371.7	0.1213
372.031	0.1205
372.363	0.1191
372.694	0.1184
373.025	0.1167
373.356	0.1153
373.688	0.1139
374.019	0.1127
374.35	0.111
374.68	0.1098
375.011	0.1079
375.342	0.1074
375.673	0.1054
376.003	0.1039
376.334	0.1035
376.664	0.1023
376.995	0.1006
377.325	0.0997
377.655	0.0971
377.985	0.0963
378.315	0.0962
378.645	0.0953
378.975	0.0945
379.305	0.0929
379.635	0.0929
379.964	0.0917
380.294	0.0909
380.623	0.0898
380.953	0.088
381.282	0.0881
381.611	0.0875
381.941	0.0865
382.27	0.0853
382.599	0.0851
382.928	0.0833
383.257	0.0824
383.585	0.0812
383.914	0.08
384.243	0.0786
384.571	0.0783
384.9	0.0771
385.228	0.0759
385.557	0.0741
385.885	0.073
386.213	0.0723
386.541	0.0709
386.869	0.0708
387.197	0.0689
387.525	0.0681
387.853	0.0663
388.181	0.0658
388.508	0.0647
388.836	0.0636
389.164	0.0628
389.491	0.0614
389.818	0.0605
390.146	0.0603
390.473	0.0595
390.8	0.0593
391.127	0.0574
391.454	0.0564
391.781	0.0562
392.108	0.0559
392.435	0.0545
392.761	0.0535
393.088	0.0538
393.415	0.0529
393.741	0.0533
394.067	0.053
394.394	0.0521
394.72	0.0509
395.046	0.0505
395.372	0.0495
395.698	0.049
396.024	0.048
396.35	0.0476
396.676	0.0468
397.001	0.0463
397.327	0.0454
397.653	0.0447
397.978	0.0443
398.303	0.043
398.629	0.0427
398.954	0.0428
399.279	0.0427
399.604	0.0411
399.929	0.0413
400.254	0.04
400.579	0.0403
400.904	0.039
401.229	0.0395
401.553	0.0386
401.878	0.0386
402.202	0.0381
402.527	0.0376
402.851	0.0374
403.175	0.0363
403.5	0.0368
403.824	0.0359
404.148	0.036
404.472	0.036
404.796	0.036
405.119	0.0353
405.443	0.0351
405.767	0.0345
406.09	0.0344
406.414	0.0343
406.737	0.0345
407.061	0.0347
407.384	0.0347
407.707	0.0341
408.03	0.0332
408.353	0.0334
408.676	0.0333
408.999	0.0334
409.322	0.0332
409.645	0.0327
409.968	0.0333
410.29	0.0325
410.613	0.0331
410.935	0.0324
411.258	0.0328
411.58	0.0314
411.902	0.0323
412.224	0.0317
412.546	0.032
412.868	0.0328
413.19	0.0323
413.512	0.0318
413.834	0.0317
414.156	0.032
414.477	0.0314
414.799	0.0324
415.121	0.0315
415.442	0.0317
415.763	0.0317
416.085	0.0325
416.406	0.0316
416.727	0.032
417.048	0.032
417.369	0.0323
417.69	0.0313
418.011	0.0315
418.331	0.0319
418.652	0.0318
418.973	0.0306
419.293	0.0317
419.614	0.0311
419.934	0.0321
420.254	0.0318
420.574	0.0304
420.895	0.031
421.215	0.0312
421.535	0.0309
421.855	0.0308
422.174	0.0301
422.494	0.0309
422.814	0.0307
423.134	0.0314
423.453	0.0315
423.773	0.032
424.092	0.032
424.411	0.0314
424.731	0.0309
425.05	0.031
425.369	0.0314
425.688	0.0317
426.007	0.0313
426.326	0.031
426.644	0.0311
426.963	0.0315
427.282	0.0314
427.6	0.0314
427.919	0.0312
428.237	0.0315
428.556	0.0315
428.874	0.031
429.192	0.0315
429.51	0.031
429.828	0.0308
430.146	0.0313
430.464	0.0306
430.782	0.0313
431.1	0.0307
431.418	0.0315
431.735	0.0305
432.053	0.0311
432.37	0.0312
432.688	0.0305
433.005	0.03
433.322	0.0316
433.639	0.0316
433.957	0.0312
434.274	0.0313
434.591	0.0312
434.907	0.0315
435.224	0.0311
435.541	0.0313
435.858	0.0311
436.174	0.0313
436.491	0.0307
436.807	0.0304
437.124	0.031
437.44	0.0301
437.756	0.0312
438.072	0.0302
438.388	0.0305
438.704	0.0305
439.02	0.0306
439.336	0.0309
439.652	0.0308
439.968	0.0307
440.283	0.0306
440.599	0.031
440.914	0.0307
441.23	0.0304
441.545	0.0308
441.86	0.0308
442.175	0.0307
442.491	0.0302
442.806	0.0301
443.121	0.0292
443.435	0.0305
443.75	0.0292
444.065	0.03
444.38	0.0299
444.694	0.0296
445.009	0.0292
445.323	0.0299
445.638	0.0299
445.952	0.0294
446.266	0.0291
446.58	0.0276
446.894	0.0293
447.208	0.0285
447.522	0.028
447.836	0.0292
448.15	0.0283
448.464	0.028
448.777	0.0292
449.091	0.0283
449.404	0.0282
449.718	0.0287
450.031	0.0281
450.345	0.0283
450.658	0.0274
450.971	0.0283
451.284	0.0277
451.597	0.0283
451.91	0.0277
452.223	0.0277
452.535	0.027
452.848	0.0276
453.161	0.0273
453.473	0.0275
453.786	0.0275
454.098	0.027
454.411	0.0266
454.723	0.0269
455.035	0.0261
455.347	0.0265
455.659	0.0272
455.971	0.027
456.283	0.027
456.595	0.0268
456.907	0.0266
457.218	0.0275
457.53	0.0262
457.841	0.0259
458.153	0.0268
458.464	0.025
458.776	0.026
459.087	0.0254
459.398	0.0255
459.709	0.0253
460.02	0.0257
460.331	0.0254
460.642	0.0252
460.953	0.0247
461.263	0.0252
461.574	0.0244
461.885	0.0251
462.195	0.0246
462.506	0.0249
462.816	0.0252
463.126	0.0241
463.437	0.0239
463.747	0.0236
464.057	0.0229
464.367	0.022
464.677	0.0234
464.987	0.0232
465.296	0.0224
465.606	0.0226
465.916	0.0223
466.225	0.0221
466.535	0.0225
466.844	0.0222
467.154	0.0226
467.463	0.0226
467.772	0.022
468.081	0.0214
468.39	0.0223
468.699	0.0219
469.008	0.0219
469.317	0.0222
469.626	0.0212
469.935	0.0212
470.243	0.0208
470.552	0.0208
470.86	0.0214
471.169	0.021
471.477	0.0201
471.785	0.02
472.093	0.0203
472.402	0.02
472.71	0.0197
473.018	0.0197
473.326	0.0198
473.633	0.0192
473.941	0.0192
474.249	0.0192
474.556	0.0188
474.864	0.0193
475.171	0.0191
475.479	0.0178
475.786	0.0193
476.094	0.0187
476.401	0.0185
476.708	0.0181
477.015	0.0178
477.322	0.0169
477.629	0.0169
477.936	0.0176
478.242	0.0174
478.549	0.0174
478.856	0.0174
479.162	0.017
479.469	0.0167
479.775	0.016
480.081	0.0154
480.388	0.0156
480.694	0.0157
481	0.0158
481.306	0.015
481.612	0.016
481.918	0.0167
482.224	0.0156
482.53	0.0156
482.835	0.0151
483.141	0.0152
483.446	0.015
483.752	0.0144
484.057	0.0146
484.363	0.0145
484.668	0.0146
484.973	0.0137
485.278	0.0131
485.583	0.0131
485.888	0.0131
486.193	0.0123
486.498	0.0139
486.803	0.0137
487.107	0.0121
487.412	0.0111
487.717	0.0122
488.021	0.0121
488.325	0.012
488.63	0.0124
488.934	0.0124
489.238	0.0121
489.542	0.0122
489.846	0.0125
490.15	0.0125
490.454	0.0129
490.758	0.0114
491.062	0.0114
491.366	0.0116
491.669	0.0112
491.973	0.011
492.276	0.0104
492.58	0.0105
492.883	0.0114
493.186	0.0102
493.489	0.0116
493.792	0.0097
494.096	0.0095
494.399	0.0098
494.701	0.0094
495.004	0.0086
495.307	0.0097
495.61	0.0101
495.912	0.0101
496.215	0.0092
496.517	0.0099
496.82	0.009
497.122	0.0096
497.424	0.0091
497.727	0.0086
498.029	0.0086
498.331	0.008
498.633	0.0084
498.935	0.0087
499.237	0.0095
499.538	0.0087
499.84	0.008
500.142	0.0074
500.443	0.0082
500.745	0.0082
501.046	0.0085
501.348	0.0069
501.649	0.0071
501.95	0.0077
502.251	0.0084
502.552	0.0069
502.853	0.0079
503.154	0.0084
503.455	0.0069
503.756	0.0073
504.057	0.0066
504.357	0.0066
504.658	0.0071
504.958	0.0058
505.259	0.0067
505.559	0.0058
505.859	0.0055
506.16	0.0057
506.46	0.0068
506.76	0.0058
507.06	0.0053
507.36	0.0052
507.66	0.0069
507.96	0.0079
508.259	0.0057
508.559	0.0061
508.859	0.0057
509.158	0.0053
509.457	0.0052
509.757	0.0058
510.056	0.0051
510.355	0.0047
510.655	0.0041
510.954	0.0044
511.253	0.0045
511.552	0.0043
511.851	0.0043
512.149	0.0053
512.448	0.0041
512.747	0.0049
513.045	0.0042
513.344	0.0046
513.642	0.0058
513.941	0.0049
514.239	0.0039
514.537	0.0042
514.836	0.0034
515.134	0.0043
515.432	0.0035
515.73	0.0041
516.028	0.0036
516.326	0.0032
516.623	0.0025
516.921	0.0034
517.219	0.0052
517.516	0.0036
517.814	0.0042
518.111	0.0034
518.409	0.0043
518.706	0.004
519.003	0.0039
519.3	0.0027
519.597	0.0042
519.894	0.0027
520.191	0.0048
520.488	0.0038
520.785	0.003
521.082	0.0051
521.378	0.004
521.675	0.0026
521.971	0.0029
522.268	0.0037
522.564	0.0038
522.861	0.004
523.157	0.0036
523.453	0.003
523.749	0.0035
524.045	0.0031
524.341	0.0034
524.637	0.003
524.933	0.0046
525.229	0.0034
525.524	0.0025
525.82	0.0032
526.115	0.0032
526.411	0.0041
526.706	0.0032
527.002	0.0033
527.297	0.0018
527.592	0.0034
527.887	0.0028
528.182	0.0023
528.477	0.0031
528.772	0.002
529.067	0.003
529.362	0.0028
529.657	0.0031
529.951	0.0028
530.246	0.0016
530.54	0.0024
530.835	0.0027
531.129	0.0031
531.423	0.0029
531.718	0.0025
532.012	0.002
532.306	0.0027
532.6	0.0028
532.894	0.0029
533.188	0.0014
533.482	0.0031
533.775	0.0019
534.069	0.0025
534.363	0.0029
534.656	0.0014
534.95	0.0024
535.243	0.0015
535.536	0.0024
535.83	0.0026
536.123	0.0025
536.416	0.0021
536.709	0.0026
537.002	0.003
537.295	0.0027
537.588	0.0026
537.881	0.0017
538.173	0.0024
538.466	0.0031
538.759	0.0028
539.051	0.0034
539.344	0.0027
539.636	0.0029
539.928	0.0041
540.22	0.0025
540.513	0.0031
540.805	0.0032
541.097	0.0031
541.389	0.0022
541.681	0.0033
541.972	0.0028
542.264	0.0027
542.556	0.003
542.847	0.0019
543.139	0.0016
543.431	0.0014
543.722	0.0003
544.013	0.0022
544.305	0.0019
544.596	0.002
544.887	0.0016
545.178	0.0023
545.469	0.0028
545.76	0.0023
546.051	0.0026
546.342	0.0024
546.632	0.0027
546.923	0.0028
547.214	0.0019
547.504	0.003
547.795	0.0024
548.085	0.0025
548.375	0.0032
548.666	0.0026
548.956	0.0026
549.246	0.0036
549.536	0.0027
549.826	0.0036
550.116	0.0032
550.406	0.0039
550.695	0.0022
550.985	0.0038
551.275	0.004
551.564	0.0044
551.854	0.0043
552.143	0.0037
552.433	0.0035
552.722	0.0042
553.011	0.0042
553.3	0.0031
553.589	0.0046
553.879	0.0035
554.167	0.0035
554.456	0.0031
554.745	0.0038
555.034	0.0043
555.323	0.004
555.611	0.0035
555.9	0.004
556.188	0.0035
556.477	0.0028
556.765	0.0048
557.053	0.0034
557.342	0.0023
557.63	0.0033
557.918	0.0044
558.206	0.0039
558.494	0.0041
558.782	0.0022
559.069	0.0045
559.357	0.0034
559.645	0.004
559.932	0.0033
560.22	0.0037
560.507	0.0022
560.795	0.0027
561.082	0.002
561.37	0.0029
561.657	0.0034
561.944	0.003
562.231	0.0027
562.518	0.0022
562.805	0.0031
563.092	0.003
563.379	0.003
563.665	0.0028
563.952	0.0044
564.239	0.0045
564.525	0.0031
564.811	0.0038
565.098	0.0025
565.384	0.0032
565.67	0.0032
565.957	0.0039
566.243	0.0041
566.529	0.0036
566.815	0.0043
567.101	0.0038
567.387	0.0027
567.672	0.0034
567.958	0.0027
568.244	0.002
568.529	0.0028
568.815	0.003
569.1	0.0023
569.386	0.0034
569.671	0.0021
569.956	0.0031
570.242	0.0021
570.527	0.0019
570.812	0.0019
571.097	0.0015
571.382	0.0017
571.666	0.0012
571.951	0.003
572.236	0.0022
572.521	0.0026
572.805	0.0035
573.09	0.0026
573.374	0.0015
573.659	0.002
573.943	0.0024
574.227	0.0024
574.511	0.0026
574.795	0.0026
575.079	0.0023
575.363	0.0031
575.647	0.0026
575.931	0.0029
576.215	0.0029
576.499	0.0018
576.782	0.0014
577.066	0.0016
577.349	0.0024
577.633	0.003
577.916	0.0022
578.2	0.0027
578.483	0.0027
578.766	0.0034
579.049	0.0034
579.332	0.0038
579.615	0.0022
579.898	0.0011
580.181	0.0024
580.464	0.0033
580.746	0.0028
581.029	0.0028
581.312	0.0014
581.594	0.0012
581.877	0.0016
582.159	0.003
582.441	0.0014
582.724	0.0027
583.006	0.0029
583.288	0.0026
583.57	0.0028
583.852	0.0037
584.134	0.004
584.416	0.0025
584.697	0.0023
584.979	0.002
585.261	0.0017
585.542	0.0024
585.824	0.0025
586.105	0.0025
586.387	0.0024
586.668	0.0025
586.949	0.0032
587.231	0.0028
587.512	0.0029
587.793	0.002
588.074	0.0023
588.355	0.0027
588.636	0.0016
588.916	0.0026
589.197	0.0021
589.478	0.0024
589.758	0.0021
590.039	0.0013
590.319	0.0019
590.6	0.0026
590.88	0.0022
591.16	0.0016
591.441	0.0032
591.721	0.0021
592.001	0.0022
592.281	0.0026
592.561	0.0026
592.841	0.0021
593.12	0.0023
593.4	0.002
593.68	0.0022
593.959	0.002
594.239	0.0029
594.518	0.0049
594.798	0.0041
595.077	0.0024
595.356	0.0021
595.636	0.0025
595.915	0.0027
596.194	0.0032
596.473	0.0028
596.752	0.0022
597.031	0.0027
597.31	0.0023
597.588	0.0015
597.867	0.0011
598.146	0.0008
598.424	0.0015
598.703	0.0019
598.981	0.001
599.259	0.0009
599.538	0.0023
599.816	0.003
600.094	0.0023
600.372	0.0018
600.65	0.0032
600.928	0.0024
601.206	0.0023
601.484	0.0026
601.762	0.0039
602.04	0.0039
602.317	0.003
602.595	0.0037
602.872	0.0032
603.15	0.0037
603.427	0.002
603.704	0.0015
603.982	0.0018
604.259	0.0015
604.536	0.0015
604.813	0.0018
605.09	0.0023
605.367	0.0016
605.644	0.0014
605.921	0.001
606.197	0.0006
606.474	0.0024
606.751	0.0013
607.027	0.002
607.304	0.0012
607.58	0.0024
607.856	0.0023
608.133	0.0037
608.409	0.0034
608.685	0.0028
608.961	0.0035
609.237	0.0036
609.513	0.0036
609.789	0.0015
610.065	0.002
610.341	0.0013
610.616	0.0019
610.892	0.0026
611.167	0.0019
611.443	0.0023
611.718	0.002
611.994	0.0018
612.269	0.0015
612.544	0.0021
612.819	0.0018
613.095	0.0014
613.37	0.0011
613.645	0.0013
613.919	0.0023
614.194	0.0017
614.469	0.0016
614.744	0.0012
615.019	0.0011
615.293	0.0015
615.568	0.0015
615.842	0.0019
616.116	0.002
616.391	0.0014
616.665	0.0004
616.939	0.0007
617.213	0.0016
617.488	0.0016
617.762	0.0019
618.035	0.0024
618.309	0.0023
618.583	0.0029
618.857	0.0031
619.131	0.003
619.404	0.0022
619.678	0.0029
619.951	0.0026
620.225	0.0011
620.498	0.0011
620.771	0.0009
621.045	0.0015
621.318	0.0026
621.591	0.0032
621.864	0.0012
622.137	0.0011
622.41	0.0011
622.683	0.0017
622.956	0.0012
623.228	0.0018
623.501	0.003
623.774	0.0024
624.046	0.0023
624.319	0.0017
624.591	0.0013
624.863	0.0014
625.136	0.0034
625.408	0.0035
625.68	0.0026
625.952	0.0028
626.224	0.0032
626.496	0.0031
626.768	0.0024
627.04	0.0022
627.311	0.0033
627.583	0.0036
627.855	0.0032
628.126	0.0015
628.398	0.0023
628.669	0.0022
628.941	0.0009
629.212	0.0006
629.483	0.0021
629.755	0.0012
630.026	0.0017
630.297	0.0016
630.568	0.0019
630.839	0.0033
631.11	0.0025
631.38	0.0035
631.651	0.0039
631.922	0.0029
632.192	0.0031
632.463	0.0028
632.733	0.0028
633.004	0.003
633.274	0.002
633.545	0.0023
633.815	0.0036
634.085	0.0029
634.355	0.0026
634.625	0.0029
634.895	0.0029
635.165	0.0021
635.435	0.0036
635.705	0.0021
635.974	0.0025
636.244	0.0012
636.514	0.0007
636.783	0.0004
637.053	0.0004
637.322	0.0014
637.591	0.0016
637.861	-0.0004
638.13	0.001
638.399	0.002
638.668	0.0023
638.937	0.0037
639.206	0.003
639.475	0.0038
639.744	0.0026
640.013	0.0034
640.281	0.0026
640.55	0.0023
640.819	0.0016
641.087	0.0019
641.356	0.0017
641.624	0.0022
641.892	0.0033
642.161	0.003
642.429	0.0025
642.697	0.003
642.965	0.0025
643.233	0.0008
643.501	0.0013
643.769	0.0012
644.037	0.0018
644.305	0.0011
644.572	0.0009
644.84	0.0005
645.108	0.0017
645.375	0.0009
645.643	0.002
645.91	0.0018
646.177	0.0022
646.445	0.0009
646.712	0.0019
646.979	0.0013
647.246	0.0027
647.513	0.002
647.78	0.0015
648.047	-0.0003
648.314	-0.0004
648.58	-0.0013
648.847	-0.0015
649.114	-0.0023
649.38	-0.0011
649.647	-0.0016
649.913	-0.0003
650.18	0.0002
650.446	0.0024
650.712	0.0022
650.978	0.003
651.245	0.0025
651.511	0.0033
651.777	0.0023
652.043	0.0012
652.309	0.002
652.574	0.0016
652.84	0.0021
653.106	0.0026
653.371	0.003
653.637	0.0031
653.903	0.0026
654.168	0.0025
654.433	0.0019
654.699	0.0013
654.964	0
655.229	0.0006
655.494	0.0015
655.759	-0.0012
656.024	0.0004
656.289	-0
656.554	0.0003
656.819	0.0023
657.084	0.0032
657.349	0.0027
657.613	0.0025
657.878	0.001
658.142	0.0012
658.407	0.0016
658.671	0.0018
658.936	0.0019
659.2	0.0032
659.464	0.0015
659.728	0.0021
659.992	0.0003
660.256	0.0003
660.52	0.0006
660.784	0.0009
661.048	0.0005
661.312	0.0019
661.575	0.0024
661.839	0.0022
662.103	0.0021
662.366	0.0018
662.63	0.0024
662.893	0.002
663.156	0.0025
663.42	0.0031
663.683	0.0024
663.946	0.0036
664.209	0.0036
664.472	0.003
664.735	0.0034
664.998	0.0038
665.261	0.0047
665.524	0.0036
665.786	0.0038
666.049	0.0033
666.312	0.0023
666.574	0.0018
666.837	0.0032
667.099	0.0026
667.361	0.0034
667.624	0.0033
667.886	0.0034
668.148	0.0032
668.41	0.0033
668.672	0.0036
668.934	0.004
669.196	0.0023
669.458	0.0021
669.72	0.0014
669.982	0.0026
670.243	0.0029
670.505	0.0027
670.766	0.0018
671.028	0.0027
671.289	0.0027
671.551	0.0028
671.812	0.0018
672.073	0.0032
672.334	0.0026
672.596	0.0015
672.857	0.0032
673.118	0.0038
673.379	0.0037
673.639	0.0039
673.9	0.0027
674.161	0.0024
674.422	0.0032
674.682	0.0022
674.943	0.0027
675.203	0.0029
675.464	0.0021
675.724	0.0019
675.985	0.0019
676.245	0.002
676.505	0.0005
676.765	0.0012
677.025	0.0017
677.285	0.0015
677.545	0.0017
677.805	0.0007
678.065	0.0014
678.325	0.0029
678.585	0.0043
678.844	0.0032
679.104	0.0049
679.363	0.0048
679.623	0.0042
679.882	0.0046
680.142	0.0049
680.401	0.0051
680.66	0.0055
680.919	0.0031
681.178	0.0042
681.437	0.0039
681.696	0.0023
681.955	0.0045
682.214	0.0046
682.473	0.005
682.732	0.0025
682.99	0.0049
683.249	0.0043
683.508	0.0046
683.766	0.0034
684.024	0.0033
684.283	0.0014
684.541	0.0013
684.799	0.0014
685.058	-0.0002
685.316	-0.0006
685.574	-0.0016
685.832	-0.0001
686.09	-0.0001
686.348	-0.0007
686.606	0.0006
686.863	0.0002
687.121	0.0002
687.379	-0.0001
687.636	-0.0012
687.894	-0.0002
688.151	-0.0007
688.409	0.0004
688.666	0.0008
688.923	0.0014
689.181	0.0009
689.438	0.0006
689.695	-0.0001
689.952	0
690.209	0.0001
690.466	-0.0001
690.723	0.0001
690.979	-0.0003
691.236	-0.0004
691.493	-0.0016
691.75	-0.0009
692.006	-0.0008
692.263	-0.001
692.519	-0.0014
692.775	-0.0023
693.032	-0.0018
693.288	-0.0025
693.544	-0.0013
693.8	0.0006
694.056	-0.0004
694.313	-0.0001
694.568	0.0013
694.824	0.0004
695.08	-0.0003
695.336	0.0007
695.592	-0.0005
695.847	0.001
696.103	0.0019
696.359	0.0027
696.614	0.0017
696.869	0.0006
697.125	-0.0011
697.38	-0.0009
697.635	0.0008
697.891	0.002
698.146	0.0014
698.401	0.0025
698.656	0.0016
698.911	0.0021
699.166	0.0015
699.42	0.0032
699.675	0.0036
699.93	0.0034
700.185	0.0038
700.439	0.0019
700.694	0.0017
700.948	0.0018
701.203	0.0015
701.457	0.0018
701.711	0.0017
701.965	0
702.22	0.0004
702.474	0.0008
702.728	0.0005
702.982	0.0008
703.236	0.0015
703.49	0.0019
703.743	0.0011
703.997	0.0012
704.251	0.0008
704.504	0.0018
704.758	0.0017
705.012	0.002
705.265	0.0032
705.518	0.0033
705.772	0.0038
706.025	0.0044
706.278	0.0034
706.531	0.0026
706.785	0.0003
707.038	0.0001
707.291	0.001
707.543	-0.0001
707.796	-0.0003
708.049	-0
708.302	-0.0001
708.555	-0.0005
708.807	0.0006
709.06	0.0003
709.312	0.002
709.565	0.0019
709.817	0.0044
710.069	0.0025
710.322	0.0035
710.574	0.0028
710.826	0.0015
711.078	0.0016
711.33	0.0011
711.582	0.0015
711.834	0.0007
712.086	0.0013
712.338	0.0014
712.59	-0.0003
712.841	-0.001
713.093	-0.0002
713.344	0.0011
713.596	-0.0003
713.847	-0.0015
714.099	-0.0009
714.35	0.0001
714.601	-0.0007
714.853	-0.0018
715.104	-0.0005
715.355	-0.0009
715.606	0.0005
715.857	0.0008
716.108	0.0017
716.359	0.0019
716.609	0.0008
716.86	0.0023
717.111	0.0018
717.361	0.0009
717.612	0.0012
717.863	0.0013
718.113	0.002
718.363	0.0018
718.614	0.0018
718.864	0.0019
719.114	0.0021
719.364	0.0004
719.614	0.0001
719.865	0.0013
720.114	0.0024
720.364	0.002
720.614	0.0006
720.864	0.0009
721.114	-0.0002
721.364	0.0001
721.613	-0.0012
721.863	-0.0012
722.112	-0.0002
722.362	0.0003
722.611	0.001
722.86	0.001
723.11	0.0015
723.359	0.0025
723.608	0.0012
723.857	0.0028
724.106	0.0013
724.355	0.0015
724.604	0.0012
724.853	0.0004
725.102	-0.0009
725.351	-0.0026
725.599	-0.0028
725.848	-0.0012
726.097	0.0003
726.345	-0.0004
726.594	-0.0002
726.842	0.0014
727.09	0.0004
727.339	-0.0006
727.587	-0.0012
727.835	-0.0014
728.083	-0.0014
728.331	-0.0017
728.579	-0.0004
728.827	-0.0015
729.075	-0.0033
729.323	-0.0033
729.571	-0.003
729.818	-0.0032
730.066	-0.0018
730.314	-0.0018
730.561	-0.0021
730.809	-0.0036
731.056	-0.0029
731.303	-0.0031
731.551	-0.002
731.798	-0.0022
732.045	-0.0006
732.292	-0.0013
732.539	-0.0003
732.786	-0.0014
733.033	-0.0016
733.28	-0.0016
733.527	-0.0009
733.774	-0.0021
734.021	-0.0022
734.267	-0.0025
734.514	-0.0024
734.76	-0.0023
735.007	-0.0016
735.253	-0.0001
735.5	0.001
735.746	0.0021
735.992	0.0008
736.238	0.002
736.485	0.0008
736.731	0.0023
736.977	0.0007
737.223	0
737.469	0.0004
737.715	0.0004
737.96	0.0009
738.206	0.0007
738.452	0.0011
738.697	0.0006
738.943	-0.0003
739.189	0.0004
739.434	-0.0005
739.679	0.0006
739.925	0.0023
740.17	0.0028
740.415	0.0022
740.66	0.0024
740.906	0.0018
741.151	0.0017
741.396	0.001
741.641	0.0004
741.886	0.0013
742.13	0.0008
742.375	0.0014
742.62	0.0002
742.865	0.0001
743.109	0.0013
743.354	0.0009
743.598	0.0005
743.843	-0.0007
744.087	-0.0006
744.331	-0.0007
744.576	0.0004
744.82	0.0012
745.064	0.0014
745.308	0.0019
745.552	0.0015
745.796	0.0002
746.04	0.0006
746.284	-0.0004
746.528	0.0003
746.771	-0.0001
747.015	0.0006
747.259	-0.0006
747.502	-0.0002
747.746	0.0007
747.989	0.0011
748.233	0.0019
748.476	0.0017
748.719	0.0019
748.963	0.0021
749.206	0.0012
749.449	0.0013
749.692	0.0001
749.935	0.0008
750.178	0.001
750.421	-0.0004
750.664	-0.0001
750.906	-0.0003
751.149	-0.001
751.392	-0.0002
751.635	-0.0002
751.877	-0.0001
752.12	0.0001
752.362	0.001
752.604	0.0014
752.847	0.0007
753.089	0.0008
753.331	0.0014
753.573	0.0009
753.816	0.0017
754.058	0.0017
754.3	0.0019
754.542	0.0026
754.783	0.0021
755.025	0.0028
755.267	0.0022
755.509	0.0023
755.75	0.0014
755.992	0.0019
756.234	0.0022
756.475	0.0029
756.716	0.0023
756.958	0.0018
757.199	0.0019
757.44	0.0026
757.682	0.0014
757.923	0.0023
758.164	0.0024
758.405	0.0025
758.646	0.0021
758.887	0.0016
759.128	0.001
759.369	-0.0002
759.609	0.0007
759.85	0.0001
760.091	0.0013
760.331	0.0016
760.572	0.001
760.812	-0.0002
761.053	0.0006
761.293	0.002
761.533	0.0022
761.774	0.0025
762.014	0.0025
762.254	0.0023
762.494	0.0028
762.734	0.0012
762.974	0.002
763.214	0.0019
763.454	0.002
763.694	0.0024
763.933	0.0029
764.173	0.0043
764.413	0.0036
764.652	0.0015
764.892	0.001
765.131	-0
765.371	0.0002
765.61	-0
765.849	-0.001
766.089	-0.002
766.328	-0.0007
766.567	-0.0018
766.806	-0.0017
767.045	-0.0026
767.284	-0.0006
767.523	-0.0018
767.762	-0.0019
768.001	-0.0011
768.239	-0.0007
768.478	-0.0016
768.717	-0.0017
768.955	-0.0018
769.194	-0.001
769.432	-0.0002
769.671	-0.0007
769.909	-0.0005
770.148	-0.0008
770.386	-0.0001
770.624	-0.0005
770.862	-0.0012
771.1	-0.0007
771.338	-0.0021
771.576	-0.0003
771.814	0.0001
772.052	-0.0001
772.29	0.0015
772.528	0.0009
772.765	-0.0001
773.003	0.0011
773.24	0.001
773.478	0.0015
773.716	0.0022
773.953	0.0016
774.19	0.0023
774.428	0.0029
774.665	0.0035
774.902	0.0041
775.139	0.0032
775.376	0.0008
775.613	0.0024
775.85	0.0033
776.087	0.0036
776.324	0.003
776.561	0.0021
776.798	0.0019
777.034	0.0021
777.271	0.002
777.508	0.0016
777.744	0.0034
777.981	0.0028
778.217	0.0017
778.454	0.0021
778.69	0.0015
778.926	0.0024
779.162	0.0016
779.399	0.0028
779.635	0.0014
779.871	0.0017
780.107	0.001
780.343	0.0001
780.579	0.0009
780.814	0.0008
781.05	0.0002
781.286	-0.0005
781.522	-0.0006
781.757	-0.0011
781.993	-0
782.228	-0.0006
782.464	0.0002
782.699	0.0004
782.934	-0
783.17	0.0002
783.405	0.0013
783.64	0.0006
783.875	0.0001
784.11	0.0001
784.345	0.0009
784.58	0.0012
784.815	0.0008
785.05	0.0008
785.285	-0.0002
785.52	0.0011
785.754	0
785.989	0.0014
786.223	0.0029
786.458	0.0028
786.692	0.004
786.927	0.0054
787.161	0.0051
787.396	0.0057
787.63	0.0052
787.864	0.0038
788.098	0.0024
788.332	0.0019
788.566	0.0008
788.8	0.0009
789.034	0.0018
789.268	0.0005
789.502	0.0001
789.736	0.0007
789.969	0.0009
790.203	0.0013
790.437	0.0023
790.67	0.0022
790.904	0.0042
791.137	0.0044
791.37	0.0041
791.604	0.0048
791.837	0.0053
792.07	0.0057
792.303	0.0061
792.537	0.0066
792.77	0.006
793.003	0.0055
793.236	0.0052
793.469	0.0043
793.701	0.0032
793.934	0.0024
794.167	0.0011
794.4	0.0003
794.632	-0.0003
794.865	-0.0007
795.097	-0.0005
795.33	0.0007
795.562	0.0002
795.795	-0.0001
796.027	0.0003
796.259	0.0013
796.491	0.0006
796.724	0.0007
796.956	0.0015
797.188	0.0009
797.42	0.0013
797.652	0.002
797.883	0.0019
798.115	0.0025
798.347	0.0028
798.579	0.0014
798.81	0.0024
799.042	0.0024
799.274	0.0026
799.505	0.0028
799.737	0.0023
799.968	0.0024
800.199	0.0022
800.431	0.0024
800.662	0.0019
800.893	0.0021
801.124	0.002
801.355	0.0026
801.586	0.0045
801.817	0.0056
802.048	0.0056
802.279	0.0049
802.51	0.0058
802.741	0.007
802.971	0.0057
803.202	0.0047
803.433	0.0047
803.663	0.0041
803.894	0.0039
804.124	0.0033
804.354	0.0047
804.585	0.0061
804.815	0.0053
805.045	0.0063
805.275	0.0046
805.506	0.0081
805.736	-0.1075
805.966	-0.2387
806.196	-0.1492
