Data from 03 0.4 mM K2Cr2O7 0.25 M BQDS 1 M H2SO4 5 min_Absorbance_0048.txt Node
Date: Tue Dec 14 21:30:12 EST 2021
User: kwabilab-user
Spectrometer: HDX00518
Trigger mode: 0
Integration Time (sec): 5.000000E-2
Scans to average: 50
Nonlinearity correction enabled: false
Boxcar width: 0
Storing dark spectrum: false
XAxis mode: Wavelengths
Number of Pixels in Spectrum: 2068
>>>>>Begin Spectral Data<<<<<
195.27	-0.0149
195.642	0.2293
196.014	-0.0621
196.386	0.0033
196.758	-0.0614
197.129	-0.0105
197.501	-0.0375
197.872	0.0086
198.244	0.017
198.615	0.0529
198.986	0.0228
199.357	0.0299
199.728	0.0464
200.099	0.0149
200.47	0.0359
200.841	0.0277
201.212	0.0268
201.582	0.0209
201.953	0.0443
202.323	0.0466
202.694	0.0102
203.064	0.0152
203.434	0.0069
203.804	0.0251
204.174	0.0325
204.544	0.0407
204.914	0.0277
205.284	0.0163
205.653	0.0244
206.023	0.0244
206.393	0.0252
206.762	0.0322
207.131	0.0288
207.501	0.0402
207.87	0.0213
208.239	0.0217
208.608	0.0444
208.977	0.0189
209.346	0.0187
209.715	0.0202
210.083	0.0445
210.452	0.013
210.82	0.034
211.189	0.0162
211.557	0.0266
211.925	-0.0053
212.294	0.0182
212.662	0.05
213.03	0.0275
213.398	0.0244
213.766	0.0252
214.133	0.0318
214.501	0.0333
214.869	0.0144
215.236	0.0111
215.604	0.0415
215.971	0.0799
216.338	0.0492
216.705	0.0162
217.072	0.0452
217.439	0.0314
217.806	0.053
218.173	0.0505
218.54	0.0625
218.907	0.0648
219.273	0.0534
219.64	0.0934
220.006	0.0736
220.373	0.0881
220.739	0.1136
221.105	0.1419
221.471	0.1388
221.837	0.177
222.203	0.196
222.569	0.1861
222.935	0.2221
223.3	0.2315
223.666	0.2527
224.031	0.2755
224.397	0.289
224.762	0.3077
225.127	0.3384
225.493	0.3737
225.858	0.3916
226.223	0.4156
226.588	0.4494
226.952	0.4386
227.317	0.4874
227.682	0.4979
228.046	0.5074
228.411	0.5154
228.775	0.5485
229.14	0.549
229.504	0.5605
229.868	0.5761
230.232	0.5842
230.596	0.6012
230.96	0.6254
231.324	0.6024
231.688	0.6152
232.052	0.6388
232.415	0.6289
232.779	0.637
233.142	0.6386
233.505	0.6488
233.869	0.6498
234.232	0.6463
234.595	0.6592
234.958	0.6575
235.321	0.6526
235.684	0.6566
236.047	0.655
236.409	0.6371
236.772	0.6464
237.134	0.653
237.497	0.6405
237.859	0.6578
238.222	0.6482
238.584	0.6417
238.946	0.6398
239.308	0.6325
239.67	0.6436
240.032	0.6326
240.393	0.6282
240.755	0.619
241.117	0.6245
241.478	0.6116
241.84	0.6218
242.201	0.6133
242.562	0.6108
242.924	0.6105
243.285	0.6076
243.646	0.6042
244.007	0.602
244.368	0.6031
244.728	0.6008
245.089	0.5996
245.45	0.5895
245.81	0.5948
246.171	0.5931
246.531	0.583
246.891	0.594
247.252	0.5822
247.612	0.588
247.972	0.5845
248.332	0.5816
248.692	0.5858
249.051	0.5796
249.411	0.5808
249.771	0.5823
250.13	0.5784
250.49	0.5768
250.849	0.5813
251.208	0.5828
251.568	0.5856
251.927	0.5766
252.286	0.5812
252.645	0.5816
253.004	0.5786
253.363	0.5726
253.721	0.5793
254.08	0.5829
254.439	0.57
254.797	0.5759
255.155	0.5717
255.514	0.5693
255.872	0.5777
256.23	0.576
256.588	0.5779
256.946	0.5739
257.304	0.5759
257.662	0.5695
258.02	0.5667
258.377	0.5734
258.735	0.5717
259.093	0.563
259.45	0.5671
259.807	0.5726
260.165	0.5653
260.522	0.5722
260.879	0.5635
261.236	0.5667
261.593	0.5611
261.95	0.5622
262.306	0.5564
262.663	0.5587
263.02	0.5557
263.376	0.5526
263.733	0.5554
264.089	0.5567
264.445	0.5486
264.802	0.5486
265.158	0.5477
265.514	0.5472
265.87	0.5461
266.226	0.5398
266.581	0.5409
266.937	0.5372
267.293	0.5397
267.648	0.5325
268.004	0.528
268.359	0.5313
268.714	0.5222
269.07	0.5268
269.425	0.5219
269.78	0.5207
270.135	0.5162
270.49	0.5145
270.844	0.5158
271.199	0.5099
271.554	0.5005
271.908	0.5001
272.263	0.5014
272.617	0.4952
272.972	0.4939
273.326	0.4914
273.68	0.4863
274.034	0.4851
274.388	0.4817
274.742	0.4838
275.096	0.4766
275.45	0.4741
275.803	0.4726
276.157	0.4648
276.51	0.4604
276.864	0.4607
277.217	0.4586
277.571	0.4513
277.924	0.4465
278.277	0.4416
278.63	0.4367
278.983	0.4347
279.336	0.4333
279.688	0.4283
280.041	0.4236
280.394	0.4161
280.746	0.4173
281.099	0.4121
281.451	0.4078
281.803	0.4048
282.156	0.3996
282.508	0.3922
282.86	0.3924
283.212	0.3889
283.564	0.3818
283.916	0.3753
284.267	0.3743
284.619	0.3704
284.971	0.3673
285.322	0.3642
285.673	0.3583
286.025	0.3541
286.376	0.3556
286.727	0.3476
287.078	0.3439
287.429	0.3422
287.78	0.3353
288.131	0.3346
288.482	0.3286
288.833	0.3245
289.183	0.3209
289.534	0.3173
289.884	0.3151
290.235	0.3098
290.585	0.3061
290.935	0.3021
291.285	0.301
291.635	0.2954
291.985	0.2937
292.335	0.2877
292.685	0.287
293.035	0.2807
293.384	0.2771
293.734	0.272
294.083	0.2698
294.433	0.2674
294.782	0.2654
295.131	0.2608
295.48	0.2584
295.829	0.2537
296.179	0.2513
296.527	0.2469
296.876	0.2452
297.225	0.2387
297.574	0.2374
297.922	0.2334
298.271	0.23
298.619	0.2263
298.968	0.225
299.316	0.222
299.664	0.22
300.012	0.2155
300.36	0.2124
300.708	0.2104
301.056	0.2076
301.404	0.2052
301.752	0.2025
302.099	0.1991
302.447	0.197
302.794	0.1948
303.142	0.1917
303.489	0.1889
303.836	0.1875
304.183	0.1855
304.531	0.184
304.878	0.1813
305.224	0.1795
305.571	0.1787
305.918	0.1759
306.265	0.1731
306.611	0.1722
306.958	0.1716
307.304	0.1691
307.651	0.1685
307.997	0.1667
308.343	0.1646
308.689	0.1648
309.035	0.1627
309.381	0.1607
309.727	0.1605
310.073	0.1599
310.419	0.1593
310.764	0.1579
311.11	0.1564
311.455	0.1566
311.801	0.1554
312.146	0.1535
312.491	0.1539
312.837	0.1539
313.182	0.1528
313.527	0.1525
313.872	0.1526
314.216	0.1521
314.561	0.1516
314.906	0.1514
315.251	0.1522
315.595	0.1513
315.94	0.1514
316.284	0.1512
316.628	0.1513
316.972	0.1524
317.317	0.1514
317.661	0.152
318.005	0.1516
318.348	0.1522
318.692	0.1525
319.036	0.1529
319.38	0.1532
319.723	0.1539
320.067	0.1547
320.41	0.1547
320.754	0.1558
321.097	0.1555
321.44	0.1567
321.783	0.1579
322.126	0.1589
322.469	0.1585
322.812	0.1595
323.155	0.1603
323.498	0.1611
323.84	0.1619
324.183	0.1632
324.525	0.1637
324.868	0.1657
325.21	0.1659
325.552	0.167
325.894	0.1684
326.236	0.1682
326.578	0.1692
326.92	0.171
327.262	0.1719
327.604	0.1719
327.946	0.1739
328.287	0.1748
328.629	0.1758
328.97	0.1768
329.312	0.1777
329.653	0.1804
329.994	0.1809
330.335	0.1817
330.676	0.1833
331.017	0.1837
331.358	0.1855
331.699	0.187
332.04	0.1874
332.38	0.1894
332.721	0.1903
333.061	0.191
333.402	0.1931
333.742	0.1939
334.083	0.1944
334.423	0.1961
334.763	0.1972
335.103	0.1979
335.443	0.1987
335.783	0.2
336.123	0.2011
336.462	0.2017
336.802	0.2032
337.141	0.2033
337.481	0.2047
337.82	0.2056
338.16	0.2067
338.499	0.2079
338.838	0.2093
339.177	0.2099
339.516	0.2099
339.855	0.211
340.194	0.2127
340.533	0.213
340.872	0.2126
341.21	0.2142
341.549	0.2146
341.887	0.2161
342.226	0.2155
342.564	0.2163
342.902	0.2171
343.24	0.2168
343.578	0.2178
343.916	0.2177
344.254	0.2184
344.592	0.2197
344.93	0.2195
345.268	0.2182
345.605	0.2192
345.943	0.2192
346.28	0.2189
346.618	0.219
346.955	0.2194
347.292	0.2197
347.629	0.2199
347.966	0.2193
348.303	0.2196
348.64	0.2202
348.977	0.2198
349.314	0.2199
349.65	0.2198
349.987	0.2201
350.324	0.2194
350.66	0.2201
350.996	0.2193
351.333	0.2182
351.669	0.2179
352.005	0.2178
352.341	0.2167
352.677	0.2163
353.013	0.2145
353.349	0.2142
353.685	0.2133
354.02	0.2134
354.356	0.2119
354.691	0.2109
355.027	0.2098
355.362	0.2082
355.697	0.208
356.033	0.2075
356.368	0.2066
356.703	0.2051
357.038	0.2052
357.373	0.2034
357.707	0.2036
358.042	0.2023
358.377	0.2013
358.711	0.2012
359.046	0.2001
359.38	0.1988
359.715	0.1978
360.049	0.1969
360.383	0.1954
360.717	0.1941
361.051	0.194
361.385	0.1928
361.719	0.1905
362.053	0.1903
362.387	0.1882
362.72	0.1866
363.054	0.1847
363.387	0.1832
363.721	0.1821
364.054	0.1805
364.387	0.1789
364.721	0.1767
365.054	0.1762
365.387	0.1752
365.72	0.1734
366.053	0.1715
366.385	0.1695
366.718	0.1691
367.051	0.1678
367.383	0.167
367.716	0.1658
368.048	0.1649
368.381	0.164
368.713	0.162
369.045	0.161
369.377	0.1597
369.709	0.1584
370.041	0.1575
370.373	0.1558
370.705	0.1545
371.037	0.1541
371.368	0.152
371.7	0.1508
372.031	0.15
372.363	0.148
372.694	0.1466
373.025	0.1447
373.356	0.1434
373.688	0.1408
374.019	0.1401
374.35	0.1379
374.68	0.1361
375.011	0.134
375.342	0.1331
375.673	0.1314
376.003	0.1292
376.334	0.1286
376.664	0.1262
376.995	0.1258
377.325	0.124
377.655	0.1224
377.985	0.1212
378.315	0.1204
378.645	0.119
378.975	0.1183
379.305	0.1154
379.635	0.1158
379.964	0.1144
380.294	0.114
380.623	0.1123
380.953	0.1104
381.282	0.1105
381.611	0.1094
381.941	0.1085
382.27	0.1067
382.599	0.106
382.928	0.1038
383.257	0.1033
383.585	0.1017
383.914	0.1
384.243	0.0988
384.571	0.0975
384.9	0.0962
385.228	0.0945
385.557	0.0933
385.885	0.0915
386.213	0.091
386.541	0.0891
386.869	0.0876
387.197	0.0862
387.525	0.0856
387.853	0.0835
388.181	0.0832
388.508	0.0817
388.836	0.0804
389.164	0.0794
389.491	0.0777
389.818	0.0766
390.146	0.0764
390.473	0.0756
390.8	0.0747
391.127	0.0728
391.454	0.072
391.781	0.0713
392.108	0.0712
392.435	0.0695
392.761	0.0691
393.088	0.0685
393.415	0.0674
393.741	0.0676
394.067	0.0668
394.394	0.0656
394.72	0.0646
395.046	0.0636
395.372	0.0629
395.698	0.0623
396.024	0.0609
396.35	0.0606
396.676	0.0598
397.001	0.0587
397.327	0.0577
397.653	0.0566
397.978	0.0565
398.303	0.0558
398.629	0.055
398.954	0.0543
399.279	0.0537
399.604	0.0536
399.929	0.0525
400.254	0.0514
400.579	0.0513
400.904	0.05
401.229	0.0503
401.553	0.0497
401.878	0.0489
402.202	0.0491
402.527	0.0474
402.851	0.0485
403.175	0.0471
403.5	0.0468
403.824	0.046
404.148	0.046
404.472	0.0458
404.796	0.0452
405.119	0.0447
405.443	0.0449
405.767	0.0446
406.09	0.0449
406.414	0.0438
406.737	0.0443
407.061	0.044
407.384	0.0439
407.707	0.0433
408.03	0.0423
408.353	0.0424
408.676	0.0426
408.999	0.0426
409.322	0.0424
409.645	0.0417
409.968	0.0418
410.29	0.0416
410.613	0.0424
410.935	0.0414
411.258	0.0421
411.58	0.0409
411.902	0.0408
412.224	0.0404
412.546	0.041
412.868	0.0415
413.19	0.0406
413.512	0.0414
413.834	0.0412
414.156	0.041
414.477	0.0401
414.799	0.0403
415.121	0.0401
415.442	0.0401
415.763	0.0399
416.085	0.0407
416.406	0.0398
416.727	0.0406
417.048	0.0404
417.369	0.0401
417.69	0.0399
418.011	0.04
418.331	0.0402
418.652	0.0399
418.973	0.0396
419.293	0.0399
419.614	0.0393
419.934	0.0403
420.254	0.0403
420.574	0.0391
420.895	0.0395
421.215	0.0394
421.535	0.0405
421.855	0.0392
422.174	0.0382
422.494	0.0389
422.814	0.0392
423.134	0.0395
423.453	0.0398
423.773	0.0401
424.092	0.0401
424.411	0.0391
424.731	0.0391
425.05	0.0401
425.369	0.0398
425.688	0.0397
426.007	0.0397
426.326	0.0393
426.644	0.0395
426.963	0.0394
427.282	0.0397
427.6	0.0397
427.919	0.0399
428.237	0.0406
428.556	0.0395
428.874	0.0397
429.192	0.0396
429.51	0.0394
429.828	0.0391
430.146	0.0399
430.464	0.0392
430.782	0.0392
431.1	0.0389
431.418	0.0388
431.735	0.0393
432.053	0.0391
432.37	0.0392
432.688	0.0389
433.005	0.0385
433.322	0.0398
433.639	0.0395
433.957	0.0393
434.274	0.0394
434.591	0.0391
434.907	0.0389
435.224	0.0392
435.541	0.0392
435.858	0.0398
436.174	0.0398
436.491	0.0393
436.807	0.039
437.124	0.0392
437.44	0.0396
437.756	0.0393
438.072	0.0389
438.388	0.0389
438.704	0.0385
439.02	0.0389
439.336	0.0387
439.652	0.0386
439.968	0.0383
440.283	0.0395
440.599	0.0389
440.914	0.0384
441.23	0.0389
441.545	0.0385
441.86	0.0388
442.175	0.039
442.491	0.0384
442.806	0.0379
443.121	0.038
443.435	0.0377
443.75	0.0378
444.065	0.0385
444.38	0.0375
444.694	0.0378
445.009	0.0378
445.323	0.038
445.638	0.0379
445.952	0.0374
446.266	0.037
446.58	0.0369
446.894	0.0378
447.208	0.037
447.522	0.0366
447.836	0.037
448.15	0.0366
448.464	0.0365
448.777	0.0371
449.091	0.0368
449.404	0.0366
449.718	0.0365
450.031	0.0358
450.345	0.0364
450.658	0.0354
450.971	0.0352
451.284	0.0355
451.597	0.0358
451.91	0.0358
452.223	0.0352
452.535	0.0352
452.848	0.0352
453.161	0.0354
453.473	0.0356
453.786	0.0344
454.098	0.0349
454.411	0.0343
454.723	0.0347
455.035	0.0341
455.347	0.0346
455.659	0.035
455.971	0.0348
456.283	0.0346
456.595	0.0353
456.907	0.0346
457.218	0.0347
457.53	0.0334
457.841	0.0332
458.153	0.0336
458.464	0.0328
458.776	0.0335
459.087	0.033
459.398	0.033
459.709	0.0325
460.02	0.0331
460.331	0.0332
460.642	0.0323
460.953	0.0318
461.263	0.0324
461.574	0.0311
461.885	0.0328
462.195	0.031
462.506	0.0315
462.816	0.0324
463.126	0.0319
463.437	0.0311
463.747	0.0307
464.057	0.0295
464.367	0.0298
464.677	0.0305
464.987	0.0298
465.296	0.0297
465.606	0.0295
465.916	0.0288
466.225	0.0293
466.535	0.0293
466.844	0.0295
467.154	0.0289
467.463	0.029
467.772	0.0286
468.081	0.0287
468.39	0.029
468.699	0.0287
469.008	0.0285
469.317	0.0282
469.626	0.0281
469.935	0.0272
470.243	0.0281
470.552	0.0269
470.86	0.0271
471.169	0.0269
471.477	0.0259
471.785	0.0261
472.093	0.0259
472.402	0.0258
472.71	0.0257
473.018	0.0253
473.326	0.026
473.633	0.0252
473.941	0.0258
474.249	0.0254
474.556	0.0237
474.864	0.0253
475.171	0.0249
475.479	0.0238
475.786	0.0249
476.094	0.0238
476.401	0.0241
476.708	0.0246
477.015	0.0236
477.322	0.0224
477.629	0.0227
477.936	0.023
478.242	0.0228
478.549	0.023
478.856	0.0223
479.162	0.0229
479.469	0.0217
479.775	0.0219
480.081	0.0208
480.388	0.0209
480.694	0.0214
481	0.0207
481.306	0.0214
481.612	0.0217
481.918	0.0217
482.224	0.0212
482.53	0.0204
482.835	0.0207
483.141	0.0207
483.446	0.0205
483.752	0.0194
484.057	0.0195
484.363	0.0191
484.668	0.0202
484.973	0.019
485.278	0.0179
485.583	0.0177
485.888	0.019
486.193	0.0173
486.498	0.0186
486.803	0.0179
487.107	0.018
487.412	0.0167
487.717	0.017
488.021	0.0175
488.325	0.0175
488.63	0.0176
488.934	0.0171
489.238	0.0167
489.542	0.0168
489.846	0.0165
490.15	0.0166
490.454	0.0172
490.758	0.0157
491.062	0.0157
491.366	0.0154
491.669	0.0156
491.973	0.015
492.276	0.0148
492.58	0.0144
492.883	0.015
493.186	0.0149
493.489	0.015
493.792	0.014
494.096	0.0135
494.399	0.0141
494.701	0.0141
495.004	0.0122
495.307	0.0135
495.61	0.0137
495.912	0.0141
496.215	0.0134
496.517	0.0143
496.82	0.0134
497.122	0.0134
497.424	0.0125
497.727	0.0123
498.029	0.0123
498.331	0.0122
498.633	0.0115
498.935	0.0118
499.237	0.0124
499.538	0.0118
499.84	0.0117
500.142	0.0111
500.443	0.0117
500.745	0.0117
501.046	0.0112
501.348	0.0105
501.649	0.0109
501.95	0.0105
502.251	0.0113
502.552	0.0098
502.853	0.011
503.154	0.0113
503.455	0.0102
503.756	0.0109
504.057	0.0102
504.357	0.0102
504.658	0.0102
504.958	0.0097
505.259	0.0104
505.559	0.0091
505.859	0.0089
506.16	0.009
506.46	0.009
506.76	0.0087
507.06	0.0082
507.36	0.008
507.66	0.009
507.96	0.0099
508.259	0.0078
508.559	0.0088
508.859	0.0084
509.158	0.0083
509.457	0.0072
509.757	0.0081
510.056	0.0075
510.355	0.0087
510.655	0.0073
510.954	0.0066
511.253	0.0073
511.552	0.008
511.851	0.0067
512.149	0.0074
512.448	0.0071
512.747	0.0061
513.045	0.0065
513.344	0.0069
513.642	0.0067
513.941	0.0076
514.239	0.0066
514.537	0.0062
514.836	0.0059
515.134	0.0062
515.432	0.0049
515.73	0.0061
516.028	0.0051
516.326	0.0057
516.623	0.0054
516.921	0.0057
517.219	0.0067
517.516	0.0047
517.814	0.0067
518.111	0.0057
518.409	0.0065
518.706	0.0066
519.003	0.0051
519.3	0.0055
519.597	0.0058
519.894	0.0053
520.191	0.0059
520.488	0.006
520.785	0.0037
521.082	0.0058
521.378	0.0062
521.675	0.0038
521.971	0.0047
522.268	0.0055
522.564	0.0056
522.861	0.0066
523.157	0.0045
523.453	0.0054
523.749	0.0045
524.045	0.0052
524.341	0.0039
524.637	0.0052
524.933	0.0059
525.229	0.0055
525.524	0.0043
525.82	0.0052
526.115	0.0047
526.411	0.0046
526.706	0.0041
527.002	0.0044
527.297	0.0034
527.592	0.0045
527.887	0.0023
528.182	0.0035
528.477	0.0045
528.772	0.0041
529.067	0.0046
529.362	0.005
529.657	0.0039
529.951	0.0035
530.246	0.0033
530.54	0.0038
530.835	0.0037
531.129	0.0038
531.423	0.0026
531.718	0.0039
532.012	0.0038
532.306	0.0045
532.6	0.0032
532.894	0.0029
533.188	0.0029
533.482	0.003
533.775	0.0036
534.069	0.0028
534.363	0.0029
534.656	0.003
534.95	0.0039
535.243	0.0036
535.536	0.0027
535.83	0.0029
536.123	0.0019
536.416	0.0034
536.709	0.0036
537.002	0.0043
537.295	0.003
537.588	0.0038
537.881	0.0024
538.173	0.0037
538.466	0.0033
538.759	0.003
539.051	0.0038
539.344	0.0038
539.636	0.0037
539.928	0.0042
540.22	0.003
540.513	0.004
540.805	0.0038
541.097	0.0037
541.389	0.0032
541.681	0.0033
541.972	0.0021
542.264	0.0027
542.556	0.0026
542.847	0.0016
543.139	0.0029
543.431	0.0032
543.722	0.0018
544.013	0.0029
544.305	0.0027
544.596	0.0025
544.887	0.0029
545.178	0.0035
545.469	0.003
545.76	0.0029
546.051	0.0032
546.342	0.0025
546.632	0.003
546.923	0.0022
547.214	0.0019
547.504	0.0032
547.795	0.0031
548.085	0.004
548.375	0.0037
548.666	0.0034
548.956	0.0029
549.246	0.0034
549.536	0.0033
549.826	0.0046
550.116	0.0036
550.406	0.0036
550.695	0.0042
550.985	0.0031
551.275	0.0044
551.564	0.0049
551.854	0.005
552.143	0.0038
552.433	0.0038
552.722	0.0038
553.011	0.0044
553.3	0.0033
553.589	0.0032
553.879	0.0038
554.167	0.0035
554.456	0.0029
554.745	0.0042
555.034	0.0042
555.323	0.0038
555.611	0.0041
555.9	0.0043
556.188	0.003
556.477	0.0028
556.765	0.0045
557.053	0.0032
557.342	0.0034
557.63	0.0037
557.918	0.0036
558.206	0.0035
558.494	0.0037
558.782	0.0031
559.069	0.0053
559.357	0.0034
559.645	0.0051
559.932	0.0046
560.22	0.0041
560.507	0.0018
560.795	0.0025
561.082	0.0024
561.37	0.003
561.657	0.0029
561.944	0.0028
562.231	0.0033
562.518	0.0033
562.805	0.0039
563.092	0.0032
563.379	0.0035
563.665	0.0033
563.952	0.005
564.239	0.0042
564.525	0.0036
564.811	0.0038
565.098	0.004
565.384	0.004
565.67	0.0034
565.957	0.003
566.243	0.0046
566.529	0.0028
566.815	0.004
567.101	0.0035
567.387	0.003
567.672	0.003
567.958	0.0025
568.244	0.0024
568.529	0.0037
568.815	0.0028
569.1	0.0026
569.386	0.0034
569.671	0.0025
569.956	0.0032
570.242	0.0034
570.527	0.0022
570.812	0.0034
571.097	0.002
571.382	0.0015
571.666	0.0022
571.951	0.0034
572.236	0.0034
572.521	0.0024
572.805	0.0033
573.09	0.0036
573.374	0.0025
573.659	0.0029
573.943	0.0031
574.227	0.0032
574.511	0.0035
574.795	0.003
575.079	0.0033
575.363	0.0037
575.647	0.0026
575.931	0.0034
576.215	0.0032
576.499	0.0024
576.782	0.0028
577.066	0.0027
577.349	0.0032
577.633	0.004
577.916	0.0043
578.2	0.0036
578.483	0.0032
578.766	0.0042
579.049	0.0036
579.332	0.0027
579.615	0.0024
579.898	0.0028
580.181	0.0027
580.464	0.0035
580.746	0.0028
581.029	0.0036
581.312	0.0027
581.594	0.0027
581.877	0.0026
582.159	0.0034
582.441	0.0024
582.724	0.0023
583.006	0.0028
583.288	0.0037
583.57	0.003
583.852	0.0033
584.134	0.0044
584.416	0.0029
584.697	0.0032
584.979	0.003
585.261	0.0025
585.542	0.0028
585.824	0.0034
586.105	0.0037
586.387	0.004
586.668	0.0032
586.949	0.0038
587.231	0.0036
587.512	0.0029
587.793	0.0033
588.074	0.0026
588.355	0.0027
588.636	0.003
588.916	0.0028
589.197	0.0015
589.478	0.0025
589.758	0.0023
590.039	0.0021
590.319	0.0022
590.6	0.0017
590.88	0.0019
591.16	0.0023
591.441	0.0035
591.721	0.0023
592.001	0.002
592.281	0.0021
592.561	0.0022
592.841	0.0036
593.12	0.003
593.4	0.0031
593.68	0.0026
593.959	0.0024
594.239	0.0026
594.518	0.0032
594.798	0.0031
595.077	0.0023
595.356	0.003
595.636	0.0029
595.915	0.0025
596.194	0.0027
596.473	0.0034
596.752	0.003
597.031	0.0025
597.31	0.003
597.588	0.0023
597.867	0.0021
598.146	0.0016
598.424	0.0015
598.703	0.002
598.981	0.0022
599.259	0.002
599.538	0.0021
599.816	0.0029
600.094	0.0033
600.372	0.0027
600.65	0.0038
600.928	0.0031
601.206	0.0031
601.484	0.0029
601.762	0.0028
602.04	0.0039
602.317	0.0024
602.595	0.0036
602.872	0.0037
603.15	0.0044
603.427	0.002
603.704	0.0023
603.982	0.0022
604.259	0.0023
604.536	0.0022
604.813	0.0022
605.09	0.0023
605.367	0.0022
605.644	0.0018
605.921	0.0022
606.197	0.0023
606.474	0.0021
606.751	0.0019
607.027	0.0029
607.304	0.0029
607.58	0.0026
607.856	0.0033
608.133	0.0031
608.409	0.0033
608.685	0.0046
608.961	0.0031
609.237	0.0033
609.513	0.0034
609.789	0.0028
610.065	0.0026
610.341	0.0017
610.616	0.0014
610.892	0.0014
611.167	0.0022
611.443	0.0027
611.718	0.0023
611.994	0.0017
612.269	0.0016
612.544	0.0028
612.819	0.0026
613.095	0.0024
613.37	0.0018
613.645	0.0021
613.919	0.0019
614.194	0.0021
614.469	0.0026
614.744	0.0021
615.019	0.0018
615.293	0.0013
615.568	0.0019
615.842	0.0015
616.116	0.0012
616.391	0.0015
616.665	0.0016
616.939	0.0009
617.213	0.0013
617.488	0.0017
617.762	0.0015
618.035	0.003
618.309	0.0022
618.583	0.0024
618.857	0.0028
619.131	0.0027
619.404	0.002
619.678	0.003
619.951	0.0029
620.225	0.0016
620.498	0.0011
620.771	0.002
621.045	0.0022
621.318	0.0025
621.591	0.003
621.864	0.0015
622.137	0.0014
622.41	0.0014
622.683	0.0014
622.956	0.0004
623.228	0.0017
623.501	0.0023
623.774	0.0023
624.046	0.0021
624.319	0.0017
624.591	0.0018
624.863	0.0016
625.136	0.003
625.408	0.0041
625.68	0.0028
625.952	0.0023
626.224	0.0024
626.496	0.0024
626.768	0.0023
627.04	0.0032
627.311	0.0024
627.583	0.0024
627.855	0.0021
628.126	0.0017
628.398	0.0013
628.669	0.0009
628.941	0.0002
629.212	-0.0001
629.483	0.0012
629.755	-0.0001
630.026	0.0008
630.297	0.0004
630.568	0.0009
630.839	0.0013
631.11	0.0017
631.38	0.0014
631.651	0.0013
631.922	0.0027
632.192	0.0008
632.463	0.0012
632.733	0.0006
633.004	0.0009
633.274	0.0003
633.545	0.0004
633.815	0.0015
634.085	0.0014
634.355	0.0011
634.625	0.0009
634.895	0.0017
635.165	0.0012
635.435	0.0024
635.705	0.0012
635.974	0.0013
636.244	0.001
636.514	0.0011
636.783	0.001
637.053	0.0013
637.322	0.0009
637.591	0.0006
637.861	-0.0006
638.13	-0.0004
638.399	0.0015
638.668	0.001
638.937	0.0015
639.206	0.0009
639.475	0.0024
639.744	0.0016
640.013	0.0012
640.281	0.0009
640.55	0.0012
640.819	0.0012
641.087	0.0005
641.356	0.0006
641.624	0.001
641.892	0.001
642.161	0.0004
642.429	0.0008
642.697	0.0012
642.965	-0.0001
643.233	-0.001
643.501	-0.0009
643.769	-0
644.037	0.0005
644.305	-0.0004
644.572	-0
644.84	-0.0009
645.108	0.0008
645.375	-0.0001
645.643	0.0006
645.91	0.0009
646.177	0.0018
646.445	0.0008
646.712	0.0002
646.979	0.0005
647.246	0.002
647.513	0.0012
647.78	0.0015
648.047	-0.0009
648.314	-0.0009
648.58	-0.0019
648.847	-0.0025
649.114	-0.0025
649.38	-0.0012
649.647	-0.0013
649.913	-0.0016
650.18	-0.0001
650.446	0.0007
650.712	0.002
650.978	0.0018
651.245	0.0027
651.511	0.0026
651.777	0.0022
652.043	0.001
652.309	0.0008
652.574	0.0007
652.84	0.0015
653.106	0.0016
653.371	0.0025
653.637	0.0024
653.903	0.0009
654.168	0.0015
654.433	0.0004
654.699	0.0011
654.964	-0.0013
655.229	0.0002
655.494	0.0012
655.759	0.0013
656.024	0.0006
656.289	-0
656.554	0.0006
656.819	0.0006
657.084	0.0012
657.349	0.0018
657.613	0.0012
657.878	0.0002
658.142	0.0001
658.407	0.0001
658.671	0.0002
658.936	0.0008
659.2	0.0017
659.464	0.001
659.728	0.0008
659.992	-0.0005
660.256	-0.0013
660.52	-0.0007
660.784	-0.0001
661.048	-0.0001
661.312	-0.0005
661.575	-0.0006
661.839	0.0007
662.103	-0.0012
662.366	-0.0001
662.63	0
662.893	-0
663.156	0.001
663.42	0.0015
663.683	0.0009
663.946	0.0013
664.209	0.0019
664.472	0.0016
664.735	0.0011
664.998	0.0016
665.261	0.0025
665.524	0.0027
665.786	0.0022
666.049	0.0018
666.312	0.0022
666.574	0.0016
666.837	0.0026
667.099	0.0024
667.361	0.0027
667.624	0.0024
667.886	0.0019
668.148	0.0023
668.41	0.0023
668.672	0.0025
668.934	0.0026
669.196	0.0011
669.458	0.0013
669.72	-0.0001
669.982	0.0007
670.243	0.0008
670.505	0.0006
670.766	0.0004
671.028	0.0009
671.289	0.0007
671.551	0.0023
671.812	0.0008
672.073	0.0006
672.334	0.001
672.596	-0.0002
672.857	0.0008
673.118	0.0009
673.379	0.0018
673.639	0.0012
673.9	0.001
674.161	0.0017
674.422	0.0011
674.682	-0.0007
674.943	-0.0011
675.203	-0.0011
675.464	0
675.724	0.0001
675.985	0.0009
676.245	0.0006
676.505	-0.0002
676.765	-0.0006
677.025	0.0002
677.285	-0.0009
677.545	-0.0004
677.805	0.0008
678.065	0.0006
678.325	0.0008
678.585	0.0025
678.844	0.0024
679.104	0.0034
679.363	0.003
679.623	0.003
679.882	0.003
680.142	0.0028
680.401	0.0035
680.66	0.0041
680.919	0.0021
681.178	0.003
681.437	0.0038
681.696	0.0021
681.955	0.0037
682.214	0.0038
682.473	0.0041
682.732	0.0011
682.99	0.0041
683.249	0.0042
683.508	0.0038
683.766	0.0034
684.024	0.0023
684.283	0.0007
684.541	0.0003
684.799	0.0008
685.058	-0.001
685.316	-0.0014
685.574	-0.0015
685.832	-0.0006
686.09	-0.0013
686.348	-0.0014
686.606	-0.0013
686.863	-0.0018
687.121	-0.0013
687.379	-0.0025
687.636	-0.0029
687.894	-0.0034
688.151	-0.0036
688.409	-0.0021
688.666	-0.0011
688.923	-0.001
689.181	-0.001
689.438	-0.0021
689.695	-0.0003
689.952	-0.0016
690.209	-0.001
690.466	-0.0007
690.723	-0.0012
690.979	-0.0011
691.236	-0.002
691.493	-0.0029
691.75	-0.0014
692.006	-0.0012
692.263	-0.0016
692.519	-0.001
692.775	-0.0022
693.032	-0.0028
693.288	-0.0032
693.544	-0.0019
693.8	-0.0014
694.056	-0.002
694.313	-0.0031
694.568	-0.001
694.824	-0.0014
695.08	-0.001
695.336	-0.0004
695.592	0.0002
695.847	0.0006
696.103	0.0008
696.359	0.0018
696.614	0.0014
696.869	-0.0001
697.125	-0.0005
697.38	-0.0016
697.635	-0.0004
697.891	0.0006
698.146	-0.0002
698.401	0.0003
698.656	-0.0004
698.911	0.0009
699.166	-0.0001
699.42	0.0015
699.675	0.0014
699.93	0.0011
700.185	0.0023
700.439	0.0007
700.694	0.0013
700.948	0.0015
701.203	0.0012
701.457	-0.0001
701.711	0.0005
701.965	0.0005
702.22	-0.0002
702.474	0.0007
702.728	-0
702.982	0.0005
703.236	-0.0006
703.49	-0.0005
703.743	-0.0012
703.997	-0.0015
704.251	-0.0012
704.504	0.0008
704.758	0.0004
705.012	0.0008
705.265	0.0011
705.518	0.0004
705.772	0.0016
706.025	0.0007
706.278	0.0006
706.531	-0.0002
706.785	-0.0005
707.038	-0.0013
707.291	-0.0015
707.543	-0.0014
707.796	-0.0007
708.049	0.0002
708.302	-0.0007
708.555	-0.0011
708.807	0.0002
709.06	0
709.312	0.001
709.565	0.0006
709.817	0.0021
710.069	0.0011
710.322	0.0018
710.574	0.0023
710.826	0.0012
711.078	0.0008
711.33	0.001
711.582	0.001
711.834	0.001
712.086	0.0012
712.338	0.0013
712.59	-0.0001
712.841	-0.0007
713.093	-0.0003
713.344	0
713.596	-0.0014
713.847	-0.0022
714.099	-0.0022
714.35	-0.001
714.601	-0.0022
714.853	-0.0028
715.104	-0.0023
715.355	-0.0016
715.606	-0.0009
715.857	-0.0009
716.108	-0.0004
716.359	-0.0002
716.609	-0.0013
716.86	0.0003
717.111	-0.0001
717.361	-0
717.612	-0.0004
717.863	0.0001
718.113	0.0011
718.363	0.0014
718.614	0.001
718.864	0.0009
719.114	0.0006
719.364	-0.0002
719.614	-0.0002
719.865	0
720.114	-0.0003
720.364	-0
720.614	-0.0005
720.864	-0.0011
721.114	-0.0019
721.364	-0.0023
721.613	-0.0024
721.863	-0.0015
722.112	-0.0009
722.362	-0.0014
722.611	-0.0009
722.86	-0.0005
723.11	0.001
723.359	0.0008
723.608	0.0007
723.857	0.0026
724.106	0.0018
724.355	0.001
724.604	0.0012
724.853	-0.0001
725.102	-0.0008
725.351	-0.0017
725.599	-0.0034
725.848	-0.0027
726.097	-0.0021
726.345	-0.0018
726.594	-0.0017
726.842	-0.0014
727.09	-0.002
727.339	-0.001
727.587	-0.0024
727.835	-0.0033
728.083	-0.0032
728.331	-0.0033
728.579	-0.0019
728.827	-0.0028
729.075	-0.0031
729.323	-0.0024
729.571	-0.0036
729.818	-0.0035
730.066	-0.003
730.314	-0.0019
730.561	-0.0026
730.809	-0.0032
731.056	-0.0025
731.303	-0.0033
731.551	-0.0027
731.798	-0.0032
732.045	-0.0018
732.292	-0.0024
732.539	-0.0018
732.786	-0.0027
733.033	-0.003
733.28	-0.0023
733.527	-0.0021
733.774	-0.0026
734.021	-0.0021
734.267	-0.0018
734.514	-0.002
734.76	-0.0022
735.007	-0.0019
735.253	-0.0007
735.5	0.0011
735.746	0.0026
735.992	0.0014
736.238	0.001
736.485	0.0009
736.731	0.0016
736.977	0.0002
737.223	-0.0007
737.469	-0.0012
737.715	-0.0001
737.96	-0.0001
738.206	0.0002
738.452	-0
738.697	-0.0006
738.943	-0.0016
739.189	-0.0004
739.434	-0.0008
739.679	-0.0001
739.925	0.001
740.17	0.0021
740.415	0.0009
740.66	0.0012
740.906	0.0015
741.151	0.0014
741.396	0.0003
741.641	-0.0002
741.886	0.0005
742.13	0.0008
742.375	0.0014
742.62	-0
742.865	0.0003
743.109	0.0006
743.354	-0.0006
743.598	-0.001
743.843	-0.0016
744.087	-0.0022
744.331	-0.0022
744.576	-0.0015
744.82	-0.0012
745.064	-0.0005
745.308	-0.0006
745.552	-0.0016
745.796	-0.002
746.04	-0.0017
746.284	-0.0017
746.528	-0.0012
746.771	-0.0019
747.015	-0.0013
747.259	-0.0015
747.502	-0.0023
747.746	-0.002
747.989	-0.0014
748.233	-0.0003
748.476	0
748.719	-0.0003
748.963	0.0003
749.206	-0.0007
749.449	-0.0006
749.692	0.0001
749.935	-0.0001
750.178	-0.0008
750.421	-0.0008
750.664	-0.0011
750.906	-0.0009
751.149	-0.0015
751.392	-0.0001
751.635	-0.0009
751.877	-0.001
752.12	-0.0014
752.362	0.0003
752.604	0.0002
752.847	-0
753.089	-0.0002
753.331	-0.0009
753.573	-0.0006
753.816	-0.0002
754.058	-0.0004
754.3	-0.0008
754.542	0.0003
754.783	0.0006
755.025	0.0008
755.267	0.0013
755.509	0.0019
755.75	-0.0001
755.992	0.0003
756.234	0.0004
756.475	0.0015
756.716	0.0006
756.958	-0.0001
757.199	-0
757.44	0.0001
757.682	0.0007
757.923	0.0007
758.164	0.0003
758.405	0.0004
758.646	0.0005
758.887	-0.0008
759.128	-0.0009
759.369	-0.0017
759.609	-0.0013
759.85	-0.0011
760.091	-0.0011
760.331	-0.0002
760.572	0.0004
760.812	-0.0007
761.053	-0.0007
761.293	0.0002
761.533	0.0011
761.774	0.0004
762.014	0.0012
762.254	0.0007
762.494	0.0013
762.734	0.0014
762.974	0.0016
763.214	0.0006
763.454	0.0009
763.694	0.0005
763.933	0.0024
764.173	0.0036
764.413	0.0038
764.652	0.001
764.892	0.0008
765.131	0.0008
765.371	-0.0002
765.61	-0.0006
765.849	-0.0015
766.089	-0.0024
766.328	-0.0023
766.567	-0.0028
766.806	-0.0039
767.045	-0.0039
767.284	-0.0022
767.523	-0.003
767.762	-0.0032
768.001	-0.0023
768.239	-0.0016
768.478	-0.0028
768.717	-0.0027
768.955	-0.0029
769.194	-0.0025
769.432	-0.0021
769.671	-0.0024
769.909	-0.0018
770.148	-0.0018
770.386	-0.0022
770.624	-0.0019
770.862	-0.0019
771.1	-0.0024
771.338	-0.0019
771.576	-0.0015
771.814	-0
772.052	-0.0003
772.29	0.0005
772.528	0.0002
772.765	-0.0011
773.003	-0.0005
773.24	-0.0003
773.478	-0.0004
773.716	0.0013
773.953	0.0012
774.19	0.0017
774.428	0.0019
774.665	0.0032
774.902	0.0029
775.139	0.003
775.376	0.0009
775.613	0.0007
775.85	0.0011
776.087	0.0003
776.324	-0.0006
776.561	-0.0015
776.798	-0.0012
777.034	-0.0013
777.271	-0.0004
777.508	-0.0007
777.744	0.0007
777.981	-0.0004
778.217	-0.0006
778.454	-0.0015
778.69	-0.0018
778.926	-0.0015
779.162	-0.0011
779.399	-0.0004
779.635	-0.0009
779.871	-0.0011
780.107	-0.0011
780.343	-0.0025
780.579	-0.0018
780.814	-0.0022
781.05	-0.0012
781.286	-0.0018
781.522	-0.0027
781.757	-0.0024
781.993	-0.0018
782.228	-0.0021
782.464	-0.0016
782.699	-0.0018
782.934	-0.0011
783.17	-0.0011
783.405	-0.0006
783.64	-0.0007
783.875	-0.0023
784.11	-0.002
784.345	-0.0015
784.58	-0.001
784.815	-0.0019
785.05	-0.0013
785.285	-0.0018
785.52	-0.0005
785.754	-0.0011
785.989	0
786.223	0.0013
786.458	0.0013
786.692	0.0032
786.927	0.0032
787.161	0.0037
787.396	0.0036
787.63	0.0029
787.864	0.0016
788.098	0.0002
788.332	-0
788.566	-0.0011
788.8	-0.0014
789.034	-0.0006
789.268	-0.0014
789.502	-0.0019
789.736	-0.0012
789.969	-0.0008
790.203	-0.0012
790.437	-0.0005
790.67	0
790.904	0.0007
791.137	0.0013
791.37	0.0016
791.604	0.0018
791.837	0.0017
792.07	0.0026
792.303	0.0027
792.537	0.0039
792.77	0.0035
793.003	0.0021
793.236	0.0021
793.469	0.002
793.701	0.0013
793.934	0.001
794.167	0.0004
794.4	-0.0002
794.632	-0.0004
794.865	-0.0012
795.097	-0.0017
795.33	-0.0011
795.562	-0.0011
795.795	-0.0014
796.027	-0.0007
796.259	0.0004
796.491	0.0002
796.724	0.0007
796.956	0.0011
797.188	0.0009
797.42	0.0009
797.652	0.0006
797.883	0.0021
798.115	0.0025
798.347	0.0024
798.579	0.0014
798.81	0.0007
799.042	0.002
799.274	0.0032
799.505	0.0022
799.737	0.0022
799.968	0.0019
800.199	0.0011
800.431	0.0021
800.662	0.0007
800.893	0.0022
801.124	0.0014
801.355	0.0018
801.586	0.0018
801.817	0.0029
802.048	0.0017
802.279	0.002
802.51	0.003
802.741	0.0027
802.971	0.0028
803.202	0.0021
803.433	0.0021
803.663	0.0019
803.894	0.0025
804.124	0.0022
804.354	0.0035
804.585	0.0042
804.815	0.0036
805.045	0.005
805.275	0.0035
805.506	-0.0044
805.736	-0.1053
805.966	-0.0393
806.196	-0.0934
