Data from 03 0.4 mM K2Cr2O7 0.25 M BQDS 1 M H2SO4 5 min_Absorbance_0015.txt Node
Date: Tue Dec 14 18:45:13 EST 2021
User: kwabilab-user
Spectrometer: HDX00518
Trigger mode: 0
Integration Time (sec): 5.000000E-2
Scans to average: 50
Nonlinearity correction enabled: false
Boxcar width: 0
Storing dark spectrum: false
XAxis mode: Wavelengths
Number of Pixels in Spectrum: 2068
>>>>>Begin Spectral Data<<<<<
195.27	0.1123
195.642	0.367
196.014	0.0481
196.386	0.0945
196.758	-0.032
197.129	0.0367
197.501	0.0029
197.872	0.0538
198.244	0.0507
198.615	0.0804
198.986	0.0674
199.357	0.0591
199.728	0.0699
200.099	0.0478
200.47	0.0492
200.841	0.0779
201.212	0.0505
201.582	0.0707
201.953	0.0618
202.323	0.0689
202.694	0.0616
203.064	0.0445
203.434	0.0619
203.804	0.0591
204.174	0.036
204.544	0.0686
204.914	0.0493
205.284	0.0625
205.653	0.0549
206.023	0.06
206.393	0.0682
206.762	0.0494
207.131	0.0568
207.501	0.0643
207.87	0.0665
208.239	0.0514
208.608	0.0632
208.977	0.0518
209.346	0.0613
209.715	0.0652
210.083	0.0494
210.452	0.0434
210.82	0.0649
211.189	0.0581
211.557	0.0577
211.925	0.0613
212.294	0.0645
212.662	0.0753
213.03	0.0582
213.398	0.054
213.766	0.0549
214.133	0.0692
214.501	0.0594
214.869	0.0607
215.236	0.0657
215.604	0.0836
215.971	0.0919
216.338	0.0746
216.705	0.0774
217.072	0.0762
217.439	0.0882
217.806	0.0773
218.173	0.0944
218.54	0.0756
218.907	0.1077
219.273	0.1158
219.64	0.1365
220.006	0.1216
220.373	0.1221
220.739	0.1438
221.105	0.1872
221.471	0.1637
221.837	0.2106
222.203	0.223
222.569	0.2224
222.935	0.2484
223.3	0.2637
223.666	0.2991
224.031	0.3204
224.397	0.3428
224.762	0.3587
225.127	0.406
225.493	0.4051
225.858	0.4505
226.223	0.4742
226.588	0.4836
226.952	0.4865
227.317	0.5225
227.682	0.5274
228.046	0.5271
228.411	0.5999
228.775	0.5956
229.14	0.5978
229.504	0.6386
229.868	0.6378
230.232	0.6579
230.596	0.6556
230.96	0.6801
231.324	0.6641
231.688	0.6791
232.052	0.699
232.415	0.7003
232.779	0.6986
233.142	0.6958
233.505	0.7123
233.869	0.7039
234.232	0.6998
234.595	0.7051
234.958	0.7139
235.321	0.7213
235.684	0.7178
236.047	0.7133
236.409	0.7026
236.772	0.7035
237.134	0.6992
237.497	0.6942
237.859	0.7081
238.222	0.7101
238.584	0.6884
238.946	0.6908
239.308	0.6934
239.67	0.6918
240.032	0.6961
240.393	0.6849
240.755	0.6868
241.117	0.6878
241.478	0.6748
241.84	0.6783
242.201	0.6749
242.562	0.6667
242.924	0.6683
243.285	0.6527
243.646	0.6619
244.007	0.6584
244.368	0.6564
244.728	0.6588
245.089	0.662
245.45	0.6511
245.81	0.6623
246.171	0.6515
246.531	0.6434
246.891	0.6359
247.252	0.6434
247.612	0.6518
247.972	0.6425
248.332	0.6388
248.692	0.6404
249.051	0.6409
249.411	0.6423
249.771	0.6442
250.13	0.638
250.49	0.6379
250.849	0.6367
251.208	0.634
251.568	0.6407
251.927	0.636
252.286	0.6362
252.645	0.6352
253.004	0.6379
253.363	0.6325
253.721	0.6407
254.08	0.6352
254.439	0.6282
254.797	0.6333
255.155	0.6333
255.514	0.6283
255.872	0.6284
256.23	0.629
256.588	0.6387
256.946	0.6318
257.304	0.6301
257.662	0.6377
258.02	0.6369
258.377	0.6372
258.735	0.635
259.093	0.6274
259.45	0.6278
259.807	0.6297
260.165	0.6243
260.522	0.6323
260.879	0.6278
261.236	0.6266
261.593	0.6238
261.95	0.623
262.306	0.6288
262.663	0.6183
263.02	0.6165
263.376	0.6225
263.733	0.6188
264.089	0.619
264.445	0.6225
264.802	0.6128
265.158	0.6168
265.514	0.6153
265.87	0.6115
266.226	0.607
266.581	0.6115
266.937	0.6156
267.293	0.6089
267.648	0.6033
268.004	0.6031
268.359	0.6027
268.714	0.5952
269.07	0.5946
269.425	0.5907
269.78	0.5938
270.135	0.5863
270.49	0.5856
270.844	0.5827
271.199	0.5812
271.554	0.5785
271.908	0.5701
272.263	0.5701
272.617	0.5669
272.972	0.5676
273.326	0.5626
273.68	0.5567
274.034	0.5557
274.388	0.551
274.742	0.5492
275.096	0.5472
275.45	0.5474
275.803	0.5368
276.157	0.5357
276.51	0.5308
276.864	0.5261
277.217	0.5247
277.571	0.524
277.924	0.5154
278.277	0.5113
278.63	0.505
278.983	0.5037
279.336	0.4997
279.688	0.4961
280.041	0.4904
280.394	0.4862
280.746	0.4804
281.099	0.4768
281.451	0.4744
281.803	0.4695
282.156	0.4665
282.508	0.4587
282.86	0.4553
283.212	0.4547
283.564	0.4447
283.916	0.4417
284.267	0.4357
284.619	0.432
284.971	0.4283
285.322	0.4262
285.673	0.4199
286.025	0.4152
286.376	0.4118
286.727	0.4068
287.078	0.4028
287.429	0.3993
287.78	0.3937
288.131	0.3914
288.482	0.386
288.833	0.3787
289.183	0.3748
289.534	0.3738
289.884	0.3697
290.235	0.3623
290.585	0.3591
290.935	0.3543
291.285	0.3516
291.635	0.3467
291.985	0.3422
292.335	0.3385
292.685	0.3348
293.035	0.3294
293.384	0.3265
293.734	0.3217
294.083	0.3179
294.433	0.3155
294.782	0.3111
295.131	0.3053
295.48	0.3025
295.829	0.2986
296.179	0.2942
296.527	0.2908
296.876	0.2864
297.225	0.2827
297.574	0.2798
297.922	0.275
298.271	0.2705
298.619	0.2662
298.968	0.2657
299.316	0.2616
299.664	0.2595
300.012	0.2548
300.36	0.2516
300.708	0.2489
301.056	0.2447
301.404	0.2422
301.752	0.24
302.099	0.2359
302.447	0.2339
302.794	0.2317
303.142	0.228
303.489	0.226
303.836	0.2233
304.183	0.2213
304.531	0.2183
304.878	0.2157
305.224	0.214
305.571	0.2122
305.918	0.2093
306.265	0.207
306.611	0.2058
306.958	0.2052
307.304	0.2037
307.651	0.2004
307.997	0.1988
308.343	0.1979
308.689	0.1969
309.035	0.1961
309.381	0.1936
309.727	0.1931
310.073	0.1915
310.419	0.1906
310.764	0.1897
311.11	0.1885
311.455	0.188
311.801	0.187
312.146	0.1861
312.491	0.1849
312.837	0.1842
313.182	0.1832
313.527	0.1825
313.872	0.183
314.216	0.1828
314.561	0.1826
314.906	0.1824
315.251	0.183
315.595	0.182
315.94	0.1818
316.284	0.1815
316.628	0.1816
316.972	0.182
317.317	0.1817
317.661	0.1819
318.005	0.1816
318.348	0.1824
318.692	0.183
319.036	0.1826
319.38	0.1837
319.723	0.1837
320.067	0.1844
320.41	0.1845
320.754	0.1857
321.097	0.1852
321.44	0.1864
321.783	0.1875
322.126	0.1891
322.469	0.1885
322.812	0.1901
323.155	0.1912
323.498	0.1909
323.84	0.1918
324.183	0.1935
324.525	0.1938
324.868	0.196
325.21	0.1965
325.552	0.1971
325.894	0.1984
326.236	0.1989
326.578	0.1999
326.92	0.2014
327.262	0.2026
327.604	0.2032
327.946	0.2041
328.287	0.2057
328.629	0.2067
328.97	0.2082
329.312	0.2089
329.653	0.211
329.994	0.2116
330.335	0.2132
330.676	0.2147
331.017	0.2163
331.358	0.2176
331.699	0.2183
332.04	0.2195
332.38	0.2212
332.721	0.2222
333.061	0.2227
333.402	0.2247
333.742	0.2253
334.083	0.227
334.423	0.2281
334.763	0.2298
335.103	0.2304
335.443	0.2314
335.783	0.2326
336.123	0.2328
336.462	0.2347
336.802	0.2357
337.141	0.2366
337.481	0.2374
337.82	0.2387
338.16	0.2398
338.499	0.2422
338.838	0.2418
339.177	0.2425
339.516	0.2435
339.855	0.2449
340.194	0.2455
340.533	0.2463
340.872	0.247
341.21	0.2478
341.549	0.2483
341.887	0.2502
342.226	0.2497
342.564	0.2507
342.902	0.2518
343.24	0.2515
343.578	0.2522
343.916	0.2516
344.254	0.2529
344.592	0.2524
344.93	0.2529
345.268	0.2521
345.605	0.2529
345.943	0.2534
346.28	0.2531
346.618	0.2533
346.955	0.2536
347.292	0.2537
347.629	0.2538
347.966	0.2541
348.303	0.2539
348.64	0.2543
348.977	0.2542
349.314	0.2543
349.65	0.2537
349.987	0.254
350.324	0.2533
350.66	0.2541
350.996	0.2532
351.333	0.2521
351.669	0.2516
352.005	0.2515
352.341	0.2504
352.677	0.2496
353.013	0.2483
353.349	0.248
353.685	0.2469
354.02	0.2457
354.356	0.2445
354.691	0.2437
355.027	0.2428
355.362	0.2418
355.697	0.2409
356.033	0.24
356.368	0.2388
356.703	0.2383
357.038	0.2374
357.373	0.2357
357.707	0.2358
358.042	0.2342
358.377	0.2337
358.711	0.2336
359.046	0.2315
359.38	0.2312
359.715	0.2296
360.049	0.2281
360.383	0.2271
360.717	0.2258
361.051	0.224
361.385	0.2229
361.719	0.2213
362.053	0.221
362.387	0.2176
362.72	0.2168
363.054	0.2147
363.387	0.2132
363.721	0.2121
364.054	0.2104
364.387	0.2073
364.721	0.2065
365.054	0.2054
365.387	0.2031
365.72	0.2025
366.053	0.2005
366.385	0.1981
366.718	0.1974
367.051	0.1958
367.383	0.1944
367.716	0.1937
368.048	0.1922
368.381	0.1912
368.713	0.1891
369.045	0.1884
369.377	0.1872
369.709	0.1851
370.041	0.1841
370.373	0.1829
370.705	0.1813
371.037	0.18
371.368	0.1778
371.7	0.1762
372.031	0.1744
372.363	0.173
372.694	0.1721
373.025	0.1696
373.356	0.1678
373.688	0.1659
374.019	0.1645
374.35	0.1616
374.68	0.1605
375.011	0.1585
375.342	0.1563
375.673	0.1543
376.003	0.1526
376.334	0.1514
376.664	0.1489
376.995	0.1482
377.325	0.1465
377.655	0.1449
377.985	0.1423
378.315	0.1417
378.645	0.1404
378.975	0.1394
379.305	0.1372
379.635	0.1363
379.964	0.1348
380.294	0.1339
380.623	0.1321
380.953	0.131
381.282	0.1307
381.611	0.1295
381.941	0.1282
382.27	0.1265
382.599	0.1253
382.928	0.1231
383.257	0.1218
383.585	0.1211
383.914	0.1185
384.243	0.1171
384.571	0.1156
384.9	0.1145
385.228	0.1126
385.557	0.1109
385.885	0.1094
386.213	0.1082
386.541	0.1061
386.869	0.1053
387.197	0.1029
387.525	0.1019
387.853	0.1001
388.181	0.0985
388.508	0.098
388.836	0.0959
389.164	0.0948
389.491	0.093
389.818	0.0917
390.146	0.091
390.473	0.09
390.8	0.0892
391.127	0.0875
391.454	0.0866
391.781	0.0854
392.108	0.0845
392.435	0.0829
392.761	0.0827
393.088	0.0821
393.415	0.081
393.741	0.0802
394.067	0.0797
394.394	0.0781
394.72	0.0774
395.046	0.0764
395.372	0.0755
395.698	0.0745
396.024	0.0729
396.35	0.0728
396.676	0.0718
397.001	0.0704
397.327	0.0702
397.653	0.0688
397.978	0.0684
398.303	0.0671
398.629	0.0661
398.954	0.0656
399.279	0.0656
399.604	0.064
399.929	0.0636
400.254	0.0624
400.579	0.0618
400.904	0.0609
401.229	0.0602
401.553	0.0596
401.878	0.0594
402.202	0.0591
402.527	0.0578
402.851	0.058
403.175	0.0566
403.5	0.0568
403.824	0.0556
404.148	0.0556
404.472	0.0546
404.796	0.0546
405.119	0.0542
405.443	0.054
405.767	0.0537
406.09	0.0538
406.414	0.0528
406.737	0.0528
407.061	0.0528
407.384	0.0518
407.707	0.0516
408.03	0.0514
408.353	0.0513
408.676	0.051
408.999	0.0508
409.322	0.0503
409.645	0.0498
409.968	0.0496
410.29	0.0493
410.613	0.0497
410.935	0.0492
411.258	0.0492
411.58	0.0488
411.902	0.0484
412.224	0.0483
412.546	0.0492
412.868	0.0491
413.19	0.048
413.512	0.0485
413.834	0.048
414.156	0.0486
414.477	0.0472
414.799	0.0483
415.121	0.0473
415.442	0.0475
415.763	0.047
416.085	0.0474
416.406	0.0475
416.727	0.0475
417.048	0.0478
417.369	0.0477
417.69	0.0467
418.011	0.0471
418.331	0.0474
418.652	0.0472
418.973	0.0468
419.293	0.0461
419.614	0.0458
419.934	0.0474
420.254	0.0469
420.574	0.0456
420.895	0.0463
421.215	0.0467
421.535	0.0468
421.855	0.046
422.174	0.0458
422.494	0.0459
422.814	0.0459
423.134	0.0461
423.453	0.0465
423.773	0.0468
424.092	0.0467
424.411	0.0462
424.731	0.046
425.05	0.0466
425.369	0.0462
425.688	0.0461
426.007	0.0464
426.326	0.0466
426.644	0.0455
426.963	0.0459
427.282	0.0457
427.6	0.0465
427.919	0.0462
428.237	0.0466
428.556	0.0461
428.874	0.0458
429.192	0.0458
429.51	0.0456
429.828	0.046
430.146	0.0464
430.464	0.0451
430.782	0.0458
431.1	0.0454
431.418	0.0454
431.735	0.0449
432.053	0.0454
432.37	0.0455
432.688	0.0451
433.005	0.0445
433.322	0.0461
433.639	0.0453
433.957	0.0458
434.274	0.0456
434.591	0.0455
434.907	0.0451
435.224	0.0457
435.541	0.0451
435.858	0.0464
436.174	0.0463
436.491	0.0452
436.807	0.0451
437.124	0.0448
437.44	0.0445
437.756	0.0452
438.072	0.0441
438.388	0.0448
438.704	0.0447
439.02	0.044
439.336	0.0435
439.652	0.0445
439.968	0.0446
440.283	0.0445
440.599	0.0446
440.914	0.044
441.23	0.0445
441.545	0.0442
441.86	0.0442
442.175	0.0449
442.491	0.0436
442.806	0.0446
443.121	0.0433
443.435	0.0431
443.75	0.0437
444.065	0.0435
444.38	0.0437
444.694	0.0431
445.009	0.0431
445.323	0.0441
445.638	0.0429
445.952	0.0434
446.266	0.0428
446.58	0.0423
446.894	0.0431
447.208	0.0426
447.522	0.042
447.836	0.0428
448.15	0.0427
448.464	0.0422
448.777	0.043
449.091	0.0416
449.404	0.042
449.718	0.0419
450.031	0.0408
450.345	0.0413
450.658	0.0416
450.971	0.0417
451.284	0.0412
451.597	0.0414
451.91	0.0408
452.223	0.0415
452.535	0.0409
452.848	0.0402
453.161	0.0405
453.473	0.0398
453.786	0.0403
454.098	0.0399
454.411	0.0401
454.723	0.0397
455.035	0.0391
455.347	0.0386
455.659	0.0393
455.971	0.0401
456.283	0.0396
456.595	0.0396
456.907	0.0396
457.218	0.0395
457.53	0.0386
457.841	0.0384
458.153	0.0386
458.464	0.0379
458.776	0.038
459.087	0.038
459.398	0.038
459.709	0.0371
460.02	0.038
460.331	0.037
460.642	0.0368
460.953	0.037
461.263	0.0369
461.574	0.0362
461.885	0.0365
462.195	0.0355
462.506	0.0365
462.816	0.037
463.126	0.0366
463.437	0.0354
463.747	0.035
464.057	0.0344
464.367	0.034
464.677	0.0346
464.987	0.0345
465.296	0.0346
465.606	0.0343
465.916	0.0338
466.225	0.0335
466.535	0.0335
466.844	0.0337
467.154	0.0345
467.463	0.0337
467.772	0.0331
468.081	0.0332
468.39	0.0334
468.699	0.0321
469.008	0.0323
469.317	0.0323
469.626	0.0318
469.935	0.0313
470.243	0.0314
470.552	0.0314
470.86	0.0315
471.169	0.0307
471.477	0.0297
471.785	0.0302
472.093	0.0296
472.402	0.0298
472.71	0.0297
473.018	0.0285
473.326	0.0293
473.633	0.0295
473.941	0.0286
474.249	0.0288
474.556	0.0286
474.864	0.0286
475.171	0.0285
475.479	0.0278
475.786	0.0285
476.094	0.0273
476.401	0.0274
476.708	0.0271
477.015	0.0266
477.322	0.0262
477.629	0.0259
477.936	0.0271
478.242	0.0264
478.549	0.0266
478.856	0.0258
479.162	0.0259
479.469	0.0254
479.775	0.0256
480.081	0.0242
480.388	0.024
480.694	0.0246
481	0.0234
481.306	0.0245
481.612	0.025
481.918	0.0245
482.224	0.0247
482.53	0.0239
482.835	0.0234
483.141	0.0241
483.446	0.0232
483.752	0.0225
484.057	0.0222
484.363	0.0226
484.668	0.0231
484.973	0.0218
485.278	0.0215
485.583	0.0208
485.888	0.0225
486.193	0.0199
486.498	0.0207
486.803	0.0203
487.107	0.0206
487.412	0.0191
487.717	0.0198
488.021	0.0206
488.325	0.0197
488.63	0.0202
488.934	0.0197
489.238	0.0192
489.542	0.0196
489.846	0.019
490.15	0.0195
490.454	0.0205
490.758	0.0188
491.062	0.018
491.366	0.0181
491.669	0.0174
491.973	0.0179
492.276	0.018
492.58	0.0174
492.883	0.0178
493.186	0.0165
493.489	0.0178
493.792	0.0159
494.096	0.0159
494.399	0.0159
494.701	0.0165
495.004	0.0155
495.307	0.0164
495.61	0.0159
495.912	0.0165
496.215	0.0157
496.517	0.0163
496.82	0.0154
497.122	0.0153
497.424	0.0154
497.727	0.015
498.029	0.0142
498.331	0.0147
498.633	0.0147
498.935	0.0137
499.237	0.0144
499.538	0.0144
499.84	0.0137
500.142	0.0127
500.443	0.0139
500.745	0.0128
501.046	0.013
501.348	0.0125
501.649	0.013
501.95	0.0124
502.251	0.0129
502.552	0.0123
502.853	0.0135
503.154	0.013
503.455	0.0119
503.756	0.0127
504.057	0.011
504.357	0.0115
504.658	0.0121
504.958	0.0108
505.259	0.0114
505.559	0.0114
505.859	0.0114
506.16	0.01
506.46	0.011
506.76	0.0111
507.06	0.0093
507.36	0.0093
507.66	0.01
507.96	0.0113
508.259	0.0108
508.559	0.0093
508.859	0.0104
509.158	0.0107
509.457	0.0082
509.757	0.0094
510.056	0.0096
510.355	0.0094
510.655	0.0087
510.954	0.0084
511.253	0.0086
511.552	0.0087
511.851	0.0091
512.149	0.0088
512.448	0.0082
512.747	0.0082
513.045	0.0074
513.344	0.0076
513.642	0.007
513.941	0.0079
514.239	0.0077
514.537	0.0076
514.836	0.0073
515.134	0.0086
515.432	0.0071
515.73	0.0077
516.028	0.0066
516.326	0.0067
516.623	0.0066
516.921	0.0069
517.219	0.0071
517.516	0.0063
517.814	0.0066
518.111	0.0069
518.409	0.0076
518.706	0.0069
519.003	0.007
519.3	0.0063
519.597	0.0071
519.894	0.0059
520.191	0.0083
520.488	0.007
520.785	0.0058
521.082	0.0072
521.378	0.0072
521.675	0.0057
521.971	0.0061
522.268	0.006
522.564	0.0058
522.861	0.0069
523.157	0.0056
523.453	0.0066
523.749	0.0057
524.045	0.0052
524.341	0.0056
524.637	0.0061
524.933	0.0068
525.229	0.0065
525.524	0.0054
525.82	0.0066
526.115	0.0056
526.411	0.0062
526.706	0.0052
527.002	0.0057
527.297	0.005
527.592	0.0063
527.887	0.0045
528.182	0.0033
528.477	0.0055
528.772	0.0046
529.067	0.0049
529.362	0.0049
529.657	0.0045
529.951	0.0036
530.246	0.0042
530.54	0.0054
530.835	0.0044
531.129	0.0051
531.423	0.0041
531.718	0.0043
532.012	0.0042
532.306	0.0047
532.6	0.0034
532.894	0.0038
533.188	0.0046
533.482	0.0045
533.775	0.0033
534.069	0.0041
534.363	0.0038
534.656	0.0039
534.95	0.0034
535.243	0.0035
535.536	0.0045
535.83	0.0027
536.123	0.0029
536.416	0.0036
536.709	0.0041
537.002	0.0045
537.295	0.0042
537.588	0.0048
537.881	0.0038
538.173	0.0041
538.466	0.0047
538.759	0.004
539.051	0.0045
539.344	0.0048
539.636	0.0036
539.928	0.0052
540.22	0.0038
540.513	0.0044
540.805	0.004
541.097	0.0043
541.389	0.004
541.681	0.0048
541.972	0.0044
542.264	0.0048
542.556	0.0051
542.847	0.0039
543.139	0.0036
543.431	0.0038
543.722	0.0039
544.013	0.0048
544.305	0.0044
544.596	0.004
544.887	0.0047
545.178	0.0046
545.469	0.0045
545.76	0.0049
546.051	0.0048
546.342	0.0038
546.632	0.0048
546.923	0.0039
547.214	0.0029
547.504	0.0048
547.795	0.0035
548.085	0.0041
548.375	0.0044
548.666	0.0042
548.956	0.0034
549.246	0.0051
549.536	0.0042
549.826	0.0045
550.116	0.005
550.406	0.004
550.695	0.0038
550.985	0.0052
551.275	0.0045
551.564	0.0053
551.854	0.0054
552.143	0.0048
552.433	0.0047
552.722	0.0035
553.011	0.004
553.3	0.003
553.589	0.0046
553.879	0.0042
554.167	0.0034
554.456	0.0033
554.745	0.0046
555.034	0.0045
555.323	0.004
555.611	0.0043
555.9	0.004
556.188	0.0035
556.477	0.0031
556.765	0.0058
557.053	0.004
557.342	0.0037
557.63	0.0041
557.918	0.0033
558.206	0.0054
558.494	0.005
558.782	0.0044
559.069	0.0052
559.357	0.0048
559.645	0.0053
559.932	0.0049
560.22	0.0045
560.507	0.0026
560.795	0.0033
561.082	0.0028
561.37	0.0034
561.657	0.003
561.944	0.0031
562.231	0.0029
562.518	0.0032
562.805	0.0041
563.092	0.0042
563.379	0.0045
563.665	0.0044
563.952	0.0055
564.239	0.0042
564.525	0.005
564.811	0.0046
565.098	0.0034
565.384	0.004
565.67	0.0035
565.957	0.0043
566.243	0.005
566.529	0.0031
566.815	0.0046
567.101	0.0032
567.387	0.004
567.672	0.0038
567.958	0.0028
568.244	0.0025
568.529	0.0031
568.815	0.0031
569.1	0.0039
569.386	0.004
569.671	0.0037
569.956	0.003
570.242	0.0039
570.527	0.0028
570.812	0.0024
571.097	0.0021
571.382	0.0025
571.666	0.0025
571.951	0.0031
572.236	0.0026
572.521	0.0032
572.805	0.0042
573.09	0.0039
573.374	0.0036
573.659	0.003
573.943	0.0024
574.227	0.0043
574.511	0.0034
574.795	0.0033
575.079	0.0032
575.363	0.0032
575.647	0.003
575.931	0.0035
576.215	0.0038
576.499	0.0033
576.782	0.0032
577.066	0.0028
577.349	0.0031
577.633	0.0038
577.916	0.0037
578.2	0.004
578.483	0.0032
578.766	0.0032
579.049	0.0037
579.332	0.0032
579.615	0.0034
579.898	0.003
580.181	0.003
580.464	0.0035
580.746	0.0025
581.029	0.0034
581.312	0.0031
581.594	0.0027
581.877	0.0028
582.159	0.0027
582.441	0.0016
582.724	0.0027
583.006	0.0032
583.288	0.003
583.57	0.0035
583.852	0.0027
584.134	0.0039
584.416	0.0029
584.697	0.0033
584.979	0.0031
585.261	0.0032
585.542	0.0031
585.824	0.0033
586.105	0.0034
586.387	0.0027
586.668	0.003
586.949	0.0041
587.231	0.0037
587.512	0.003
587.793	0.0033
588.074	0.0032
588.355	0.0033
588.636	0.0032
588.916	0.0028
589.197	0.0014
589.478	0.002
589.758	0.0029
590.039	0.0027
590.319	0.0019
590.6	0.0025
590.88	0.0027
591.16	0.0019
591.441	0.0027
591.721	0.0027
592.001	0.0028
592.281	0.0024
592.561	0.0034
592.841	0.0042
593.12	0.0028
593.4	0.003
593.68	0.0032
593.959	0.0034
594.239	0.0032
594.518	0.0035
594.798	0.0039
595.077	0.0031
595.356	0.0035
595.636	0.0033
595.915	0.0026
596.194	0.0034
596.473	0.0034
596.752	0.0038
597.031	0.0034
597.31	0.003
597.588	0.0016
597.867	0.0028
598.146	0.0018
598.424	0.0023
598.703	0.0022
598.981	0.0024
599.259	0.0021
599.538	0.0022
599.816	0.003
600.094	0.0037
600.372	0.0031
600.65	0.0028
600.928	0.0034
601.206	0.0032
601.484	0.0026
601.762	0.0032
602.04	0.0038
602.317	0.0035
602.595	0.0031
602.872	0.0033
603.15	0.0037
603.427	0.0023
603.704	0.0021
603.982	0.0014
604.259	0.0022
604.536	0.003
604.813	0.0022
605.09	0.0031
605.367	0.0031
605.644	0.0026
605.921	0.0013
606.197	0.002
606.474	0.0019
606.751	0.0022
607.027	0.0028
607.304	0.0024
607.58	0.0023
607.856	0.0031
608.133	0.0038
608.409	0.0037
608.685	0.0035
608.961	0.0036
609.237	0.0036
609.513	0.0039
609.789	0.0027
610.065	0.004
610.341	0.0024
610.616	0.0031
610.892	0.0028
611.167	0.0036
611.443	0.0044
611.718	0.0044
611.994	0.0033
612.269	0.0021
612.544	0.0028
612.819	0.003
613.095	0.0032
613.37	0.0032
613.645	0.0021
613.919	0.003
614.194	0.0029
614.469	0.0039
614.744	0.0032
615.019	0.003
615.293	0.0026
615.568	0.0022
615.842	0.0024
616.116	0.002
616.391	0.0014
616.665	0.0022
616.939	0.0007
617.213	0.0013
617.488	0.0021
617.762	0.0022
618.035	0.0041
618.309	0.0028
618.583	0.0026
618.857	0.0026
619.131	0.0037
619.404	0.0028
619.678	0.0034
619.951	0.0025
620.225	0.0015
620.498	0.0019
620.771	0.0023
621.045	0.0014
621.318	0.0024
621.591	0.0032
621.864	0.002
622.137	0.0018
622.41	0.0017
622.683	0.0012
622.956	0.0014
623.228	0.0031
623.501	0.0026
623.774	0.003
624.046	0.0021
624.319	0.0036
624.591	0.0022
624.863	0.0019
625.136	0.003
625.408	0.0035
625.68	0.0045
625.952	0.0026
626.224	0.0029
626.496	0.0031
626.768	0.0025
627.04	0.003
627.311	0.0026
627.583	0.0034
627.855	0.0034
628.126	0.0015
628.398	0.0008
628.669	0.0021
628.941	0.001
629.212	0.0002
629.483	0.0013
629.755	0.0008
630.026	0.0012
630.297	0.0005
630.568	0.001
630.839	0.0017
631.11	0.0008
631.38	0.0016
631.651	0.0009
631.922	0.002
632.192	0.0016
632.463	0.0016
632.733	0.0012
633.004	0.0015
633.274	0.0009
633.545	0.0014
633.815	0.0022
634.085	0.0017
634.355	0.0011
634.625	0.0023
634.895	0.0029
635.165	0.0016
635.435	0.0019
635.705	0.0024
635.974	0.0022
636.244	0.0015
636.514	0.0003
636.783	0.0021
637.053	0.0025
637.322	0.0011
637.591	0.0008
637.861	0.0001
638.13	0.0001
638.399	0.0016
638.668	0.0008
638.937	0.0004
639.206	0.0011
639.475	0.0015
639.744	0.0014
640.013	0.0018
640.281	0.0018
640.55	0.0023
640.819	0.0014
641.087	0.0006
641.356	0.0011
641.624	0.0005
641.892	0.0013
642.161	0.0008
642.429	0.0013
642.697	0.0019
642.965	0.0006
643.233	0
643.501	0.0001
643.769	0.0007
644.037	0.0004
644.305	0.0001
644.572	-0.0007
644.84	0.0003
645.108	0.0012
645.375	0.002
645.643	0.0014
645.91	0.0022
646.177	0.0014
646.445	0.0001
646.712	0.0013
646.979	0.0006
647.246	0.0022
647.513	0.0021
647.78	0.0022
648.047	0.0004
648.314	0.0008
648.58	0.0005
648.847	-0.0009
649.114	-0.0012
649.38	-0.0005
649.647	-0.0004
649.913	0.0001
650.18	0.0018
650.446	0.0026
650.712	0.0034
650.978	0.003
651.245	0.0033
651.511	0.0043
651.777	0.0041
652.043	0.0036
652.309	0.0026
652.574	0.002
652.84	0.0026
653.106	0.0033
653.371	0.0043
653.637	0.0035
653.903	0.0027
654.168	0.003
654.433	0.002
654.699	0.0015
654.964	0.0001
655.229	-0.0003
655.494	0.0015
655.759	0.0016
656.024	0.0002
656.289	-0
656.554	-0.0011
656.819	0.0005
657.084	0.0026
657.349	0.0028
657.613	0.0029
657.878	0.0009
658.142	0.0006
658.407	0.0002
658.671	0.0001
658.936	0.0007
659.2	0.0017
659.464	0.0018
659.728	0.0019
659.992	-0.0003
660.256	-0.0005
660.52	0.0006
660.784	0.0009
661.048	0.0018
661.312	0.0002
661.575	-0.0001
661.839	0.001
662.103	-0.0005
662.366	0.0001
662.63	0.0009
662.893	0.0006
663.156	0.0016
663.42	0.0021
663.683	0.0013
663.946	0.0025
664.209	0.0033
664.472	0.0028
664.735	0.0031
664.998	0.0031
665.261	0.0028
665.524	0.0034
665.786	0.0029
666.049	0.0026
666.312	0.0031
666.574	0.0021
666.837	0.0032
667.099	0.0024
667.361	0.0032
667.624	0.003
667.886	0.0026
668.148	0.003
668.41	0.0024
668.672	0.0029
668.934	0.0025
669.196	0.0017
669.458	0.0015
669.72	0.0005
669.982	0.0005
670.243	-0.0004
670.505	0.0008
670.766	0.0004
671.028	0.001
671.289	0.0012
671.551	0.0016
671.812	0.0014
672.073	0.0017
672.334	0.0014
672.596	0.0015
672.857	0.0013
673.118	0.0024
673.379	0.0025
673.639	0.0022
673.9	0.0023
674.161	0.0021
674.422	0.0018
674.682	0.0012
674.943	0.0001
675.203	0.0007
675.464	0.0021
675.724	0.0017
675.985	0.0016
676.245	0.0009
676.505	0.0003
676.765	-0.0001
677.025	0.001
677.285	0.0009
677.545	0.0009
677.805	0.0012
678.065	0.0015
678.325	0.0018
678.585	0.0039
678.844	0.0036
679.104	0.0041
679.363	0.0041
679.623	0.0039
679.882	0.0042
680.142	0.0036
680.401	0.0036
680.66	0.0042
680.919	0.0023
681.178	0.003
681.437	0.0028
681.696	0.0019
681.955	0.0046
682.214	0.0044
682.473	0.0042
682.732	0.0036
682.99	0.0048
683.249	0.0047
683.508	0.0041
683.766	0.0035
684.024	0.0032
684.283	0.0019
684.541	0.002
684.799	0.0008
685.058	0.0002
685.316	0.0005
685.574	-0.0001
685.832	0.0007
686.09	-0
686.348	-0.0002
686.606	-0.0009
686.863	-0.0015
687.121	-0.0012
687.379	-0.0017
687.636	-0.0026
687.894	-0.0025
688.151	-0.0026
688.409	-0.0016
688.666	-0.001
688.923	-0.0017
689.181	-0.0007
689.438	-0.001
689.695	-0.0005
689.952	-0.0008
690.209	-0.0005
690.466	-0.001
690.723	-0.0002
690.979	-0.0009
691.236	-0.0009
691.493	-0.0023
691.75	-0.0019
692.006	-0.0008
692.263	-0.0009
692.519	-0.0012
692.775	-0.002
693.032	-0.002
693.288	-0.002
693.544	-0.0014
693.8	-0.0009
694.056	-0.0016
694.313	-0.002
694.568	-0.0007
694.824	-0.0012
695.08	-0.0009
695.336	-0
695.592	0.0002
695.847	0.0007
696.103	0.0012
696.359	0.0033
696.614	0.0033
696.869	0.0019
697.125	0.0014
697.38	-0.001
697.635	0.0004
697.891	0.0009
698.146	0.0003
698.401	-0.0001
698.656	-0.0006
698.911	0.0001
699.166	-0.0001
699.42	0.0011
699.675	0.0019
699.93	0.0022
700.185	0.0023
700.439	0.002
700.694	0.0017
700.948	0.0026
701.203	0.0013
701.457	0.0009
701.711	0.0011
701.965	-0.0002
702.22	0.001
702.474	0.0003
702.728	0.0006
702.982	-0
703.236	-0.0007
703.49	-0.0008
703.743	-0.0013
703.997	0.0005
704.251	-0
704.504	0.0016
704.758	0.0015
705.012	0.001
705.265	0.0023
705.518	0.0007
705.772	0.0015
706.025	0.0011
706.278	0.0007
706.531	0.0003
706.785	-0.0003
707.038	-0.0005
707.291	-0.0006
707.543	-0
707.796	-0.0001
708.049	0.0003
708.302	0.0001
708.555	-0.0001
708.807	0.0005
709.06	0.0008
709.312	0.0019
709.565	0.0015
709.817	0.003
710.069	0.0016
710.322	0.0033
710.574	0.0031
710.826	0.0031
711.078	0.0022
711.33	0.0024
711.582	0.0023
711.834	0.0024
712.086	0.003
712.338	0.002
712.59	0.0013
712.841	0.0013
713.093	0.0009
713.344	0.0016
713.596	0.0001
713.847	-0.0011
714.099	-0.0009
714.35	0.0006
714.601	-0.0019
714.853	-0.0024
715.104	-0.002
715.355	-0.0014
715.606	-0.0002
715.857	-0.0008
716.108	-0.0008
716.359	0.0004
716.609	-0.0012
716.86	0.0007
717.111	0.0008
717.361	0
717.612	0.0004
717.863	0.0007
718.113	0.0015
718.363	0.0019
718.614	0.0015
718.864	0.0012
719.114	0.0006
719.364	-0.0001
719.614	-0.0007
719.865	-0.0008
720.114	0.0005
720.364	0.0003
720.614	-0.0007
720.864	-0.0003
721.114	-0.0012
721.364	-0.0014
721.613	-0.0015
721.863	-0.0014
722.112	-0.0009
722.362	-0.0004
722.611	-0.0001
722.86	0.0001
723.11	0.0015
723.359	0.0009
723.608	0.001
723.857	0.0034
724.106	0.0017
724.355	0.0014
724.604	0.001
724.853	0.0002
725.102	-0.0001
725.351	-0.0013
725.599	-0.0029
725.848	-0.0017
726.097	-0.0003
726.345	-0.0015
726.594	-0.0012
726.842	-0.0007
727.09	-0.0015
727.339	-0.0004
727.587	-0.0012
727.835	-0.0023
728.083	-0.002
728.331	-0.0021
728.579	-0.0009
728.827	-0.0023
729.075	-0.0024
729.323	-0.0021
729.571	-0.0031
729.818	-0.0024
730.066	-0.0016
730.314	-0.0022
730.561	-0.002
730.809	-0.0029
731.056	-0.0026
731.303	-0.0027
731.551	-0.0028
731.798	-0.0023
732.045	-0.0016
732.292	-0.0024
732.539	-0.0015
732.786	-0.0024
733.033	-0.002
733.28	-0.0011
733.527	-0.0021
733.774	-0.0024
734.021	-0.0017
734.267	-0.0013
734.514	-0.0016
734.76	-0.0021
735.007	-0.0016
735.253	-0.0005
735.5	0.0006
735.746	0.0015
735.992	0.0008
736.238	0.0011
736.485	0.0013
736.731	0.0023
736.977	0.0013
737.223	0.0001
737.469	0.0003
737.715	0.0007
737.96	0.0014
738.206	0.001
738.452	0.0006
738.697	0.0003
738.943	-0.0011
739.189	0.0004
739.434	-0.0006
739.679	-0.0004
739.925	0.0015
740.17	0.002
740.415	0.0012
740.66	0.0016
740.906	0.0016
741.151	0.0015
741.396	0.0003
741.641	-0.0004
741.886	0.0007
742.13	0.0007
742.375	0.0016
742.62	0.0009
742.865	0.0004
743.109	0.0014
743.354	0.0001
743.598	-0.0005
743.843	-0.0021
744.087	-0.0026
744.331	-0.0032
744.576	-0.0024
744.82	-0.0016
745.064	-0.0009
745.308	-0.0005
745.552	-0.0005
745.796	-0.0005
746.04	-0.0004
746.284	-0.0011
746.528	-0.0008
746.771	-0.0007
747.015	-0.0008
747.259	-0.0005
747.502	-0.0019
747.746	-0.001
747.989	-0.0006
748.233	-0.0001
748.476	-0.0002
748.719	-0.0001
748.963	0.0003
749.206	-0.0005
749.449	-0.0003
749.692	0.0004
749.935	0.0005
750.178	0.0001
750.421	-0.0009
750.664	0
750.906	0.0005
751.149	-0.0001
751.392	0.0008
751.635	-0.0001
751.877	0.0001
752.12	-0.0002
752.362	0.0001
752.604	0
752.847	0.0003
753.089	0.0003
753.331	0.0005
753.573	0.0007
753.816	0.0008
754.058	0.0013
754.3	0.0004
754.542	0.0019
754.783	0.0012
755.025	0.0028
755.267	0.0022
755.509	0.002
755.75	0.0004
755.992	0.0007
756.234	0.0008
756.475	0.0008
756.716	-0.0002
756.958	-0.0001
757.199	-0.0011
757.44	0.0002
757.682	0.0007
757.923	0.0001
758.164	0
758.405	0
758.646	0.0004
758.887	-0.0004
759.128	-0.0008
759.369	-0.0009
759.609	-0.0009
759.85	0.0001
760.091	-0.0001
760.331	0.0011
760.572	0.0012
760.812	0.0003
761.053	0.0007
761.293	0.0016
761.533	0.002
761.774	0.0017
762.014	0.0026
762.254	0.002
762.494	0.0015
762.734	0.0015
762.974	0.0026
763.214	0.0011
763.454	0.0011
763.694	0.0016
763.933	0.0021
764.173	0.0034
764.413	0.0038
764.652	0.0015
764.892	0.0013
765.131	0.0016
765.371	0.0006
765.61	-0.0006
765.849	-0.0016
766.089	-0.0022
766.328	-0.0024
766.567	-0.0027
766.806	-0.0029
767.045	-0.0038
767.284	-0.0031
767.523	-0.0035
767.762	-0.0038
768.001	-0.0028
768.239	-0.0024
768.478	-0.0025
768.717	-0.0029
768.955	-0.0035
769.194	-0.0023
769.432	-0.0023
769.671	-0.0016
769.909	-0.0018
770.148	-0.001
770.386	-0.0013
770.624	-0.0018
770.862	-0.0025
771.1	-0.0019
771.338	-0.0024
771.576	-0.0013
771.814	0.0006
772.052	0.0001
772.29	0.0017
772.528	0.0007
772.765	-0.0006
773.003	-0.0015
773.24	-0.0004
773.478	-0.0008
773.716	0.0012
773.953	0.0004
774.19	0.0007
774.428	0.002
774.665	0.0021
774.902	0.003
775.139	0.0027
775.376	0.0016
775.613	0.001
775.85	0.001
776.087	0.0014
776.324	0.0003
776.561	-0.0005
776.798	-0.0002
777.034	-0.0007
777.271	0.0004
777.508	0
777.744	0.0022
777.981	0.0009
778.217	0.0005
778.454	-0.0003
778.69	-0.0001
778.926	-0.0008
779.162	-0.0006
779.399	0.0011
779.635	-0.0002
779.871	0.0003
780.107	-0.0008
780.343	-0.0012
780.579	-0.0011
780.814	-0.0007
781.05	-0.0004
781.286	-0.0013
781.522	-0.0019
781.757	-0.0027
781.993	-0.0015
782.228	-0.0025
782.464	-0.0017
782.699	-0.0007
782.934	-0.0007
783.17	-0.001
783.405	-0.0001
783.64	-0.0014
783.875	-0.002
784.11	-0.0015
784.345	-0.0013
784.58	-0.0016
784.815	-0.0019
785.05	-0.0015
785.285	-0.0011
785.52	-0.0007
785.754	-0.001
785.989	-0.0004
786.223	-0.0003
786.458	0.001
786.692	0.0013
786.927	0.0022
787.161	0.0021
787.396	0.0029
787.63	0.0023
787.864	0.0009
788.098	0.0001
788.332	-0.0001
788.566	-0.001
788.8	-0.0013
789.034	-0.0006
789.268	-0.0009
789.502	-0.0003
789.736	0.0006
789.969	-0.0009
790.203	0.0007
790.437	0.0002
790.67	-0
790.904	0.0013
791.137	0.0022
791.37	0.0013
791.604	0.0016
791.837	0.0028
792.07	0.0033
792.303	0.0041
792.537	0.0042
792.77	0.004
793.003	0.0044
793.236	0.0037
793.469	0.0028
793.701	0.0024
793.934	0.0025
794.167	0.0028
794.4	0.0015
794.632	0.0004
794.865	0.0001
795.097	-0.0007
795.33	-0
795.562	-0.0004
795.795	-0.0006
796.027	0.0004
796.259	0.0022
796.491	0.0017
796.724	0.0026
796.956	0.0035
797.188	0.0017
797.42	0.0019
797.652	0.0019
797.883	0.0029
798.115	0.0031
798.347	0.0025
798.579	0.0019
798.81	0.0017
799.042	0.0021
799.274	0.0025
799.505	0.0022
799.737	0.0021
799.968	0.0014
800.199	0.0021
800.431	0.0027
800.662	0.0014
800.893	0.0029
801.124	0.0031
801.355	0.0031
801.586	0.0046
801.817	0.005
802.048	0.0045
802.279	0.0036
802.51	0.0039
802.741	0.0047
802.971	0.0042
803.202	0.0028
803.433	0.0031
803.663	0.0025
803.894	0.0026
804.124	0.0014
804.354	0.0039
804.585	0.0046
804.815	0.0045
805.045	0.005
805.275	0.0046
805.506	-0.0363
805.736	0.0624
805.966	0.5593
806.196	0.1051
