Data from 03 0.4 mM K2Cr2O7 0.25 M BQDS 1 M H2SO4 5 min_Absorbance_0277.txt Node
Date: Wed Dec 15 16:35:13 EST 2021
User: kwabilab-user
Spectrometer: HDX00518
Trigger mode: 0
Integration Time (sec): 5.000000E-2
Scans to average: 50
Nonlinearity correction enabled: false
Boxcar width: 0
Storing dark spectrum: false
XAxis mode: Wavelengths
Number of Pixels in Spectrum: 2068
>>>>>Begin Spectral Data<<<<<
195.27	-0.3065
195.642	-0.0191
196.014	-0.3189
196.386	-0.1314
196.758	-0.0903
197.129	-0.0148
197.501	-0.0356
197.872	0.0013
198.244	-0.0018
198.615	0.031
198.986	0.0159
199.357	0.0129
199.728	0.0183
200.099	0.018
200.47	0.0238
200.841	-0.0056
201.212	0.0083
201.582	0.033
201.953	0.0316
202.323	0.0247
202.694	0.0101
203.064	0.0081
203.434	0.0032
203.804	0.0218
204.174	0.0025
204.544	0.0163
204.914	0.0029
205.284	-0.003
205.653	-0.0061
206.023	0.0123
206.393	0.0243
206.762	0.0074
207.131	0.0155
207.501	0.0194
207.87	0.024
208.239	0.0075
208.608	0.0193
208.977	0.0033
209.346	0.0028
209.715	0.0137
210.083	0.0321
210.452	0.0223
210.82	0.0167
211.189	0.0093
211.557	0.0305
211.925	0.014
212.294	-0.0024
212.662	0.0159
213.03	0.021
213.398	0.021
213.766	0.0239
214.133	0.0367
214.501	0.0223
214.869	0.0075
215.236	0.0147
215.604	0.0169
215.971	0.0318
216.338	0.0203
216.705	0.0252
217.072	0.0239
217.439	0.0252
217.806	0.0287
218.173	0.0499
218.54	0.0453
218.907	0.0399
219.273	0.0655
219.64	0.0622
220.006	0.0639
220.373	0.0862
220.739	0.1041
221.105	0.1049
221.471	0.144
221.837	0.159
222.203	0.1756
222.569	0.1639
222.935	0.184
223.3	0.2042
223.666	0.2195
224.031	0.259
224.397	0.2857
224.762	0.2835
225.127	0.3227
225.493	0.352
225.858	0.3789
226.223	0.3881
226.588	0.3891
226.952	0.4179
227.317	0.4519
227.682	0.4683
228.046	0.4701
228.411	0.5015
228.775	0.4996
229.14	0.495
229.504	0.5266
229.868	0.545
230.232	0.5474
230.596	0.5521
230.96	0.5912
231.324	0.5663
231.688	0.5642
232.052	0.5907
232.415	0.5845
232.779	0.585
233.142	0.5854
233.505	0.5935
233.869	0.6018
234.232	0.5995
234.595	0.5942
234.958	0.5981
235.321	0.5945
235.684	0.5917
236.047	0.5886
236.409	0.5854
236.772	0.5806
237.134	0.5799
237.497	0.574
237.859	0.5834
238.222	0.5705
238.584	0.5642
238.946	0.5534
239.308	0.5564
239.67	0.5618
240.032	0.5534
240.393	0.5531
240.755	0.5439
241.117	0.5448
241.478	0.5429
241.84	0.5393
242.201	0.5412
242.562	0.5295
242.924	0.5265
243.285	0.5123
243.646	0.5157
244.007	0.5117
244.368	0.517
244.728	0.5102
245.089	0.5111
245.45	0.5029
245.81	0.5029
246.171	0.4969
246.531	0.5006
246.891	0.4951
247.252	0.487
247.612	0.4958
247.972	0.4906
248.332	0.484
248.692	0.4823
249.051	0.4785
249.411	0.4817
249.771	0.4811
250.13	0.48
250.49	0.4774
250.849	0.4763
251.208	0.4754
251.568	0.4709
251.927	0.471
252.286	0.4666
252.645	0.4617
253.004	0.4645
253.363	0.4662
253.721	0.4645
254.08	0.4655
254.439	0.4607
254.797	0.4608
255.155	0.4606
255.514	0.4584
255.872	0.4557
256.23	0.4565
256.588	0.4561
256.946	0.4523
257.304	0.4528
257.662	0.4534
258.02	0.4527
258.377	0.4498
258.735	0.4466
259.093	0.4454
259.45	0.4485
259.807	0.4454
260.165	0.4419
260.522	0.4465
260.879	0.4381
261.236	0.4395
261.593	0.4391
261.95	0.4336
262.306	0.4376
262.663	0.4342
263.02	0.4319
263.376	0.4281
263.733	0.429
264.089	0.4299
264.445	0.4259
264.802	0.4236
265.158	0.4224
265.514	0.4195
265.87	0.4186
266.226	0.4185
266.581	0.4152
266.937	0.4171
267.293	0.4116
267.648	0.4083
268.004	0.4074
268.359	0.4084
268.714	0.4032
269.07	0.4052
269.425	0.4034
269.78	0.4002
270.135	0.3977
270.49	0.3954
270.844	0.397
271.199	0.3914
271.554	0.3885
271.908	0.3903
272.263	0.3864
272.617	0.3842
272.972	0.3773
273.326	0.38
273.68	0.3763
274.034	0.375
274.388	0.374
274.742	0.3686
275.096	0.3664
275.45	0.3654
275.803	0.3679
276.157	0.356
276.51	0.3547
276.864	0.3549
277.217	0.356
277.571	0.3501
277.924	0.3451
278.277	0.3443
278.63	0.3405
278.983	0.3371
279.336	0.3374
279.688	0.334
280.041	0.3284
280.394	0.3252
280.746	0.3217
281.099	0.3206
281.451	0.3175
281.803	0.3151
282.156	0.3115
282.508	0.3072
282.86	0.3045
283.212	0.303
283.564	0.2977
283.916	0.2942
284.267	0.292
284.619	0.2893
284.971	0.2861
285.322	0.2836
285.673	0.2813
286.025	0.277
286.376	0.2727
286.727	0.2705
287.078	0.267
287.429	0.2662
287.78	0.2615
288.131	0.2605
288.482	0.2563
288.833	0.2528
289.183	0.2493
289.534	0.2467
289.884	0.2447
290.235	0.2395
290.585	0.2383
290.935	0.2344
291.285	0.2326
291.635	0.2273
291.985	0.2259
292.335	0.2242
292.685	0.2208
293.035	0.2162
293.384	0.2136
293.734	0.2094
294.083	0.2083
294.433	0.2043
294.782	0.2036
295.131	0.1999
295.48	0.1973
295.829	0.1938
296.179	0.1927
296.527	0.1872
296.876	0.1867
297.225	0.1819
297.574	0.1797
297.922	0.1772
298.271	0.1751
298.619	0.1715
298.968	0.1697
299.316	0.1673
299.664	0.1672
300.012	0.1631
300.36	0.1598
300.708	0.1572
301.056	0.1557
301.404	0.1532
301.752	0.1515
302.099	0.149
302.447	0.1475
302.794	0.1445
303.142	0.1427
303.489	0.1407
303.836	0.1393
304.183	0.1381
304.531	0.1359
304.878	0.1344
305.224	0.1323
305.571	0.1309
305.918	0.1293
306.265	0.1275
306.611	0.1265
306.958	0.126
307.304	0.1245
307.651	0.1236
307.997	0.1216
308.343	0.1204
308.689	0.1196
309.035	0.1191
309.381	0.1179
309.727	0.116
310.073	0.1158
310.419	0.1146
310.764	0.1147
311.11	0.1136
311.455	0.1133
311.801	0.1134
312.146	0.1115
312.491	0.112
312.837	0.111
313.182	0.11
313.527	0.1098
313.872	0.11
314.216	0.11
314.561	0.1098
314.906	0.1093
315.251	0.1097
315.595	0.1096
315.94	0.1097
316.284	0.11
316.628	0.1096
316.972	0.1098
317.317	0.1094
317.661	0.1106
318.005	0.1102
318.348	0.1107
318.692	0.1109
319.036	0.1109
319.38	0.1122
319.723	0.1112
320.067	0.1122
320.41	0.1121
320.754	0.1127
321.097	0.1127
321.44	0.1137
321.783	0.1147
322.126	0.1152
322.469	0.1159
322.812	0.116
323.155	0.1169
323.498	0.1174
323.84	0.1177
324.183	0.1185
324.525	0.1201
324.868	0.1213
325.21	0.1214
325.552	0.1214
325.894	0.1235
326.236	0.123
326.578	0.1247
326.92	0.1254
327.262	0.1259
327.604	0.127
327.946	0.1278
328.287	0.1282
328.629	0.1299
328.97	0.1306
329.312	0.1315
329.653	0.1327
329.994	0.1332
330.335	0.1347
330.676	0.1355
331.017	0.136
331.358	0.1373
331.699	0.1386
332.04	0.1394
332.38	0.1401
332.721	0.1412
333.061	0.142
333.402	0.1435
333.742	0.1438
334.083	0.145
334.423	0.1457
334.763	0.1467
335.103	0.1475
335.443	0.1482
335.783	0.1496
336.123	0.15
336.462	0.1503
336.802	0.1515
337.141	0.1517
337.481	0.1532
337.82	0.1536
338.16	0.1543
338.499	0.156
338.838	0.1567
339.177	0.1571
339.516	0.1579
339.855	0.1585
340.194	0.1596
340.533	0.159
340.872	0.1598
341.21	0.1611
341.549	0.1613
341.887	0.1622
342.226	0.1621
342.564	0.1624
342.902	0.1634
343.24	0.1634
343.578	0.1647
343.916	0.1639
344.254	0.1651
344.592	0.1653
344.93	0.1647
345.268	0.1641
345.605	0.1651
345.943	0.1651
346.28	0.166
346.618	0.1652
346.955	0.1657
347.292	0.1663
347.629	0.1661
347.966	0.1659
348.303	0.1661
348.64	0.1665
348.977	0.166
349.314	0.1664
349.65	0.1664
349.987	0.167
350.324	0.1659
350.66	0.1666
350.996	0.1663
351.333	0.1652
351.669	0.165
352.005	0.1648
352.341	0.164
352.677	0.1638
353.013	0.1632
353.349	0.1627
353.685	0.1619
354.02	0.1617
354.356	0.1607
354.691	0.1597
355.027	0.1589
355.362	0.1582
355.697	0.1579
356.033	0.1577
356.368	0.1571
356.703	0.1562
357.038	0.1558
357.373	0.1543
357.707	0.1546
358.042	0.1543
358.377	0.153
358.711	0.153
359.046	0.1513
359.38	0.1513
359.715	0.1505
360.049	0.15
360.383	0.1484
360.717	0.1476
361.051	0.1471
361.385	0.1466
361.719	0.1452
362.053	0.145
362.387	0.1427
362.72	0.1424
363.054	0.1413
363.387	0.1396
363.721	0.1386
364.054	0.1386
364.387	0.1362
364.721	0.1346
365.054	0.1346
365.387	0.1325
365.72	0.1323
366.053	0.1307
366.385	0.1298
366.718	0.1287
367.051	0.127
367.383	0.1266
367.716	0.1261
368.048	0.1253
368.381	0.1251
368.713	0.1233
369.045	0.1224
369.377	0.1217
369.709	0.1209
370.041	0.1197
370.373	0.1188
370.705	0.1178
371.037	0.1167
371.368	0.1155
371.7	0.114
372.031	0.1132
372.363	0.1121
372.694	0.1114
373.025	0.109
373.356	0.1087
373.688	0.1071
374.019	0.1061
374.35	0.1042
374.68	0.1034
375.011	0.1013
375.342	0.101
375.673	0.0992
376.003	0.0979
376.334	0.0971
376.664	0.0956
376.995	0.0947
377.325	0.0939
377.655	0.0922
377.985	0.0915
378.315	0.0904
378.645	0.0898
378.975	0.0885
379.305	0.0874
379.635	0.0873
379.964	0.0862
380.294	0.0857
380.623	0.0843
380.953	0.0834
381.282	0.0831
381.611	0.0823
381.941	0.0813
382.27	0.0797
382.599	0.0797
382.928	0.0781
383.257	0.0775
383.585	0.0764
383.914	0.0751
384.243	0.0744
384.571	0.0732
384.9	0.0726
385.228	0.0713
385.557	0.0706
385.885	0.0686
386.213	0.0682
386.541	0.0669
386.869	0.0659
387.197	0.0644
387.525	0.0633
387.853	0.0622
388.181	0.0613
388.508	0.0609
388.836	0.0599
389.164	0.0591
389.491	0.0582
389.818	0.0571
390.146	0.0572
390.473	0.0557
390.8	0.0551
391.127	0.054
391.454	0.0533
391.781	0.0527
392.108	0.0524
392.435	0.0512
392.761	0.051
393.088	0.0501
393.415	0.0498
393.741	0.0503
394.067	0.0497
394.394	0.0488
394.72	0.0479
395.046	0.0471
395.372	0.0466
395.698	0.0458
396.024	0.0445
396.35	0.0451
396.676	0.0446
397.001	0.0437
397.327	0.0423
397.653	0.0421
397.978	0.0411
398.303	0.0406
398.629	0.0403
398.954	0.0398
399.279	0.0399
399.604	0.0387
399.929	0.0394
400.254	0.038
400.579	0.0377
400.904	0.037
401.229	0.0369
401.553	0.0365
401.878	0.0371
402.202	0.0366
402.527	0.0357
402.851	0.0358
403.175	0.0348
403.5	0.0342
403.824	0.0335
404.148	0.0338
404.472	0.0339
404.796	0.0334
405.119	0.0335
405.443	0.0333
405.767	0.0329
406.09	0.0327
406.414	0.0328
406.737	0.0326
407.061	0.0324
407.384	0.0322
407.707	0.0321
408.03	0.0318
408.353	0.0317
408.676	0.0317
408.999	0.0319
409.322	0.0312
409.645	0.0313
409.968	0.0311
410.29	0.0315
410.613	0.0318
410.935	0.0303
411.258	0.0309
411.58	0.0302
411.902	0.0305
412.224	0.0304
412.546	0.0306
412.868	0.0313
413.19	0.0306
413.512	0.0302
413.834	0.0308
414.156	0.0309
414.477	0.0305
414.799	0.0308
415.121	0.0305
415.442	0.03
415.763	0.0302
416.085	0.0309
416.406	0.0299
416.727	0.0305
417.048	0.0306
417.369	0.0303
417.69	0.0301
418.011	0.0299
418.331	0.031
418.652	0.0304
418.973	0.0299
419.293	0.0303
419.614	0.0298
419.934	0.0308
420.254	0.03
420.574	0.0291
420.895	0.0299
421.215	0.0296
421.535	0.0298
421.855	0.0289
422.174	0.0286
422.494	0.0296
422.814	0.0297
423.134	0.0298
423.453	0.03
423.773	0.0305
424.092	0.0296
424.411	0.0299
424.731	0.0298
425.05	0.0299
425.369	0.0301
425.688	0.0297
426.007	0.0296
426.326	0.03
426.644	0.0295
426.963	0.0294
427.282	0.0294
427.6	0.0293
427.919	0.0298
428.237	0.03
428.556	0.0304
428.874	0.0301
429.192	0.0299
429.51	0.0295
429.828	0.0296
430.146	0.0301
430.464	0.0293
430.782	0.0299
431.1	0.0289
431.418	0.0299
431.735	0.0291
432.053	0.0296
432.37	0.0294
432.688	0.0284
433.005	0.0291
433.322	0.0304
433.639	0.0301
433.957	0.0293
434.274	0.0304
434.591	0.0298
434.907	0.0298
435.224	0.0293
435.541	0.0292
435.858	0.0301
436.174	0.0297
436.491	0.0288
436.807	0.0289
437.124	0.0291
437.44	0.0292
437.756	0.0302
438.072	0.029
438.388	0.0296
438.704	0.0293
439.02	0.029
439.336	0.0295
439.652	0.0295
439.968	0.0292
440.283	0.0293
440.599	0.0293
440.914	0.0294
441.23	0.0289
441.545	0.0289
441.86	0.0287
442.175	0.0297
442.491	0.0283
442.806	0.0285
443.121	0.0278
443.435	0.0279
443.75	0.028
444.065	0.0286
444.38	0.0287
444.694	0.0278
445.009	0.0278
445.323	0.028
445.638	0.0278
445.952	0.0276
446.266	0.0275
446.58	0.0268
446.894	0.0279
447.208	0.027
447.522	0.0266
447.836	0.0276
448.15	0.0271
448.464	0.0273
448.777	0.0277
449.091	0.0271
449.404	0.0266
449.718	0.027
450.031	0.0265
450.345	0.0265
450.658	0.0261
450.971	0.0259
451.284	0.0262
451.597	0.0267
451.91	0.0258
452.223	0.0263
452.535	0.0259
452.848	0.0258
453.161	0.0261
453.473	0.0261
453.786	0.0263
454.098	0.0255
454.411	0.0253
454.723	0.0265
455.035	0.0251
455.347	0.0256
455.659	0.0252
455.971	0.0259
456.283	0.0258
456.595	0.0249
456.907	0.0249
457.218	0.0258
457.53	0.0244
457.841	0.0248
458.153	0.0247
458.464	0.0239
458.776	0.0246
459.087	0.0247
459.398	0.0237
459.709	0.0231
460.02	0.0247
460.331	0.0238
460.642	0.0235
460.953	0.0237
461.263	0.0233
461.574	0.0227
461.885	0.0237
462.195	0.0229
462.506	0.0234
462.816	0.0235
463.126	0.0234
463.437	0.0227
463.747	0.0224
464.057	0.0216
464.367	0.021
464.677	0.0219
464.987	0.021
465.296	0.0213
465.606	0.0215
465.916	0.0202
466.225	0.0211
466.535	0.0209
466.844	0.0217
467.154	0.0216
467.463	0.0206
467.772	0.0206
468.081	0.0204
468.39	0.0209
468.699	0.0206
469.008	0.0205
469.317	0.0205
469.626	0.0201
469.935	0.0199
470.243	0.0206
470.552	0.0194
470.86	0.0204
471.169	0.0197
471.477	0.019
471.785	0.0184
472.093	0.0191
472.402	0.0183
472.71	0.0188
473.018	0.018
473.326	0.0188
473.633	0.0186
473.941	0.0183
474.249	0.0184
474.556	0.0173
474.864	0.0177
475.171	0.018
475.479	0.0179
475.786	0.0181
476.094	0.0177
476.401	0.0176
476.708	0.0173
477.015	0.0168
477.322	0.0158
477.629	0.0164
477.936	0.0162
478.242	0.016
478.549	0.0163
478.856	0.0157
479.162	0.0159
479.469	0.0165
479.775	0.0155
480.081	0.0154
480.388	0.0149
480.694	0.0157
481	0.0155
481.306	0.0153
481.612	0.0157
481.918	0.0166
482.224	0.0155
482.53	0.0157
482.835	0.0152
483.141	0.0151
483.446	0.0148
483.752	0.0137
484.057	0.0132
484.363	0.0138
484.668	0.0142
484.973	0.0131
485.278	0.0125
485.583	0.0121
485.888	0.0127
486.193	0.0113
486.498	0.0129
486.803	0.0127
487.107	0.0123
487.412	0.0108
487.717	0.011
488.021	0.0126
488.325	0.0113
488.63	0.0119
488.934	0.012
489.238	0.0111
489.542	0.0112
489.846	0.0108
490.15	0.0122
490.454	0.012
490.758	0.0117
491.062	0.0115
491.366	0.0112
491.669	0.0111
491.973	0.0106
492.276	0.0102
492.58	0.0101
492.883	0.0106
493.186	0.0094
493.489	0.0102
493.792	0.0088
494.096	0.0081
494.399	0.0101
494.701	0.0094
495.004	0.0089
495.307	0.0097
495.61	0.0095
495.912	0.0093
496.215	0.0091
496.517	0.0098
496.82	0.0083
497.122	0.0087
497.424	0.009
497.727	0.0087
498.029	0.0095
498.331	0.0089
498.633	0.0082
498.935	0.0074
499.237	0.0087
499.538	0.0074
499.84	0.0084
500.142	0.0072
500.443	0.0075
500.745	0.0078
501.046	0.0073
501.348	0.0069
501.649	0.0074
501.95	0.0071
502.251	0.0082
502.552	0.0068
502.853	0.0075
503.154	0.0075
503.455	0.0069
503.756	0.008
504.057	0.0068
504.357	0.007
504.658	0.0065
504.958	0.0055
505.259	0.0065
505.559	0.0057
505.859	0.0051
506.16	0.005
506.46	0.0057
506.76	0.0054
507.06	0.0055
507.36	0.0048
507.66	0.0065
507.96	0.0073
508.259	0.0057
508.559	0.0054
508.859	0.0061
509.158	0.0055
509.457	0.0045
509.757	0.0055
510.056	0.0058
510.355	0.0057
510.655	0.0049
510.954	0.0049
511.253	0.0053
511.552	0.0053
511.851	0.0051
512.149	0.0037
512.448	0.0044
512.747	0.0048
513.045	0.0043
513.344	0.0047
513.642	0.005
513.941	0.0057
514.239	0.0042
514.537	0.0042
514.836	0.0046
515.134	0.0048
515.432	0.0034
515.73	0.0041
516.028	0.0042
516.326	0.0039
516.623	0.0038
516.921	0.0033
517.219	0.0045
517.516	0.0034
517.814	0.0046
518.111	0.0036
518.409	0.0051
518.706	0.0047
519.003	0.0027
519.3	0.0036
519.597	0.0042
519.894	0.0031
520.191	0.0044
520.488	0.0043
520.785	0.0037
521.082	0.0037
521.378	0.0051
521.675	0.0032
521.971	0.0045
522.268	0.0047
522.564	0.0041
522.861	0.0045
523.157	0.0031
523.453	0.0044
523.749	0.0039
524.045	0.0035
524.341	0.004
524.637	0.004
524.933	0.0043
525.229	0.0039
525.524	0.0037
525.82	0.0037
526.115	0.004
526.411	0.0036
526.706	0.0032
527.002	0.003
527.297	0.0018
527.592	0.0039
527.887	0.003
528.182	0.0029
528.477	0.0042
528.772	0.0024
529.067	0.0037
529.362	0.0031
529.657	0.0039
529.951	0.003
530.246	0.0021
530.54	0.0043
530.835	0.0032
531.129	0.0044
531.423	0.0032
531.718	0.0042
532.012	0.0035
532.306	0.0038
532.6	0.0025
532.894	0.0049
533.188	0.0034
533.482	0.0037
533.775	0.0025
534.069	0.0025
534.363	0.003
534.656	0.0031
534.95	0.0031
535.243	0.0026
535.536	0.0028
535.83	0.002
536.123	0.0027
536.416	0.0023
536.709	0.0032
537.002	0.0036
537.295	0.0026
537.588	0.0026
537.881	0.002
538.173	0.0038
538.466	0.0025
538.759	0.0033
539.051	0.0037
539.344	0.0035
539.636	0.0029
539.928	0.0041
540.22	0.0028
540.513	0.0036
540.805	0.0038
541.097	0.0045
541.389	0.0034
541.681	0.0038
541.972	0.0028
542.264	0.0032
542.556	0.0033
542.847	0.0033
543.139	0.0037
543.431	0.0027
543.722	0.0021
544.013	0.0033
544.305	0.0025
544.596	0.0036
544.887	0.0026
545.178	0.0035
545.469	0.0038
545.76	0.0042
546.051	0.0039
546.342	0.0036
546.632	0.0034
546.923	0.0033
547.214	0.0028
547.504	0.0035
547.795	0.0029
548.085	0.0036
548.375	0.0037
548.666	0.0052
548.956	0.0042
549.246	0.0052
549.536	0.0047
549.826	0.0058
550.116	0.0042
550.406	0.0044
550.695	0.0059
550.985	0.0048
551.275	0.0056
551.564	0.006
551.854	0.0056
552.143	0.0048
552.433	0.0045
552.722	0.0044
553.011	0.0051
553.3	0.0047
553.589	0.005
553.879	0.0042
554.167	0.004
554.456	0.0037
554.745	0.0044
555.034	0.0052
555.323	0.0035
555.611	0.0038
555.9	0.004
556.188	0.0026
556.477	0.0022
556.765	0.0046
557.053	0.0034
557.342	0.0037
557.63	0.0037
557.918	0.0046
558.206	0.0044
558.494	0.0045
558.782	0.0051
559.069	0.0058
559.357	0.0035
559.645	0.0046
559.932	0.0034
560.22	0.0038
560.507	0.002
560.795	0.0031
561.082	0.0013
561.37	0.0032
561.657	0.0024
561.944	0.0034
562.231	0.0031
562.518	0.0037
562.805	0.0052
563.092	0.0036
563.379	0.0029
563.665	0.0036
563.952	0.004
564.239	0.0045
564.525	0.0039
564.811	0.0036
565.098	0.0038
565.384	0.0041
565.67	0.0043
565.957	0.0043
566.243	0.0052
566.529	0.0044
566.815	0.005
567.101	0.0046
567.387	0.0046
567.672	0.0046
567.958	0.0034
568.244	0.0029
568.529	0.0042
568.815	0.0029
569.1	0.0031
569.386	0.0043
569.671	0.0028
569.956	0.0037
570.242	0.0027
570.527	0.0025
570.812	0.0029
571.097	0.0017
571.382	0.0016
571.666	0.0016
571.951	0.0035
572.236	0.0021
572.521	0.0029
572.805	0.0043
573.09	0.0028
573.374	0.0019
573.659	0.0016
573.943	0.0022
574.227	0.0026
574.511	0.0032
574.795	0.0032
575.079	0.0038
575.363	0.0028
575.647	0.0026
575.931	0.0032
576.215	0.003
576.499	0.0022
576.782	0.0027
577.066	0.0028
577.349	0.0036
577.633	0.0034
577.916	0.0021
578.2	0.0027
578.483	0.0031
578.766	0.0039
579.049	0.0038
579.332	0.0032
579.615	0.0016
579.898	0.003
580.181	0.0028
580.464	0.0032
580.746	0.003
581.029	0.0027
581.312	0.0013
581.594	0.0011
581.877	0.0027
582.159	0.0035
582.441	0.0022
582.724	0.0036
583.006	0.0039
583.288	0.0035
583.57	0.0035
583.852	0.0038
584.134	0.0041
584.416	0.0026
584.697	0.0024
584.979	0.0018
585.261	0.0019
585.542	0.0025
585.824	0.0033
586.105	0.0029
586.387	0.0027
586.668	0.0036
586.949	0.0042
587.231	0.0033
587.512	0.0032
587.793	0.0028
588.074	0.0042
588.355	0.0031
588.636	0.0024
588.916	0.0037
589.197	0.0032
589.478	0.0039
589.758	0.0025
590.039	0.0021
590.319	0.0021
590.6	0.0025
590.88	0.0026
591.16	0.0029
591.441	0.0034
591.721	0.0033
592.001	0.0023
592.281	0.0031
592.561	0.0026
592.841	0.0019
593.12	0.0018
593.4	0.0028
593.68	0.003
593.959	0.0034
594.239	0.0037
594.518	0.0043
594.798	0.0042
595.077	0.0032
595.356	0.0031
595.636	0.0032
595.915	0.0029
596.194	0.0038
596.473	0.0034
596.752	0.0034
597.031	0.0028
597.31	0.0027
597.588	0.0028
597.867	0.0023
598.146	0.003
598.424	0.0019
598.703	0.0023
598.981	0.0013
599.259	0.0014
599.538	0.0025
599.816	0.0032
600.094	0.0027
600.372	0.0022
600.65	0.003
600.928	0.0036
601.206	0.0031
601.484	0.0033
601.762	0.0033
602.04	0.0044
602.317	0.0036
602.595	0.0041
602.872	0.004
603.15	0.0045
603.427	0.0024
603.704	0.0017
603.982	0.0009
604.259	0.0023
604.536	0.0028
604.813	0.0022
605.09	0.0025
605.367	0.0011
605.644	0.0018
605.921	0.0018
606.197	0.0013
606.474	0.0026
606.751	0.0016
607.027	0.0025
607.304	0.002
607.58	0.0028
607.856	0.0029
608.133	0.0042
608.409	0.0046
608.685	0.0037
608.961	0.0041
609.237	0.0038
609.513	0.0048
609.789	0.0031
610.065	0.0022
610.341	0.0019
610.616	0.0032
610.892	0.0035
611.167	0.0034
611.443	0.0026
611.718	0.0029
611.994	0.0032
612.269	0.0031
612.544	0.0029
612.819	0.0022
613.095	0.002
613.37	0.0013
613.645	0.0013
613.919	0.0029
614.194	0.0026
614.469	0.0026
614.744	0.0022
615.019	0.0017
615.293	0.0014
615.568	0.0023
615.842	0.0023
616.116	0.0022
616.391	0.0016
616.665	0.0015
616.939	0.0011
617.213	0.0016
617.488	0.0028
617.762	0.0028
618.035	0.0031
618.309	0.0022
618.583	0.0036
618.857	0.0033
619.131	0.0027
619.404	0.0032
619.678	0.0041
619.951	0.0027
620.225	0.0018
620.498	0.0012
620.771	0.0015
621.045	0.0024
621.318	0.0022
621.591	0.0018
621.864	0.0012
622.137	0.0014
622.41	0.0021
622.683	0.003
622.956	0.0021
623.228	0.0028
623.501	0.004
623.774	0.0042
624.046	0.0037
624.319	0.0038
624.591	0.0028
624.863	0.003
625.136	0.0043
625.408	0.0048
625.68	0.0031
625.952	0.0038
626.224	0.0048
626.496	0.003
626.768	0.0047
627.04	0.0037
627.311	0.0037
627.583	0.0045
627.855	0.0046
628.126	0.0036
628.398	0.0038
628.669	0.0035
628.941	0.0023
629.212	0.0018
629.483	0.0031
629.755	0.0021
630.026	0.0033
630.297	0.0026
630.568	0.0039
630.839	0.0048
631.11	0.0051
631.38	0.0051
631.651	0.0048
631.922	0.004
632.192	0.0042
632.463	0.0057
632.733	0.0034
633.004	0.004
633.274	0.0039
633.545	0.0044
633.815	0.0062
634.085	0.0068
634.355	0.0054
634.625	0.0049
634.895	0.0049
635.165	0.0041
635.435	0.0041
635.705	0.0035
635.974	0.0038
636.244	0.0023
636.514	0.0024
636.783	0.0028
637.053	0.0032
637.322	0.0017
637.591	0.0021
637.861	0.0022
638.13	0.0026
638.399	0.0043
638.668	0.0034
638.937	0.0043
639.206	0.0051
639.475	0.0054
639.744	0.004
640.013	0.0045
640.281	0.0045
640.55	0.0036
640.819	0.004
641.087	0.0034
641.356	0.0044
641.624	0.0049
641.892	0.0056
642.161	0.0055
642.429	0.0047
642.697	0.0046
642.965	0.0042
643.233	0.0024
643.501	0.0036
643.769	0.0031
644.037	0.0035
644.305	0.0026
644.572	0.003
644.84	0.0033
645.108	0.0039
645.375	0.0033
645.643	0.0035
645.91	0.0035
646.177	0.0034
646.445	0.0022
646.712	0.0033
646.979	0.003
647.246	0.004
647.513	0.0043
647.78	0.0039
648.047	0.0033
648.314	0.001
648.58	0.0008
648.847	0.0004
649.114	-0.0002
649.38	0.0001
649.647	0.0012
649.913	0.0018
650.18	0.0029
650.446	0.0041
650.712	0.0038
650.978	0.0051
651.245	0.0049
651.511	0.0045
651.777	0.0047
652.043	0.0045
652.309	0.0048
652.574	0.0039
652.84	0.0048
653.106	0.0054
653.371	0.0066
653.637	0.0058
653.903	0.0055
654.168	0.0053
654.433	0.0054
654.699	0.0057
654.964	0.0035
655.229	0.0032
655.494	0.0028
655.759	-0.0012
656.024	0.0003
656.289	-0
656.554	0.0026
656.819	0.0045
657.084	0.0057
657.349	0.0067
657.613	0.0054
657.878	0.0046
658.142	0.004
658.407	0.0036
658.671	0.0034
658.936	0.0032
659.2	0.0046
659.464	0.0029
659.728	0.0039
659.992	0.0025
660.256	0.0022
660.52	0.0029
660.784	0.0039
661.048	0.0042
661.312	0.0039
661.575	0.0043
661.839	0.0058
662.103	0.0054
662.366	0.0048
662.63	0.0041
662.893	0.0038
663.156	0.0044
663.42	0.0051
663.683	0.0043
663.946	0.0052
664.209	0.0063
664.472	0.0051
664.735	0.0056
664.998	0.0069
665.261	0.0064
665.524	0.0067
665.786	0.006
666.049	0.0055
666.312	0.0058
666.574	0.0052
666.837	0.0059
667.099	0.0058
667.361	0.0063
667.624	0.0045
667.886	0.0048
668.148	0.0063
668.41	0.0059
668.672	0.0058
668.934	0.0054
669.196	0.0048
669.458	0.0033
669.72	0.0029
669.982	0.0034
670.243	0.0033
670.505	0.003
670.766	0.0033
671.028	0.0039
671.289	0.0042
671.551	0.0044
671.812	0.002
672.073	0.0036
672.334	0.0037
672.596	0.0032
672.857	0.0042
673.118	0.0051
673.379	0.0062
673.639	0.0059
673.9	0.0061
674.161	0.0055
674.422	0.007
674.682	0.0062
674.943	0.0057
675.203	0.0053
675.464	0.0049
675.724	0.0045
675.985	0.0054
676.245	0.0043
676.505	0.0031
676.765	0.0024
677.025	0.0037
677.285	0.0032
677.545	0.0038
677.805	0.0023
678.065	0.0031
678.325	0.0041
678.585	0.0055
678.844	0.0039
679.104	0.0056
679.363	0.0062
679.623	0.0057
679.882	0.006
680.142	0.0061
680.401	0.0059
680.66	0.0065
680.919	0.0056
681.178	0.0066
681.437	0.0053
681.696	0.0037
681.955	0.0062
682.214	0.0065
682.473	0.0068
682.732	0.0054
682.99	0.007
683.249	0.007
683.508	0.0062
683.766	0.0055
684.024	0.0057
684.283	0.0044
684.541	0.003
684.799	0.0025
685.058	0.0008
685.316	0.0007
685.574	-0.0003
685.832	0.0014
686.09	0.0017
686.348	0.0015
686.606	0.0025
686.863	0.0027
687.121	0.0029
687.379	0.0023
687.636	0.0015
687.894	0.0029
688.151	0.0026
688.409	0.0035
688.666	0.0035
688.923	0.0029
689.181	0.0033
689.438	0.0028
689.695	0.0027
689.952	0.002
690.209	0.0026
690.466	0.0019
690.723	0.0029
690.979	0.0031
691.236	0.0016
691.493	0.0004
691.75	0.0013
692.006	0.0012
692.263	0.0001
692.519	0.001
692.775	-0.0006
693.032	-0.0008
693.288	-0.0009
693.544	-0.0011
693.8	0.0011
694.056	0.001
694.313	0.0011
694.568	0.0015
694.824	0.0019
695.08	0.0015
695.336	0.0018
695.592	0.0003
695.847	0.0031
696.103	0.0036
696.359	0.0047
696.614	0.0049
696.869	0.0023
697.125	0.0002
697.38	0.0003
697.635	0.0025
697.891	0.003
698.146	0.0029
698.401	0.0032
698.656	0.0022
698.911	0.0029
699.166	0.0018
699.42	0.0038
699.675	0.0048
699.93	0.0042
700.185	0.0043
700.439	0.0041
700.694	0.0035
700.948	0.0029
701.203	0.0021
701.457	0.0027
701.711	0.0028
701.965	0.0019
702.22	0.0012
702.474	0.0013
702.728	0.0001
702.982	0.0018
703.236	0.0029
703.49	0.0036
703.743	0.0024
703.997	0.0025
704.251	0.002
704.504	0.0021
704.758	0.0007
705.012	0.0011
705.265	0.0027
705.518	0.0029
705.772	0.0035
706.025	0.0029
706.278	0.003
706.531	0.0025
706.785	0.0012
707.038	0.0006
707.291	0.0012
707.543	0.0006
707.796	0.0004
708.049	0.0009
708.302	0.0011
708.555	0.0013
708.807	0.002
709.06	0.0023
709.312	0.0033
709.565	0.0037
709.817	0.0057
710.069	0.0038
710.322	0.0045
710.574	0.0032
710.826	0.0016
711.078	0.0023
711.33	0.0015
711.582	0.0016
711.834	0.0014
712.086	0.0012
712.338	0.0013
712.59	-0.0001
712.841	-0.0013
713.093	-0.0004
713.344	0.0002
713.596	0.0002
713.847	-0.0003
714.099	-0.0002
714.35	0.0018
714.601	0.0006
714.853	0.0001
715.104	0.0007
715.355	0.0002
715.606	0.0021
715.857	0.0025
716.108	0.0032
716.359	0.004
716.609	0.0019
716.86	0.0033
717.111	0.0028
717.361	0.0022
717.612	0.0029
717.863	0.0037
718.113	0.0038
718.363	0.0025
718.614	0.0031
718.864	0.0034
719.114	0.0031
719.364	0.0023
719.614	0.002
719.865	0.0026
720.114	0.0033
720.364	0.004
720.614	0.0034
720.864	0.0033
721.114	0.0022
721.364	0.002
721.613	0.0013
721.863	0.0013
722.112	0.0017
722.362	0.0009
722.611	0.0021
722.86	0.0031
723.11	0.0043
723.359	0.0037
723.608	0.0033
723.857	0.0038
724.106	0.0022
724.355	0.0023
724.604	0.0021
724.853	0.0013
725.102	0.0003
725.351	-0.0004
725.599	-0.0021
725.848	-0.0006
726.097	0.0002
726.345	0.0003
726.594	0.0008
726.842	0.0014
727.09	0.0003
727.339	0.0004
727.587	0.0005
727.835	0.0007
728.083	0.0009
728.331	0.0011
728.579	0.0021
728.827	0.0004
729.075	-0.0001
729.323	-0.0008
729.571	-0.001
729.818	-0.001
730.066	-0.0014
730.314	-0.0012
730.561	-0.0012
730.809	-0.0022
731.056	-0.0021
731.303	-0.0022
731.551	-0.0007
731.798	-0.0015
732.045	0.0001
732.292	-0.0008
732.539	-0.0002
732.786	-0.0012
733.033	-0.0017
733.28	-0.0011
733.527	-0.0006
733.774	-0.002
734.021	-0.0015
734.267	-0.0009
734.514	-0.0009
734.76	-0.0008
735.007	-0.0001
735.253	0.0003
735.5	0.0014
735.746	0.0018
735.992	0.001
736.238	0.0018
736.485	0.0011
736.731	0.0025
736.977	0.0011
737.223	0.0004
737.469	0.0016
737.715	0.0026
737.96	0.0035
738.206	0.0031
738.452	0.0039
738.697	0.0039
738.943	0.0022
739.189	0.0023
739.434	0.0008
739.679	0.0017
739.925	0.0039
740.17	0.0045
740.415	0.003
740.66	0.0033
740.906	0.0027
741.151	0.0026
741.396	0.0022
741.641	0.0017
741.886	0.0016
742.13	0.0002
742.375	0.0014
742.62	-0
742.865	-0.0005
743.109	0.0012
743.354	-0.0002
743.598	-0.0001
743.843	-0.0008
744.087	-0.0014
744.331	-0.0004
744.576	-0
744.82	0.0015
745.064	0.0018
745.308	0.0027
745.552	0.0015
745.796	0.0009
746.04	0.0002
746.284	-0.0007
746.528	0.0014
746.771	0.002
747.015	0.0017
747.259	0.001
747.502	0.0013
747.746	0.0026
747.989	0.0043
748.233	0.004
748.476	0.0024
748.719	0.0024
748.963	0.0015
749.206	0.0012
749.449	0.0007
749.692	-0.0001
749.935	0.0014
750.178	0.0013
750.421	0.0007
750.664	0.0013
750.906	0.0018
751.149	0.0006
751.392	0.0014
751.635	0.0015
751.877	0.0024
752.12	0.0025
752.362	0.0026
752.604	0.0031
752.847	0.0018
753.089	0.0023
753.331	0.0014
753.573	0.0018
753.816	0.0021
754.058	0.0027
754.3	0.0034
754.542	0.0035
754.783	0.0032
755.025	0.0033
755.267	0.0034
755.509	0.0026
755.75	0.0008
755.992	0.0012
756.234	0.0024
756.475	0.0027
756.716	0.0027
756.958	0.0017
757.199	0.0027
757.44	0.0032
757.682	0.002
757.923	0.0027
758.164	0.0038
758.405	0.0041
758.646	0.0045
758.887	0.004
759.128	0.0041
759.369	0.0031
759.609	0.0032
759.85	0.0028
760.091	0.0028
760.331	0.0043
760.572	0.0033
760.812	0.002
761.053	0.0029
761.293	0.0036
761.533	0.0044
761.774	0.0046
762.014	0.0046
762.254	0.004
762.494	0.0037
762.734	0.003
762.974	0.0035
763.214	0.003
763.454	0.0024
763.694	0.003
763.933	0.0036
764.173	0.0042
764.413	0.0042
764.652	0.0017
764.892	0.0016
765.131	0.0012
765.371	0.0011
765.61	0.0008
765.849	-0.0003
766.089	-0.0007
766.328	0.0012
766.567	0.0007
766.806	0.0006
767.045	-0.0005
767.284	0.0012
767.523	0.0012
767.762	0.0001
768.001	-0.0002
768.239	-0.0003
768.478	-0.0006
768.717	-0.0002
768.955	0.0003
769.194	0.0006
769.432	0.0016
769.671	0.0019
769.909	0.0016
770.148	0.0015
770.386	0.0015
770.624	0.0006
770.862	-0.0001
771.1	-0.0003
771.338	-0.0011
771.576	-0.0005
771.814	0.0012
772.052	0
772.29	0.0022
772.528	0.0019
772.765	0.0014
773.003	0.0015
773.24	0.0027
773.478	0.0022
773.716	0.0034
773.953	0.0029
774.19	0.0027
774.428	0.0042
774.665	0.004
774.902	0.004
775.139	0.0043
775.376	0.0041
775.613	0.0054
775.85	0.0064
776.087	0.0066
776.324	0.0062
776.561	0.0058
776.798	0.0051
777.034	0.0047
777.271	0.0042
777.508	0.0037
777.744	0.0052
777.981	0.0045
778.217	0.0047
778.454	0.0038
778.69	0.0039
778.926	0.0038
779.162	0.004
779.399	0.0041
779.635	0.0038
779.871	0.0033
780.107	0.0034
780.343	0.0031
780.579	0.0043
780.814	0.0044
781.05	0.0049
781.286	0.0036
781.522	0.0022
781.757	0.0018
781.993	0.0022
782.228	0.0017
782.464	0.0027
782.699	0.0017
782.934	0.0017
783.17	0.0014
783.405	0.0021
783.64	0.0018
783.875	0.0009
784.11	0.0018
784.345	0.0026
784.58	0.0024
784.815	0.0026
785.05	0.0027
785.285	0.0016
785.52	0.0018
785.754	0.0024
785.989	0.0028
786.223	0.0036
786.458	0.0037
786.692	0.0044
786.927	0.0056
787.161	0.005
787.396	0.0055
787.63	0.0043
787.864	0.0044
788.098	0.0033
788.332	0.0029
788.566	0.0026
788.8	0.0022
789.034	0.0031
789.268	0.0027
789.502	0.0032
789.736	0.0036
789.969	0.003
790.203	0.0031
790.437	0.0033
790.67	0.0047
790.904	0.0055
791.137	0.0063
791.37	0.0069
791.604	0.0068
791.837	0.0072
792.07	0.0076
792.303	0.0082
792.537	0.0087
792.77	0.008
793.003	0.0073
793.236	0.0054
793.469	0.0044
793.701	0.0031
793.934	0.0027
794.167	0.0015
794.4	0.0004
794.632	0.0009
794.865	0.001
795.097	0.0019
795.33	0.0022
795.562	0.0024
795.795	0.0022
796.027	0.0017
796.259	0.003
796.491	0.0021
796.724	0.0034
796.956	0.0023
797.188	0.0026
797.42	0.0023
797.652	0.0024
797.883	0.003
798.115	0.0032
798.347	0.003
798.579	0.0031
798.81	0.0036
799.042	0.0029
799.274	0.0041
799.505	0.0029
799.737	0.0029
799.968	0.0017
800.199	0.0012
800.431	0.0013
800.662	0.0011
800.893	0.0017
801.124	0.0017
801.355	0.003
801.586	0.0043
801.817	0.0063
802.048	0.006
802.279	0.0062
802.51	0.0067
802.741	0.0075
802.971	0.007
803.202	0.0055
803.433	0.0047
803.663	0.0038
803.894	0.0036
804.124	0.0033
804.354	0.0042
804.585	0.0048
804.815	0.0052
805.045	0.0055
805.275	0.0048
805.506	0.0669
805.736	-0.1187
805.966	-0.3811
806.196	-0.1629
