Data from 03 0.5 mM K2Cr2O7 0.2 mM BQDS 1 M H2SO4 5 min_Absorbance_0040.txt Node
Date: Thu Dec 09 19:06:44 EST 2021
User: kwabilab-user
Spectrometer: HDX00518
Trigger mode: 0
Integration Time (sec): 5.000000E-2
Scans to average: 50
Nonlinearity correction enabled: false
Boxcar width: 0
Storing dark spectrum: false
XAxis mode: Wavelengths
Number of Pixels in Spectrum: 2068
>>>>>Begin Spectral Data<<<<<
195.27	0.1075
195.642	0.1228
196.014	0.0828
196.386	0.0931
196.758	-0.0069
197.129	0.0076
197.501	0.0504
197.872	0.0985
198.244	0.1113
198.615	0.1264
198.986	0.1172
199.357	0.1103
199.728	0.1002
200.099	0.1157
200.47	0.1085
200.841	0.1191
201.212	0.1258
201.582	0.1172
201.953	0.1119
202.323	0.1093
202.694	0.1157
203.064	0.1103
203.434	0.1226
203.804	0.1006
204.174	0.1199
204.544	0.1169
204.914	0.1126
205.284	0.1168
205.653	0.1193
206.023	0.1333
206.393	0.1285
206.762	0.119
207.131	0.1396
207.501	0.1227
207.87	0.1126
208.239	0.1157
208.608	0.142
208.977	0.1081
209.346	0.1365
209.715	0.1426
210.083	0.1242
210.452	0.1372
210.82	0.1119
211.189	0.1274
211.557	0.1372
211.925	0.1383
212.294	0.1454
212.662	0.1603
213.03	0.1739
213.398	0.1571
213.766	0.1811
214.133	0.1428
214.501	0.1636
214.869	0.1822
215.236	0.1729
215.604	0.1938
215.971	0.1979
216.338	0.2124
216.705	0.2301
217.072	0.2463
217.439	0.2567
217.806	0.3069
218.173	0.3082
218.54	0.3273
218.907	0.3564
219.273	0.3752
219.64	0.4181
220.006	0.4492
220.373	0.4645
220.739	0.5202
221.105	0.5516
221.471	0.5765
221.837	0.6496
222.203	0.6778
222.569	0.7087
222.935	0.7405
223.3	0.7651
223.666	0.8176
224.031	0.841
224.397	0.8749
224.762	0.8973
225.127	0.9409
225.493	0.9753
225.858	0.9678
226.223	0.9976
226.588	1.0144
226.952	1.0301
227.317	1.0612
227.682	1.0628
228.046	1.0622
228.411	1.0823
228.775	1.0739
229.14	1.0896
229.504	1.0846
229.868	1.088
230.232	1.0921
230.596	1.0833
230.96	1.0977
231.324	1.0839
231.688	1.0815
232.052	1.082
232.415	1.0744
232.779	1.0669
233.142	1.0639
233.505	1.0585
233.869	1.0596
234.232	1.0439
234.595	1.0362
234.958	1.0318
235.321	1.0196
235.684	1.0175
236.047	1.0067
236.409	0.9956
236.772	0.9906
237.134	0.9801
237.497	0.9692
237.859	0.9753
238.222	0.9642
238.584	0.9538
238.946	0.9441
239.308	0.9406
239.67	0.9371
240.032	0.9234
240.393	0.9169
240.755	0.9103
241.117	0.9108
241.478	0.8966
241.84	0.8981
242.201	0.8925
242.562	0.881
242.924	0.8768
243.285	0.8713
243.646	0.8729
244.007	0.8655
244.368	0.8631
244.728	0.8566
245.089	0.854
245.45	0.8448
245.81	0.8476
246.171	0.8448
246.531	0.8369
246.891	0.8361
247.252	0.8352
247.612	0.8346
247.972	0.8302
248.332	0.8301
248.692	0.8237
249.051	0.8248
249.411	0.823
249.771	0.8165
250.13	0.8146
250.49	0.814
250.849	0.8162
251.208	0.8132
251.568	0.8113
251.927	0.8102
252.286	0.8096
252.645	0.8121
253.004	0.8107
253.363	0.8044
253.721	0.8083
254.08	0.8063
254.439	0.8045
254.797	0.8034
255.155	0.8064
255.514	0.8049
255.872	0.8013
256.23	0.8058
256.588	0.8018
256.946	0.8008
257.304	0.8005
257.662	0.799
258.02	0.8016
258.377	0.7998
258.735	0.801
259.093	0.798
259.45	0.7973
259.807	0.797
260.165	0.7963
260.522	0.7961
260.879	0.7914
261.236	0.7936
261.593	0.7914
261.95	0.7898
262.306	0.7903
262.663	0.7877
263.02	0.7872
263.376	0.7841
263.733	0.783
264.089	0.7825
264.445	0.7788
264.802	0.7803
265.158	0.7774
265.514	0.7773
265.87	0.7714
266.226	0.7722
266.581	0.7686
266.937	0.769
267.293	0.7643
267.648	0.7629
268.004	0.7598
268.359	0.7583
268.714	0.7558
269.07	0.7525
269.425	0.7471
269.78	0.747
270.135	0.7445
270.49	0.7418
270.844	0.7377
271.199	0.7363
271.554	0.7317
271.908	0.7322
272.263	0.7268
272.617	0.7213
272.972	0.7204
273.326	0.7155
273.68	0.7112
274.034	0.7099
274.388	0.7059
274.742	0.7011
275.096	0.6997
275.45	0.6948
275.803	0.6871
276.157	0.6847
276.51	0.6814
276.864	0.6766
277.217	0.6713
277.571	0.6683
277.924	0.6604
278.277	0.6584
278.63	0.6521
278.983	0.6471
279.336	0.6444
279.688	0.6402
280.041	0.6314
280.394	0.6299
280.746	0.6233
281.099	0.6174
281.451	0.6131
281.803	0.6055
282.156	0.5994
282.508	0.5952
282.86	0.5896
283.212	0.5855
283.564	0.5799
283.916	0.5733
284.267	0.5684
284.619	0.5628
284.971	0.5583
285.322	0.5508
285.673	0.5451
286.025	0.5413
286.376	0.5352
286.727	0.5275
287.078	0.5215
287.429	0.5148
287.78	0.5097
288.131	0.5035
288.482	0.4973
288.833	0.492
289.183	0.4866
289.534	0.4804
289.884	0.4752
290.235	0.4666
290.585	0.4616
290.935	0.4554
291.285	0.4489
291.635	0.4432
291.985	0.4369
292.335	0.4318
292.685	0.4252
293.035	0.4201
293.384	0.4129
293.734	0.407
294.083	0.401
294.433	0.3955
294.782	0.39
295.131	0.3838
295.48	0.3777
295.829	0.3719
296.179	0.3665
296.527	0.3612
296.876	0.3557
297.225	0.3496
297.574	0.3442
297.922	0.3384
298.271	0.3327
298.619	0.3284
298.968	0.3226
299.316	0.3176
299.664	0.3131
300.012	0.3086
300.36	0.3036
300.708	0.2991
301.056	0.2939
301.404	0.2889
301.752	0.2855
302.099	0.2819
302.447	0.2777
302.794	0.2738
303.142	0.2688
303.489	0.2654
303.836	0.2621
304.183	0.2585
304.531	0.255
304.878	0.2513
305.224	0.2485
305.571	0.245
305.918	0.242
306.265	0.239
306.611	0.2372
306.958	0.2345
307.304	0.2312
307.651	0.2287
307.997	0.2275
308.343	0.2256
308.689	0.223
309.035	0.2211
309.381	0.2202
309.727	0.2181
310.073	0.2168
310.419	0.2156
310.764	0.2137
311.11	0.2122
311.455	0.2111
311.801	0.2111
312.146	0.21
312.491	0.2092
312.837	0.2083
313.182	0.2083
313.527	0.2073
313.872	0.2078
314.216	0.207
314.561	0.2077
314.906	0.2068
315.251	0.2064
315.595	0.207
315.94	0.2075
316.284	0.2076
316.628	0.2078
316.972	0.2086
317.317	0.2092
317.661	0.2102
318.005	0.2103
318.348	0.2113
318.692	0.2121
319.036	0.2128
319.38	0.2138
319.723	0.2152
320.067	0.2162
320.41	0.2181
320.754	0.2183
321.097	0.221
321.44	0.2212
321.783	0.2237
322.126	0.2245
322.469	0.2261
322.812	0.228
323.155	0.2294
323.498	0.2307
323.84	0.2333
324.183	0.2351
324.525	0.2371
324.868	0.2386
325.21	0.2408
325.552	0.243
325.894	0.2445
326.236	0.2465
326.578	0.2491
326.92	0.2507
327.262	0.2523
327.604	0.2544
327.946	0.2573
328.287	0.259
328.629	0.2613
328.97	0.2645
329.312	0.2663
329.653	0.2687
329.994	0.2702
330.335	0.2731
330.676	0.2751
331.017	0.2782
331.358	0.2804
331.699	0.2828
332.04	0.2859
332.38	0.2879
332.721	0.29
333.061	0.2926
333.402	0.2941
333.742	0.297
334.083	0.2994
334.423	0.301
334.763	0.3025
335.103	0.3048
335.443	0.3073
335.783	0.3091
336.123	0.3111
336.462	0.3131
336.802	0.3147
337.141	0.3173
337.481	0.3185
337.82	0.3203
338.16	0.3218
338.499	0.3236
338.838	0.3265
339.177	0.3282
339.516	0.3297
339.855	0.3317
340.194	0.3342
340.533	0.3349
340.872	0.337
341.21	0.3386
341.549	0.3393
341.887	0.3407
342.226	0.3426
342.564	0.3437
342.902	0.3429
343.24	0.3456
343.578	0.3463
343.916	0.3468
344.254	0.3465
344.592	0.3467
344.93	0.3482
345.268	0.3488
345.605	0.3492
345.943	0.3498
346.28	0.3498
346.618	0.3505
346.955	0.35
347.292	0.3513
347.629	0.3515
347.966	0.3521
348.303	0.3526
348.64	0.3517
348.977	0.3522
349.314	0.3524
349.65	0.3529
349.987	0.3528
350.324	0.3524
350.66	0.3519
350.996	0.3521
351.333	0.3509
351.669	0.3508
352.005	0.3492
352.341	0.3478
352.677	0.3469
353.013	0.3458
353.349	0.3452
353.685	0.3435
354.02	0.3427
354.356	0.3415
354.691	0.34
355.027	0.339
355.362	0.3368
355.697	0.336
356.033	0.3339
356.368	0.3325
356.703	0.331
357.038	0.3305
357.373	0.3289
357.707	0.3285
358.042	0.3268
358.377	0.3251
358.711	0.3231
359.046	0.3224
359.38	0.3205
359.715	0.3198
360.049	0.318
360.383	0.316
360.717	0.314
361.051	0.3113
361.385	0.3096
361.719	0.3079
362.053	0.3041
362.387	0.3017
362.72	0.3005
363.054	0.2973
363.387	0.2953
363.721	0.2925
364.054	0.2897
364.387	0.2873
364.721	0.2854
365.054	0.2826
365.387	0.2789
365.72	0.276
366.053	0.2755
366.385	0.2731
366.718	0.2711
367.051	0.2692
367.383	0.2663
367.716	0.2641
368.048	0.2629
368.381	0.2599
368.713	0.258
369.045	0.2553
369.377	0.2548
369.709	0.2522
370.041	0.2504
370.373	0.2478
370.705	0.2458
371.037	0.2437
371.368	0.2416
371.7	0.2388
372.031	0.2366
372.363	0.2336
372.694	0.2314
373.025	0.2283
373.356	0.225
373.688	0.2219
374.019	0.2193
374.35	0.2162
374.68	0.2141
375.011	0.2112
375.342	0.208
375.673	0.2054
376.003	0.2026
376.334	0.1999
376.664	0.1969
376.995	0.1953
377.325	0.1928
377.655	0.1906
377.985	0.1872
378.315	0.1855
378.645	0.1845
378.975	0.1823
379.305	0.1799
379.635	0.1781
379.964	0.1773
380.294	0.1743
380.623	0.1728
380.953	0.1703
381.282	0.169
381.611	0.1664
381.941	0.1651
382.27	0.1629
382.599	0.1609
382.928	0.159
383.257	0.1563
383.585	0.1547
383.914	0.1524
384.243	0.1501
384.571	0.1474
384.9	0.1452
385.228	0.143
385.557	0.1403
385.885	0.1378
386.213	0.1358
386.541	0.1332
386.869	0.1305
387.197	0.1289
387.525	0.1257
387.853	0.1241
388.181	0.1224
388.508	0.1206
388.836	0.1172
389.164	0.1159
389.491	0.1151
389.818	0.1133
390.146	0.1113
390.473	0.1096
390.8	0.1076
391.127	0.1061
391.454	0.1048
391.781	0.1035
392.108	0.1015
392.435	0.1008
392.761	0.0989
393.088	0.0972
393.415	0.0959
393.741	0.0951
394.067	0.0935
394.394	0.093
394.72	0.091
395.046	0.0907
395.372	0.0888
395.698	0.0875
396.024	0.0866
396.35	0.085
396.676	0.0838
397.001	0.0832
397.327	0.0808
397.653	0.0804
397.978	0.0786
398.303	0.0785
398.629	0.0762
398.954	0.0757
399.279	0.0745
399.604	0.073
399.929	0.0713
400.254	0.0717
400.579	0.0706
400.904	0.0693
401.229	0.0683
401.553	0.0678
401.878	0.0671
402.202	0.0658
402.527	0.0644
402.851	0.0641
403.175	0.0638
403.5	0.063
403.824	0.0626
404.148	0.0621
404.472	0.0617
404.796	0.0607
405.119	0.0608
405.443	0.0601
405.767	0.0596
406.09	0.0599
406.414	0.0588
406.737	0.0587
407.061	0.059
407.384	0.0582
407.707	0.0584
408.03	0.0576
408.353	0.0574
408.676	0.0577
408.999	0.0574
409.322	0.0567
409.645	0.0562
409.968	0.0565
410.29	0.0561
410.613	0.0562
410.935	0.0564
411.258	0.0561
411.58	0.0555
411.902	0.055
412.224	0.0551
412.546	0.0551
412.868	0.0557
413.19	0.0551
413.512	0.0547
413.834	0.0553
414.156	0.0548
414.477	0.0554
414.799	0.055
415.121	0.0558
415.442	0.0554
415.763	0.0554
416.085	0.0556
416.406	0.0552
416.727	0.0549
417.048	0.0553
417.369	0.0556
417.69	0.0557
418.011	0.0554
418.331	0.0558
418.652	0.0561
418.973	0.0562
419.293	0.0556
419.614	0.0566
419.934	0.0568
420.254	0.0564
420.574	0.0564
420.895	0.0559
421.215	0.056
421.535	0.0558
421.855	0.0563
422.174	0.0566
422.494	0.0562
422.814	0.0568
423.134	0.0565
423.453	0.0572
423.773	0.0569
424.092	0.0576
424.411	0.0569
424.731	0.0574
425.05	0.058
425.369	0.0574
425.688	0.0583
426.007	0.0582
426.326	0.0581
426.644	0.0577
426.963	0.0583
427.282	0.0584
427.6	0.0581
427.919	0.0578
428.237	0.0588
428.556	0.059
428.874	0.0586
429.192	0.0596
429.51	0.0586
429.828	0.059
430.146	0.0586
430.464	0.0592
430.782	0.0593
431.1	0.0591
431.418	0.0596
431.735	0.0594
432.053	0.0595
432.37	0.0592
432.688	0.059
433.005	0.0601
433.322	0.0602
433.639	0.06
433.957	0.0602
434.274	0.0603
434.591	0.0606
434.907	0.0605
435.224	0.0609
435.541	0.0606
435.858	0.0618
436.174	0.0614
436.491	0.061
436.807	0.06
437.124	0.0613
437.44	0.0603
437.756	0.0603
438.072	0.0605
438.388	0.0612
438.704	0.0611
439.02	0.0602
439.336	0.0607
439.652	0.0609
439.968	0.0601
440.283	0.0613
440.599	0.0607
440.914	0.0612
441.23	0.0603
441.545	0.0604
441.86	0.0603
442.175	0.0601
442.491	0.0603
442.806	0.0602
443.121	0.0607
443.435	0.0604
443.75	0.0609
444.065	0.0607
444.38	0.0601
444.694	0.0608
445.009	0.0604
445.323	0.0603
445.638	0.0599
445.952	0.0601
446.266	0.06
446.58	0.0591
446.894	0.06
447.208	0.0594
447.522	0.0593
447.836	0.0593
448.15	0.0585
448.464	0.0586
448.777	0.0586
449.091	0.0582
449.404	0.0585
449.718	0.0584
450.031	0.0587
450.345	0.0579
450.658	0.0585
450.971	0.0586
451.284	0.0581
451.597	0.0585
451.91	0.0583
452.223	0.058
452.535	0.0579
452.848	0.0585
453.161	0.0576
453.473	0.0576
453.786	0.0581
454.098	0.0572
454.411	0.058
454.723	0.0572
455.035	0.0562
455.347	0.0569
455.659	0.0557
455.971	0.0556
456.283	0.0553
456.595	0.055
456.907	0.0558
457.218	0.0559
457.53	0.0554
457.841	0.0545
458.153	0.0545
458.464	0.0538
458.776	0.0549
459.087	0.0538
459.398	0.0533
459.709	0.0531
460.02	0.0536
460.331	0.0531
460.642	0.0527
460.953	0.0528
461.263	0.0531
461.574	0.0522
461.885	0.0525
462.195	0.0521
462.506	0.0528
462.816	0.0518
463.126	0.0512
463.437	0.0513
463.747	0.0516
464.057	0.0514
464.367	0.0507
464.677	0.0504
464.987	0.0504
465.296	0.0501
465.606	0.0493
465.916	0.0494
466.225	0.0492
466.535	0.0484
466.844	0.0491
467.154	0.0486
467.463	0.0479
467.772	0.047
468.081	0.0477
468.39	0.047
468.699	0.0465
469.008	0.0471
469.317	0.0469
469.626	0.0466
469.935	0.0462
470.243	0.0458
470.552	0.0452
470.86	0.0446
471.169	0.0439
471.477	0.0447
471.785	0.0449
472.093	0.0439
472.402	0.0443
472.71	0.0436
473.018	0.0434
473.326	0.0426
473.633	0.0427
473.941	0.0415
474.249	0.042
474.556	0.0417
474.864	0.0409
475.171	0.0411
475.479	0.0404
475.786	0.0404
476.094	0.0407
476.401	0.0407
476.708	0.0398
477.015	0.0402
477.322	0.0389
477.629	0.0393
477.936	0.0392
478.242	0.0389
478.549	0.038
478.856	0.0371
479.162	0.0377
479.469	0.0377
479.775	0.0372
480.081	0.0372
480.388	0.0363
480.694	0.0368
481	0.0358
481.306	0.036
481.612	0.0358
481.918	0.0354
482.224	0.0354
482.53	0.0348
482.835	0.0345
483.141	0.0338
483.446	0.0343
483.752	0.0338
484.057	0.0328
484.363	0.0334
484.668	0.0327
484.973	0.0316
485.278	0.0323
485.583	0.032
485.888	0.0306
486.193	0.0302
486.498	0.0306
486.803	0.0309
487.107	0.0303
487.412	0.0294
487.717	0.0291
488.021	0.0287
488.325	0.0288
488.63	0.0289
488.934	0.0292
489.238	0.0278
489.542	0.0274
489.846	0.0273
490.15	0.0263
490.454	0.0264
490.758	0.0269
491.062	0.0264
491.366	0.0266
491.669	0.0252
491.973	0.0263
492.276	0.026
492.58	0.0256
492.883	0.025
493.186	0.0247
493.489	0.0252
493.792	0.0248
494.096	0.0238
494.399	0.0238
494.701	0.0239
495.004	0.0232
495.307	0.0236
495.61	0.0239
495.912	0.0225
496.215	0.0226
496.517	0.0225
496.82	0.0222
497.122	0.0218
497.424	0.0215
497.727	0.021
498.029	0.0214
498.331	0.0205
498.633	0.0204
498.935	0.0203
499.237	0.0197
499.538	0.0202
499.84	0.0202
500.142	0.0192
500.443	0.0196
500.745	0.0199
501.046	0.0194
501.348	0.0194
501.649	0.0194
501.95	0.0185
502.251	0.0178
502.552	0.0181
502.853	0.0184
503.154	0.0179
503.455	0.0182
503.756	0.017
504.057	0.017
504.357	0.0179
504.658	0.0172
504.958	0.0161
505.259	0.0164
505.559	0.0166
505.859	0.016
506.16	0.0163
506.46	0.015
506.76	0.0152
507.06	0.0153
507.36	0.0154
507.66	0.0152
507.96	0.0136
508.259	0.0132
508.559	0.0142
508.859	0.0138
509.158	0.0142
509.457	0.0136
509.757	0.0128
510.056	0.012
510.355	0.0135
510.655	0.0128
510.954	0.0123
511.253	0.0127
511.552	0.012
511.851	0.0122
512.149	0.0115
512.448	0.0116
512.747	0.0115
513.045	0.011
513.344	0.0112
513.642	0.0122
513.941	0.0097
514.239	0.0113
514.537	0.0114
514.836	0.0113
515.134	0.0106
515.432	0.0115
515.73	0.0111
516.028	0.0099
516.326	0.0099
516.623	0.0097
516.921	0.0105
517.219	0.0115
517.516	0.0109
517.814	0.0107
518.111	0.0082
518.409	0.0083
518.706	0.0098
519.003	0.0081
519.3	0.0098
519.597	0.0098
519.894	0.0085
520.191	0.0095
520.488	0.0089
520.785	0.008
521.082	0.0087
521.378	0.0081
521.675	0.0077
521.971	0.0079
522.268	0.0084
522.564	0.0074
522.861	0.0078
523.157	0.0076
523.453	0.0087
523.749	0.0069
524.045	0.0063
524.341	0.0081
524.637	0.0075
524.933	0.0073
525.229	0.0065
525.524	0.0078
525.82	0.0068
526.115	0.0057
526.411	0.0068
526.706	0.0052
527.002	0.0053
527.297	0.0054
527.592	0.0062
527.887	0.005
528.182	0.005
528.477	0.0054
528.772	0.0052
529.067	0.0049
529.362	0.0046
529.657	0.0052
529.951	0.006
530.246	0.0055
530.54	0.0055
530.835	0.005
531.129	0.0066
531.423	0.0045
531.718	0.0051
532.012	0.0051
532.306	0.0046
532.6	0.0052
532.894	0.0051
533.188	0.0044
533.482	0.0057
533.775	0.0047
534.069	0.0045
534.363	0.0036
534.656	0.0044
534.95	0.0041
535.243	0.004
535.536	0.0056
535.83	0.0042
536.123	0.0043
536.416	0.0047
536.709	0.0035
537.002	0.0027
537.295	0.0032
537.588	0.0033
537.881	0.004
538.173	0.0043
538.466	0.0034
538.759	0.003
539.051	0.0035
539.344	0.0032
539.636	0.0031
539.928	0.003
540.22	0.0027
540.513	0.0038
540.805	0.003
541.097	0.0029
541.389	0.003
541.681	0.0047
541.972	0.0033
542.264	0.0031
542.556	0.0042
542.847	0.0019
543.139	0.0025
543.431	0.0034
543.722	0.0031
544.013	0.0026
544.305	0.0032
544.596	0.0021
544.887	0.0022
545.178	0.0022
545.469	0.0023
545.76	0.0031
546.051	0.0037
546.342	0.0024
546.632	0.0039
546.923	0.0038
547.214	0.0015
547.504	0.0029
547.795	0.002
548.085	0.0027
548.375	0.0022
548.666	0.0018
548.956	0.0033
549.246	0.002
549.536	0.0027
549.826	0.0024
550.116	0.0026
550.406	0.0027
550.695	0.0038
550.985	0.0024
551.275	0.0016
551.564	0.0015
551.854	0.0032
552.143	0.0028
552.433	0.0016
552.722	0.0017
553.011	0.002
553.3	0.0023
553.589	0.0021
553.879	0.0005
554.167	0.0019
554.456	0.0007
554.745	0.0035
555.034	0.0017
555.323	0.0009
555.611	0.002
555.9	0.0025
556.188	0.0006
556.477	0.0022
556.765	0.0017
557.053	0.0029
557.342	0.0026
557.63	0.0013
557.918	0.0027
558.206	0.0033
558.494	0.0032
558.782	0.0022
559.069	0.0032
559.357	0.0041
559.645	0.0038
559.932	0.0029
560.22	0.0035
560.507	0.0016
560.795	0.0023
561.082	0.0013
561.37	0.0024
561.657	0.0024
561.944	0.0021
562.231	0.0017
562.518	0.0022
562.805	0.0015
563.092	0.0014
563.379	0.0014
563.665	0.0011
563.952	0.0016
564.239	0.0034
564.525	0.0029
564.811	0.0033
565.098	0.0023
565.384	0.0023
565.67	0.003
565.957	0.0032
566.243	0.0023
566.529	0.003
566.815	0.0013
567.101	0.0017
567.387	0.0021
567.672	0.0019
567.958	0.0023
568.244	0.0019
568.529	0.002
568.815	0.0017
569.1	0.002
569.386	0.0035
569.671	0.0042
569.956	0.0027
570.242	0.0035
570.527	0.0027
570.812	0.0024
571.097	0.0035
571.382	0.0038
571.666	0.0038
571.951	0.003
572.236	0.0034
572.521	0.0033
572.805	0.003
573.09	0.0025
573.374	0.0021
573.659	0.003
573.943	0.0035
574.227	0.0025
574.511	0.0029
574.795	0.0026
575.079	0.0023
575.363	0.0015
575.647	0.0026
575.931	0.0027
576.215	0.0017
576.499	0.0016
576.782	0.002
577.066	0.0012
577.349	0.0026
577.633	0.0021
577.916	0.0021
578.2	0.0025
578.483	0.0033
578.766	0.0028
579.049	0.0035
579.332	0.0028
579.615	0.0025
579.898	0.0028
580.181	0.0023
580.464	0.0023
580.746	0.0023
581.029	0.0029
581.312	0.0017
581.594	0.0012
581.877	0.0032
582.159	0.0022
582.441	0.002
582.724	0.0022
583.006	0.003
583.288	0.0014
583.57	0.0032
583.852	0.0013
584.134	0.0023
584.416	0.0016
584.697	0.0016
584.979	0.0018
585.261	0.0016
585.542	0.003
585.824	0.0016
586.105	0.0021
586.387	0.0019
586.668	0.0027
586.949	0.0022
587.231	0.0028
587.512	0.0023
587.793	0.0019
588.074	0.0029
588.355	0.002
588.636	0.0019
588.916	0.0023
589.197	0.0029
589.478	0.0025
589.758	0.0025
590.039	0.0015
590.319	0.0023
590.6	0.0021
590.88	0.0021
591.16	0.0019
591.441	0.0006
591.721	0.0019
592.001	0.0018
592.281	0.002
592.561	0.0015
592.841	0.0013
593.12	0.0024
593.4	0.0018
593.68	0.0014
593.959	0.0021
594.239	0.0025
594.518	0.0034
594.798	0.0022
595.077	0.0028
595.356	0.0024
595.636	0.0019
595.915	0.0033
596.194	0.0018
596.473	0.0019
596.752	0.0026
597.031	0.0015
597.31	0.0015
597.588	0.0021
597.867	0.0019
598.146	0.0023
598.424	0.002
598.703	0.0018
598.981	0.0012
599.259	0.0014
599.538	0.0023
599.816	0.002
600.094	0.0016
600.372	0.002
600.65	0.0016
600.928	0.0016
601.206	-0.0003
601.484	0.0007
601.762	0.0007
602.04	0.0001
602.317	0.0009
602.595	0.0023
602.872	0.0011
603.15	0.0019
603.427	0.0021
603.704	0.0027
603.982	0.0026
604.259	0.0013
604.536	0.0024
604.813	0.0017
605.09	0.0011
605.367	0.0014
605.644	0.0013
605.921	0.0009
606.197	-0.0001
606.474	0.0012
606.751	0.0011
607.027	0.0009
607.304	0.0013
607.58	0.001
607.856	0.0011
608.133	0.0018
608.409	0.0011
608.685	0.0014
608.961	0.0008
609.237	0.0012
609.513	0.0013
609.789	0.0011
610.065	0.0009
610.341	0.0012
610.616	0.002
610.892	0.002
611.167	0.0015
611.443	0.0025
611.718	0.0024
611.994	0.002
612.269	0.0026
612.544	0.0022
612.819	0.0015
613.095	0.0021
613.37	0.0024
613.645	0.0028
613.919	0.0024
614.194	0.003
614.469	0.0029
614.744	0.0019
615.019	0.0021
615.293	0.0015
615.568	0.0009
615.842	0.0011
616.116	0.0014
616.391	0.0007
616.665	0.0007
616.939	0.0007
617.213	0.0022
617.488	0.0015
617.762	0.0008
618.035	0.0016
618.309	-0.0001
618.583	0.0006
618.857	0.0009
619.131	0.001
619.404	0.0005
619.678	0.0006
619.951	0.0003
620.225	0.0006
620.498	0.0012
620.771	0.0008
621.045	0.0013
621.318	0.0018
621.591	0.0015
621.864	0.0016
622.137	0.0021
622.41	0.0023
622.683	0.0024
622.956	0.0014
623.228	0.0008
623.501	0.0016
623.774	0.0009
624.046	0.0008
624.319	0.0007
624.591	-0.0005
624.863	0.0002
625.136	-0.0004
625.408	0.0005
625.68	0.0008
625.952	0.0009
626.224	0.0007
626.496	0.0003
626.768	0.0003
627.04	0.0002
627.311	-0.001
627.583	-0.001
627.855	0.0009
628.126	0.0004
628.398	0.0003
628.669	-0.0012
628.941	0.0003
629.212	-0.0001
629.483	0.0006
629.755	0.0003
630.026	0.0008
630.297	0.0008
630.568	-0.0001
630.839	0.0006
631.11	0
631.38	0.0003
631.651	0.0002
631.922	-0.0006
632.192	0
632.463	0.0004
632.733	0.0007
633.004	0.0006
633.274	-0
633.545	0.0015
633.815	0.0012
634.085	0.0007
634.355	0.001
634.625	0.0009
634.895	0.0031
635.165	0.0022
635.435	0.0016
635.705	0.0008
635.974	0.0003
636.244	-0.0003
636.514	0.001
636.783	0.0009
637.053	0.0017
637.322	0.0014
637.591	0.0005
637.861	0.0006
638.13	0.001
638.399	0.0011
638.668	0.0011
638.937	0.0006
639.206	0.0015
639.475	0.0016
639.744	0.0006
640.013	0.0015
640.281	0.002
640.55	0.0016
640.819	0.0018
641.087	0.0024
641.356	0.0017
641.624	0.0027
641.892	0.0006
642.161	0.0005
642.429	0.0014
642.697	0.0012
642.965	0.0013
643.233	0.0003
643.501	0.0006
643.769	0.0003
644.037	0.0008
644.305	-0.0003
644.572	0
644.84	-0.001
645.108	-0.0001
645.375	-0.0016
645.643	-0.0028
645.91	-0.0019
646.177	-0.0016
646.445	-0.0028
646.712	-0.0032
646.979	-0.0016
647.246	-0.0007
647.513	0.0003
647.78	0.002
648.047	0.0021
648.314	0.0008
648.58	0.0004
648.847	0.001
649.114	-0.0003
649.38	-0.0001
649.647	-0.0001
649.913	0.0002
650.18	-0.0014
650.446	-0.0018
650.712	-0.0014
650.978	-0.0017
651.245	-0.0015
651.511	-0.0005
651.777	0.0001
652.043	0.0005
652.309	-0.0011
652.574	-0.001
652.84	-0.001
653.106	-0.0016
653.371	-0.0017
653.637	-0.0023
653.903	-0.0003
654.168	-0
654.433	0.0004
654.699	0.0016
654.964	0.0015
655.229	0.0012
655.494	0.001
655.759	-0.0012
656.024	0.0013
656.289	-0
656.554	0.0036
656.819	0.0017
657.084	0.001
657.349	-0.0014
657.613	0.0001
657.878	0.0004
658.142	-0.0008
658.407	0.0006
658.671	0.0006
658.936	0.0014
659.2	0.0014
659.464	0.0021
659.728	0.001
659.992	0.0002
660.256	-0.0001
660.52	-0.0003
660.784	0.0003
661.048	0.0003
661.312	-0.0003
661.575	-0.0003
661.839	-0.0008
662.103	-0.0009
662.366	-0.0006
662.63	-0.0005
662.893	0.0009
663.156	0.0001
663.42	0.001
663.683	0.0004
663.946	0.0007
664.209	0.001
664.472	0.001
664.735	0.0009
664.998	0.0018
665.261	0.0008
665.524	0.0005
665.786	0.0005
666.049	0.0018
666.312	0.0016
666.574	0.0022
666.837	0.0008
667.099	0.0016
667.361	-0.0002
667.624	-0.0001
667.886	0.0006
668.148	0.0005
668.41	0.0011
668.672	0.0004
668.934	0.001
669.196	0.0007
669.458	0.0015
669.72	0.0018
669.982	0.0016
670.243	0.0007
670.505	0.0014
670.766	0.0002
671.028	0.0012
671.289	0.0002
671.551	-0.0001
671.812	0.0005
672.073	0.001
672.334	0.0004
672.596	0.0015
672.857	0.0016
673.118	0.0023
673.379	0.0018
673.639	0.0012
673.9	-0
674.161	0.0004
674.422	-0.0001
674.682	0.0002
674.943	0.0009
675.203	0.001
675.464	0.0017
675.724	0.0015
675.985	0.0014
676.245	0.0017
676.505	0.001
676.765	0.0009
677.025	0.0003
677.285	0.0006
677.545	0.0003
677.805	0.0003
678.065	0.0001
678.325	0.002
678.585	0.0012
678.844	0.0017
679.104	0.0023
679.363	0.0004
679.623	0.0008
679.882	0.0011
680.142	0.001
680.401	0.0013
680.66	0.0011
680.919	0.0013
681.178	0.001
681.437	0.002
681.696	0.0007
681.955	0.0017
682.214	0.0023
682.473	0.0013
682.732	0.0013
682.99	-0
683.249	0.0006
683.508	0.0005
683.766	0.0009
684.024	0.0017
684.283	0.0006
684.541	0.001
684.799	0.0008
685.058	0.0009
685.316	0.0009
685.574	0.0011
685.832	0.0007
686.09	0.0005
686.348	-0.0005
686.606	-0.0006
686.863	0.0002
687.121	-0.0004
687.379	-0.0006
687.636	-0.0014
687.894	-0.0005
688.151	-0.0002
688.409	-0.0001
688.666	0.0006
688.923	-0.0004
689.181	0.0001
689.438	0.0006
689.695	0.002
689.952	0.0028
690.209	0.0017
690.466	0.0022
690.723	0.0005
690.979	0.0003
691.236	-0.0002
691.493	-0.0001
691.75	-0.0002
692.006	0.0006
692.263	0.0007
692.519	0.0001
692.775	-0.0001
693.032	0.0005
693.288	-0.0002
693.544	-0.0002
693.8	-0.0006
694.056	-0.0006
694.313	-0.0009
694.568	0
694.824	-0.0008
695.08	-0.0006
695.336	0
695.592	-0.0006
695.847	0.0002
696.103	-0.0019
696.359	-0
696.614	-0.0004
696.869	-0.001
697.125	-0.0014
697.38	0.0002
697.635	-0.0005
697.891	-0.0005
698.146	-0.0021
698.401	-0.0022
698.656	-0.0023
698.911	-0.0026
699.166	-0.0039
699.42	-0.0028
699.675	-0.002
699.93	-0.002
700.185	-0.0013
700.439	0.0001
700.694	0.0013
700.948	-0.0003
701.203	-0.0001
701.457	-0.0004
701.711	-0.0011
701.965	-0.0003
702.22	0.0005
702.474	0.0008
702.728	0.0009
702.982	0.0019
703.236	0.0007
703.49	0.0007
703.743	-0.0008
703.997	-0.0015
704.251	-0.0005
704.504	-0.0015
704.758	-0.0005
705.012	-0.0012
705.265	0
705.518	-0.0009
705.772	-0.0002
706.025	-0.0005
706.278	-0.001
706.531	-0.0006
706.785	-0.0009
707.038	-0.0007
707.291	-0.0002
707.543	-0.0013
707.796	-0.0006
708.049	-0.0003
708.302	0.0006
708.555	0.0008
708.807	0.0023
709.06	0.0012
709.312	0.0008
709.565	0.0006
709.817	-0.001
710.069	-0.0007
710.322	-0.0014
710.574	-0.0005
710.826	0.0003
711.078	0.0012
711.33	0.0026
711.582	0.003
711.834	0.0019
712.086	0.0016
712.338	0.0009
712.59	-0
712.841	-0.0014
713.093	-0.0005
713.344	-0.002
713.596	-0.0012
713.847	-0.0011
714.099	-0.0003
714.35	-0.0016
714.601	-0.0025
714.853	-0.0025
715.104	-0.0017
715.355	-0.0026
715.606	-0.0002
715.857	-0.0009
716.108	-0.0012
716.359	-0.002
716.609	-0.0013
716.86	-0.0021
717.111	-0.0017
717.361	-0.0026
717.612	-0.0025
717.863	-0.0019
718.113	-0.0038
718.363	-0.0048
718.614	-0.0031
718.864	-0.0021
719.114	-0.0028
719.364	-0.0034
719.614	-0.0032
719.865	-0.0035
720.114	-0.0043
720.364	-0.0037
720.614	-0.004
720.864	-0.003
721.114	-0.0011
721.364	-0.0018
721.613	-0.0003
721.863	-0.001
722.112	-0.0002
722.362	-0.0016
722.611	-0.0011
722.86	-0.0017
723.11	-0.0032
723.359	-0.0024
723.608	-0.0026
723.857	-0.0017
724.106	-0.002
724.355	-0.0013
724.604	-0.0012
724.853	-0.0027
725.102	-0.0021
725.351	-0.0013
725.599	-0.0014
725.848	-0.0006
726.097	-0.0002
726.345	0.0011
726.594	0.0018
726.842	0.001
727.09	-0.0005
727.339	-0.001
727.587	-0.0014
727.835	-0.0031
728.083	-0.0028
728.331	-0.0039
728.579	-0.0016
728.827	-0.0001
729.075	-0.0007
729.323	0.0004
729.571	0.0015
729.818	0.0007
730.066	0.001
730.314	-0.0002
730.561	-0.0006
730.809	-0.0023
731.056	-0.0018
731.303	-0.0001
731.551	-0.0013
731.798	-0.0014
732.045	-0.0008
732.292	-0
732.539	-0.0016
732.786	-0.0013
733.033	-0.0008
733.28	-0.0003
733.527	-0.0004
733.774	-0.0013
734.021	-0.001
734.267	-0.0009
734.514	-0.0007
734.76	-0.0002
735.007	-0.001
735.253	-0.0014
735.5	-0.0014
735.746	-0.0007
735.992	-0.0005
736.238	-0.001
736.485	-0.0024
736.731	-0.0021
736.977	-0.004
737.223	-0.0025
737.469	-0.0028
737.715	-0.0018
737.96	-0.0008
738.206	0.0007
738.452	0.0019
738.697	0.0025
738.943	0.002
739.189	0.0005
739.434	0.0011
739.679	0.0007
739.925	0.0013
740.17	0.0007
740.415	0.001
740.66	0.001
740.906	0.0009
741.151	0.0009
741.396	0.0006
741.641	0.0004
741.886	-0.0005
742.13	0.0002
742.375	-0.0003
742.62	-0.0003
742.865	-0.0003
743.109	-0.0008
743.354	-0.0009
743.598	-0.0006
743.843	-0.0006
744.087	-0.0003
744.331	-0
744.576	0.0012
744.82	-0.0007
745.064	-0.0015
745.308	-0.0015
745.552	-0.0013
745.796	-0.0013
746.04	-0.0009
746.284	-0.0008
746.528	-0.0021
746.771	-0.0024
747.015	-0.0022
747.259	-0.0021
747.502	-0.0004
747.746	-0.0001
747.989	-0.0017
748.233	-0.0022
748.476	-0.0015
748.719	-0.0024
748.963	-0.0021
749.206	-0.0015
749.449	-0.0014
749.692	0.0001
749.935	0.0004
750.178	0.0004
750.421	-0.0018
750.664	-0.0026
750.906	-0.0039
751.149	-0.0038
751.392	-0.004
751.635	-0.0036
751.877	-0.0024
752.12	-0.0032
752.362	-0.0033
752.604	-0.0032
752.847	-0.0024
753.089	-0.0019
753.331	-0.0026
753.573	-0.0025
753.816	-0.0008
754.058	-0.0014
754.3	-0.0004
754.542	-0.0009
754.783	-0.0019
755.025	-0.0016
755.267	-0.0028
755.509	-0.0032
755.75	-0.0036
755.992	-0.0028
756.234	-0.0016
756.475	-0.0016
756.716	-0.0005
756.958	-0.0006
757.199	0.0003
757.44	-0.0025
757.682	-0.0027
757.923	-0.0019
758.164	-0.0021
758.405	-0.0023
758.646	-0.0012
758.887	-0.0014
759.128	-0.0026
759.369	-0.0036
759.609	-0.0034
759.85	-0.0029
760.091	-0.0022
760.331	-0.0024
760.572	-0.0022
760.812	-0.0024
761.053	-0.0016
761.293	-0.0008
761.533	-0.0006
761.774	0.0014
762.014	0.0004
762.254	-0
762.494	-0.0005
762.734	-0.0009
762.974	-0.0013
763.214	-0.0007
763.454	-0.0013
763.694	-0.0017
763.933	-0.0002
764.173	-0.0005
764.413	-0.0002
764.652	-0.0011
764.892	-0.0013
765.131	-0.0019
765.371	-0.0018
765.61	-0.0024
765.849	-0.0027
766.089	-0.0026
766.328	-0.0025
766.567	-0.0014
766.806	-0.0017
767.045	-0.0002
767.284	-0.0002
767.523	-0.0003
767.762	-0.0011
768.001	-0.0015
768.239	-0.0018
768.478	-0.0008
768.717	-0.0012
768.955	-0.002
769.194	-0.001
769.432	-0.0003
769.671	-0.0002
769.909	-0.0002
770.148	-0.0002
770.386	-0.0001
770.624	-0.0002
770.862	0.0009
771.1	0.0008
771.338	0.0001
771.576	0.0011
771.814	0.0004
772.052	-0.0003
772.29	-0.0008
772.528	-0.001
772.765	-0.0002
773.003	0.0002
773.24	0.0005
773.478	0.0006
773.716	0.0015
773.953	0.0017
774.19	0.0029
774.428	0.0031
774.665	0.0038
774.902	0.0035
775.139	0.0027
775.376	0.0027
775.613	0.0032
775.85	0.0039
776.087	0.0041
776.324	0.0035
776.561	0.0043
776.798	0.0049
777.034	0.0056
777.271	0.0045
777.508	0.0046
777.744	0.0031
777.981	0.0028
778.217	0.0026
778.454	0.0015
778.69	0.0011
778.926	0.0004
779.162	-0.0008
779.399	-0.0022
779.635	-0.0029
779.871	-0.0028
780.107	-0.0027
780.343	-0.0019
780.579	-0.001
780.814	-0.0007
781.05	-0.0009
781.286	-0.0014
781.522	0.0005
781.757	0.001
781.993	0.001
782.228	0.0017
782.464	0.0012
782.699	0.0012
782.934	0.0005
783.17	0.0011
783.405	0.0013
783.64	0.0014
783.875	0.0011
784.11	0.0019
784.345	0.0025
784.58	0.0028
784.815	0.0039
785.05	0.0014
785.285	0.0018
785.52	0.0019
785.754	0.0011
785.989	0.0003
786.223	0.0008
786.458	0.001
786.692	0.0019
786.927	0.0017
787.161	0.0019
787.396	0.0018
787.63	0.0024
787.864	0.0023
788.098	0.0023
788.332	0.0021
788.566	0.0007
788.8	0.0014
789.034	0.0017
789.268	0.0024
789.502	0.003
789.736	0.0029
789.969	0.0029
790.203	0.0022
790.437	0.0012
790.67	0.0012
790.904	0.0002
791.137	0.0009
791.37	0.0008
791.604	-0.0005
791.837	-0.0005
792.07	-0.0002
792.303	0.0003
792.537	-0.0013
792.77	-0.0024
793.003	-0.0017
793.236	-0.0018
793.469	-0.0004
793.701	0.0003
793.934	-0.0013
794.167	-0.0014
794.4	-0.0005
794.632	-0.0003
794.865	-0.0007
795.097	-0.0009
795.33	-0.0011
795.562	-0
795.795	0.0003
796.027	-0.0008
796.259	-0.0018
796.491	-0.0019
796.724	-0.0015
796.956	-0.0012
797.188	-0.0003
797.42	-0.0004
797.652	-0.0003
797.883	-0.0002
798.115	-0.0007
798.347	-0.0012
798.579	-0.0015
798.81	-0.0025
799.042	-0.0023
799.274	-0.002
799.505	-0.0015
799.737	0.0005
799.968	0.0013
800.199	0.0013
800.431	0.002
800.662	0.0025
800.893	0.0024
801.124	0.0028
801.355	0.0026
801.586	0.0035
801.817	0.0019
802.048	0.0006
802.279	0.0007
802.51	-0.0012
802.741	0.0007
802.971	-0.0006
803.202	-0.0017
803.433	-0.0013
803.663	-0.0012
803.894	-0.0015
804.124	-0.0007
804.354	-0.0011
804.585	-0.0007
804.815	-0.0002
805.045	-0.0017
805.275	-0.0012
805.506	-0.0253
805.736	0.0441
805.966	0.1851
806.196	0.088
