Data from 03 0.5 mM K2Cr2O7 0.2 mM BQDS 1 M H2SO4 5 min_Absorbance_0073.txt Node
Date: Thu Dec 09 21:51:44 EST 2021
User: kwabilab-user
Spectrometer: HDX00518
Trigger mode: 0
Integration Time (sec): 5.000000E-2
Scans to average: 50
Nonlinearity correction enabled: false
Boxcar width: 0
Storing dark spectrum: false
XAxis mode: Wavelengths
Number of Pixels in Spectrum: 2068
>>>>>Begin Spectral Data<<<<<
195.27	-0.5315
195.642	-0.6227
196.014	-0.5098
196.386	-0.4903
196.758	-0.5628
197.129	-0.7255
197.501	-1.1322
197.872	-1.4993
198.244	-1.5979
198.615	-1.6377
198.986	-1.6561
199.357	-1.6753
199.728	-1.6811
200.099	-1.6803
200.47	-1.711
200.841	-1.7214
201.212	-1.7163
201.582	-1.7563
201.953	-1.7596
202.323	-1.7704
202.694	-1.7787
203.064	-1.7896
203.434	-1.8034
203.804	-1.809
204.174	-1.8114
204.544	-1.8311
204.914	-1.8235
205.284	-1.8371
205.653	-1.8406
206.023	-1.841
206.393	-1.8487
206.762	-1.8562
207.131	-1.8587
207.501	-1.8532
207.87	-1.8739
208.239	-1.8703
208.608	-1.8597
208.977	-1.8732
209.346	-1.8629
209.715	-1.8488
210.083	-1.852
210.452	-1.8529
210.82	-1.8523
211.189	-1.8304
211.557	-1.821
211.925	-1.8221
212.294	-1.8164
212.662	-1.7935
213.03	-1.7878
213.398	-1.7864
213.766	-1.7676
214.133	-1.7697
214.501	-1.7802
214.869	-1.7585
215.236	-1.7694
215.604	-1.7546
215.971	-1.7448
216.338	-1.7558
216.705	-1.7647
217.072	-1.7619
217.439	-1.7561
217.806	-1.7476
218.173	-1.7417
218.54	-1.7421
218.907	-1.7358
219.273	-1.7298
219.64	-1.7134
220.006	-1.7115
220.373	-1.6963
220.739	-1.6851
221.105	-1.6665
221.471	-1.654
221.837	-1.6326
222.203	-1.6247
222.569	-1.6073
222.935	-1.5909
223.3	-1.57
223.666	-1.5597
224.031	-1.5442
224.397	-1.5307
224.762	-1.5139
225.127	-1.4995
225.493	-1.4856
225.858	-1.4747
226.223	-1.4621
226.588	-1.4514
226.952	-1.4372
227.317	-1.431
227.682	-1.4223
228.046	-1.4115
228.411	-1.4059
228.775	-1.3959
229.14	-1.3874
229.504	-1.3808
229.868	-1.3756
230.232	-1.3665
230.596	-1.3629
230.96	-1.356
231.324	-1.351
231.688	-1.3471
232.052	-1.341
232.415	-1.3379
232.779	-1.3344
233.142	-1.3284
233.505	-1.3245
233.869	-1.3209
234.232	-1.3154
234.595	-1.3142
234.958	-1.31
235.321	-1.3066
235.684	-1.3035
236.047	-1.2991
236.409	-1.2961
236.772	-1.2936
237.134	-1.2906
237.497	-1.2883
237.859	-1.2854
238.222	-1.2826
238.584	-1.2794
238.946	-1.2767
239.308	-1.2733
239.67	-1.2709
240.032	-1.27
240.393	-1.2662
240.755	-1.2631
241.117	-1.2592
241.478	-1.2571
241.84	-1.2529
242.201	-1.2478
242.562	-1.242
242.924	-1.2368
243.285	-1.2312
243.646	-1.2272
244.007	-1.2211
244.368	-1.2153
244.728	-1.2126
245.089	-1.2053
245.45	-1.2017
245.81	-1.1981
246.171	-1.1941
246.531	-1.1901
246.891	-1.1842
247.252	-1.1801
247.612	-1.176
247.972	-1.1735
248.332	-1.1681
248.692	-1.1635
249.051	-1.1604
249.411	-1.1563
249.771	-1.1516
250.13	-1.1463
250.49	-1.1407
250.849	-1.1364
251.208	-1.1328
251.568	-1.1294
251.927	-1.1239
252.286	-1.1206
252.645	-1.1166
253.004	-1.1125
253.363	-1.1072
253.721	-1.1041
254.08	-1.1001
254.439	-1.0969
254.797	-1.0929
255.155	-1.0896
255.514	-1.0852
255.872	-1.0804
256.23	-1.0739
256.588	-1.069
256.946	-1.0645
257.304	-1.061
257.662	-1.0543
258.02	-1.0495
258.377	-1.0444
258.735	-1.0386
259.093	-1.0337
259.45	-1.029
259.807	-1.0246
260.165	-1.0177
260.522	-1.0138
260.879	-1.0086
261.236	-1.0043
261.593	-0.9984
261.95	-0.9934
262.306	-0.9895
262.663	-0.9852
263.02	-0.9792
263.376	-0.9749
263.733	-0.97
264.089	-0.9664
264.445	-0.9619
264.802	-0.9563
265.158	-0.9526
265.514	-0.9486
265.87	-0.9438
266.226	-0.9405
266.581	-0.9371
266.937	-0.9326
267.293	-0.929
267.648	-0.9245
268.004	-0.9213
268.359	-0.9177
268.714	-0.9129
269.07	-0.9101
269.425	-0.905
269.78	-0.9017
270.135	-0.898
270.49	-0.8956
270.844	-0.8912
271.199	-0.8876
271.554	-0.8842
271.908	-0.8796
272.263	-0.8769
272.617	-0.8736
272.972	-0.87
273.326	-0.8667
273.68	-0.8637
274.034	-0.8596
274.388	-0.8573
274.742	-0.854
275.096	-0.8505
275.45	-0.8476
275.803	-0.8442
276.157	-0.8404
276.51	-0.8369
276.864	-0.8347
277.217	-0.832
277.571	-0.8274
277.924	-0.8258
278.277	-0.8201
278.63	-0.8182
278.983	-0.8147
279.336	-0.811
279.688	-0.8078
280.041	-0.8047
280.394	-0.8007
280.746	-0.7977
281.099	-0.7933
281.451	-0.7909
281.803	-0.7878
282.156	-0.7838
282.508	-0.7811
282.86	-0.7769
283.212	-0.7741
283.564	-0.7697
283.916	-0.7673
284.267	-0.7634
284.619	-0.7607
284.971	-0.7567
285.322	-0.7534
285.673	-0.7497
286.025	-0.7462
286.376	-0.7413
286.727	-0.7339
287.078	-0.7274
287.429	-0.7202
287.78	-0.7121
288.131	-0.7038
288.482	-0.6974
288.833	-0.6905
289.183	-0.6825
289.534	-0.6756
289.884	-0.6686
290.235	-0.6625
290.585	-0.6539
290.935	-0.6465
291.285	-0.6384
291.635	-0.6304
291.985	-0.6226
292.335	-0.6149
292.685	-0.6083
293.035	-0.6018
293.384	-0.595
293.734	-0.5887
294.083	-0.5806
294.433	-0.5738
294.782	-0.5673
295.131	-0.5607
295.48	-0.5544
295.829	-0.548
296.179	-0.5425
296.527	-0.5367
296.876	-0.5311
297.225	-0.5254
297.574	-0.5195
297.922	-0.5142
298.271	-0.5089
298.619	-0.5036
298.968	-0.4984
299.316	-0.4932
299.664	-0.4881
300.012	-0.4832
300.36	-0.4775
300.708	-0.4727
301.056	-0.4681
301.404	-0.4646
301.752	-0.4597
302.099	-0.4549
302.447	-0.4507
302.794	-0.4463
303.142	-0.4425
303.489	-0.4388
303.836	-0.4351
304.183	-0.4314
304.531	-0.427
304.878	-0.4233
305.224	-0.4199
305.571	-0.4163
305.918	-0.413
306.265	-0.4093
306.611	-0.4061
306.958	-0.4031
307.304	-0.4002
307.651	-0.3978
307.997	-0.3948
308.343	-0.3917
308.689	-0.3899
309.035	-0.3867
309.381	-0.3842
309.727	-0.3825
310.073	-0.3807
310.419	-0.3774
310.764	-0.3754
311.11	-0.3736
311.455	-0.3712
311.801	-0.3691
312.146	-0.3669
312.491	-0.3655
312.837	-0.3632
313.182	-0.3615
313.527	-0.3599
313.872	-0.358
314.216	-0.3566
314.561	-0.3554
314.906	-0.3541
315.251	-0.3529
315.595	-0.3521
315.94	-0.3508
316.284	-0.3501
316.628	-0.3499
316.972	-0.3487
317.317	-0.3476
317.661	-0.3463
318.005	-0.346
318.348	-0.3454
318.692	-0.345
319.036	-0.344
319.38	-0.3429
319.723	-0.3426
320.067	-0.3421
320.41	-0.341
320.754	-0.3415
321.097	-0.3407
321.44	-0.3405
321.783	-0.3403
322.126	-0.3407
322.469	-0.34
322.812	-0.3399
323.155	-0.3395
323.498	-0.3385
323.84	-0.3385
324.183	-0.3385
324.525	-0.3391
324.868	-0.3404
325.21	-0.3398
325.552	-0.3397
325.894	-0.3394
326.236	-0.3401
326.578	-0.3399
326.92	-0.3401
327.262	-0.3406
327.604	-0.3419
327.946	-0.3419
328.287	-0.3428
328.629	-0.343
328.97	-0.3433
329.312	-0.3432
329.653	-0.3436
329.994	-0.3438
330.335	-0.3442
330.676	-0.3445
331.017	-0.3455
331.358	-0.3469
331.699	-0.348
332.04	-0.3494
332.38	-0.3498
332.721	-0.3515
333.061	-0.3521
333.402	-0.3531
333.742	-0.3535
334.083	-0.354
334.423	-0.3552
334.763	-0.3569
335.103	-0.3578
335.443	-0.3586
335.783	-0.3595
336.123	-0.3599
336.462	-0.3601
336.802	-0.3613
337.141	-0.3626
337.481	-0.3636
337.82	-0.3645
338.16	-0.366
338.499	-0.367
338.838	-0.3676
339.177	-0.3681
339.516	-0.3696
339.855	-0.3711
340.194	-0.3717
340.533	-0.3724
340.872	-0.3724
341.21	-0.3728
341.549	-0.3746
341.887	-0.3763
342.226	-0.3779
342.564	-0.3788
342.902	-0.3806
343.24	-0.3812
343.578	-0.3826
343.916	-0.3841
344.254	-0.3852
344.592	-0.3867
344.93	-0.3867
345.268	-0.3876
345.605	-0.3896
345.943	-0.3903
346.28	-0.3909
346.618	-0.3919
346.955	-0.3936
347.292	-0.3944
347.629	-0.3961
347.966	-0.3963
348.303	-0.3989
348.64	-0.4022
348.977	-0.4041
349.314	-0.4049
349.65	-0.4056
349.987	-0.4059
350.324	-0.407
350.66	-0.4075
350.996	-0.4086
351.333	-0.41
351.669	-0.4106
352.005	-0.4117
352.341	-0.4128
352.677	-0.4135
353.013	-0.4141
353.349	-0.4136
353.685	-0.4136
354.02	-0.4134
354.356	-0.4132
354.691	-0.4125
355.027	-0.4118
355.362	-0.4119
355.697	-0.4112
356.033	-0.4112
356.368	-0.4112
356.703	-0.4108
357.038	-0.4106
357.373	-0.4099
357.707	-0.4097
358.042	-0.409
358.377	-0.4096
358.711	-0.4096
359.046	-0.4091
359.38	-0.4089
359.715	-0.4082
360.049	-0.408
360.383	-0.4082
360.717	-0.4071
361.051	-0.407
361.385	-0.4069
361.719	-0.4059
362.053	-0.4069
362.387	-0.4069
362.72	-0.4056
363.054	-0.4056
363.387	-0.4052
363.721	-0.4048
364.054	-0.4044
364.387	-0.4049
364.721	-0.4042
365.054	-0.404
365.387	-0.4041
365.72	-0.4046
366.053	-0.4034
366.385	-0.4031
366.718	-0.4028
367.051	-0.4026
367.383	-0.4025
367.716	-0.4034
368.048	-0.4031
368.381	-0.4028
368.713	-0.4023
369.045	-0.4022
369.377	-0.4015
369.709	-0.4017
370.041	-0.4013
370.373	-0.4009
370.705	-0.4008
371.037	-0.4007
371.368	-0.4006
371.7	-0.4002
372.031	-0.4006
372.363	-0.4002
372.694	-0.3995
373.025	-0.3993
373.356	-0.3995
373.688	-0.3997
374.019	-0.3999
374.35	-0.3995
374.68	-0.3983
375.011	-0.3986
375.342	-0.399
375.673	-0.399
376.003	-0.3985
376.334	-0.3988
376.664	-0.3982
376.995	-0.3979
377.325	-0.3977
377.655	-0.3972
377.985	-0.3979
378.315	-0.3973
378.645	-0.3973
378.975	-0.3971
379.305	-0.3974
379.635	-0.3983
379.964	-0.3974
380.294	-0.3971
380.623	-0.3968
380.953	-0.3984
381.282	-0.3983
381.611	-0.3978
381.941	-0.397
382.27	-0.3974
382.599	-0.3976
382.928	-0.3985
383.257	-0.3985
383.585	-0.3981
383.914	-0.3979
384.243	-0.3977
384.571	-0.3984
384.9	-0.3982
385.228	-0.3987
385.557	-0.3991
385.885	-0.3991
386.213	-0.3989
386.541	-0.3993
386.869	-0.3996
387.197	-0.3996
387.525	-0.4007
387.853	-0.4004
388.181	-0.4007
388.508	-0.4016
388.836	-0.4029
389.164	-0.4031
389.491	-0.403
389.818	-0.403
390.146	-0.4034
390.473	-0.4046
390.8	-0.4047
391.127	-0.4055
391.454	-0.4054
391.781	-0.4052
392.108	-0.4054
392.435	-0.4057
392.761	-0.4045
393.088	-0.3911
393.415	-0.39
393.741	-0.4089
394.067	-0.4101
394.394	-0.4101
394.72	-0.4103
395.046	-0.4106
395.372	-0.4114
395.698	-0.4117
396.024	-0.4123
396.35	-0.4127
396.676	-0.4128
397.001	-0.4128
397.327	-0.4132
397.653	-0.4116
397.978	-0.4056
398.303	-0.3994
398.629	-0.3855
398.954	-0.3806
399.279	-0.3981
399.604	-0.4082
399.929	-0.4125
400.254	-0.4141
400.579	-0.4178
400.904	-0.4183
401.229	-0.4188
401.553	-0.4195
401.878	-0.4197
402.202	-0.4199
402.527	-0.4204
402.851	-0.4207
403.175	-0.4211
403.5	-0.421
403.824	-0.4213
404.148	-0.4217
404.472	-0.4207
404.796	-0.421
405.119	-0.4206
405.443	-0.4194
405.767	-0.4148
406.09	-0.4201
406.414	-0.4238
406.737	-0.4243
407.061	-0.424
407.384	-0.4236
407.707	-0.4237
408.03	-0.424
408.353	-0.4234
408.676	-0.4228
408.999	-0.4237
409.322	-0.4243
409.645	-0.4249
409.968	-0.4249
410.29	-0.4249
410.613	-0.4253
410.935	-0.4248
411.258	-0.4246
411.58	-0.4248
411.902	-0.4249
412.224	-0.4244
412.546	-0.4241
412.868	-0.4237
413.19	-0.4248
413.512	-0.4246
413.834	-0.4238
414.156	-0.4241
414.477	-0.4244
414.799	-0.4252
415.121	-0.4246
415.442	-0.4242
415.763	-0.4241
416.085	-0.4234
416.406	-0.4236
416.727	-0.4245
417.048	-0.424
417.369	-0.4237
417.69	-0.4236
418.011	-0.4232
418.331	-0.4226
418.652	-0.4225
418.973	-0.4219
419.293	-0.422
419.614	-0.4209
419.934	-0.4206
420.254	-0.42
420.574	-0.4186
420.895	-0.4182
421.215	-0.4171
421.535	-0.415
421.855	-0.4025
422.174	-0.402
422.494	-0.4141
422.814	-0.4173
423.134	-0.4172
423.453	-0.4171
423.773	-0.4168
424.092	-0.4154
424.411	-0.4157
424.731	-0.414
425.05	-0.4142
425.369	-0.4155
425.688	-0.415
426.007	-0.4152
426.326	-0.415
426.644	-0.4143
426.963	-0.4136
427.282	-0.4138
427.6	-0.4138
427.919	-0.4119
428.237	-0.4092
428.556	-0.4052
428.874	-0.4013
429.192	-0.3967
429.51	-0.3936
429.828	-0.3889
430.146	-0.3878
430.464	-0.3871
430.782	-0.3883
431.1	-0.3927
431.418	-0.3968
431.735	-0.3981
432.053	-0.3967
432.37	-0.3934
432.688	-0.3909
433.005	-0.3888
433.322	-0.3885
433.639	-0.3887
433.957	-0.3893
434.274	-0.3918
434.591	-0.3919
434.907	-0.3914
435.224	-0.3907
435.541	-0.3894
435.858	-0.3884
436.174	-0.388
436.491	-0.388
436.807	-0.3909
437.124	-0.3909
437.44	-0.3903
437.756	-0.3895
438.072	-0.3896
438.388	-0.3892
438.704	-0.3894
439.02	-0.3907
439.336	-0.3905
439.652	-0.3898
439.968	-0.3894
440.283	-0.3888
440.599	-0.3884
440.914	-0.3887
441.23	-0.3892
441.545	-0.3906
441.86	-0.3909
442.175	-0.3894
442.491	-0.3897
442.806	-0.3894
443.121	-0.3887
443.435	-0.3898
443.75	-0.3905
444.065	-0.3911
444.38	-0.3897
444.694	-0.3896
445.009	-0.39
445.323	-0.3894
445.638	-0.3904
445.952	-0.39
446.266	-0.389
446.58	-0.3905
446.894	-0.3907
447.208	-0.3901
447.522	-0.3899
447.836	-0.39
448.15	-0.3911
448.464	-0.3914
448.777	-0.3904
449.091	-0.3908
449.404	-0.3917
449.718	-0.3905
450.031	-0.3903
450.345	-0.391
450.658	-0.3898
450.971	-0.3905
451.284	-0.3909
451.597	-0.3898
451.91	-0.3903
452.223	-0.3918
452.535	-0.3912
452.848	-0.3907
453.161	-0.3916
453.473	-0.3909
453.786	-0.3897
454.098	-0.3907
454.411	-0.3897
454.723	-0.3898
455.035	-0.3893
455.347	-0.3908
455.659	-0.3916
455.971	-0.3918
456.283	-0.3908
456.595	-0.3904
456.907	-0.3896
457.218	-0.3904
457.53	-0.391
457.841	-0.3915
458.153	-0.3913
458.464	-0.3921
458.776	-0.3904
459.087	-0.3917
459.398	-0.3916
459.709	-0.3904
460.02	-0.391
460.331	-0.3909
460.642	-0.3908
460.953	-0.3911
461.263	-0.3922
461.574	-0.3943
461.885	-0.3932
462.195	-0.3921
462.506	-0.3908
462.816	-0.391
463.126	-0.3914
463.437	-0.3902
463.747	-0.3901
464.057	-0.3907
464.367	-0.3899
464.677	-0.3904
464.987	-0.3894
465.296	-0.3908
465.606	-0.3907
465.916	-0.3914
466.225	-0.3942
466.535	-0.3944
466.844	-0.3922
467.154	-0.3924
467.463	-0.391
467.772	-0.3923
468.081	-0.3908
468.39	-0.393
468.699	-0.3931
469.008	-0.3928
469.317	-0.3925
469.626	-0.3921
469.935	-0.3928
470.243	-0.3923
470.552	-0.3921
470.86	-0.3931
471.169	-0.3927
471.477	-0.3925
471.785	-0.392
472.093	-0.3914
472.402	-0.3921
472.71	-0.392
473.018	-0.3911
473.326	-0.3925
473.633	-0.3923
473.941	-0.3927
474.249	-0.3918
474.556	-0.3914
474.864	-0.3915
475.171	-0.3915
475.479	-0.3926
475.786	-0.3933
476.094	-0.3924
476.401	-0.3919
476.708	-0.393
477.015	-0.3931
477.322	-0.3928
477.629	-0.3918
477.936	-0.3916
478.242	-0.3922
478.549	-0.3927
478.856	-0.3924
479.162	-0.3922
479.469	-0.3916
479.775	-0.3923
480.081	-0.3913
480.388	-0.3922
480.694	-0.3927
481	-0.3925
481.306	-0.3905
481.612	-0.3916
481.918	-0.392
482.224	-0.3928
482.53	-0.394
482.835	-0.3932
483.141	-0.3926
483.446	-0.3924
483.752	-0.3928
484.057	-0.392
484.363	-0.3913
484.668	-0.3915
484.973	-0.3911
485.278	-0.3886
485.583	-0.3883
485.888	-0.3896
486.193	-0.3977
486.498	-0.3973
486.803	-0.3916
487.107	-0.3921
487.412	-0.3945
487.717	-0.3961
488.021	-0.3952
488.325	-0.3934
488.63	-0.3927
488.934	-0.3939
489.238	-0.3943
489.542	-0.3942
489.846	-0.395
490.15	-0.3956
490.454	-0.3948
490.758	-0.3946
491.062	-0.3944
491.366	-0.3939
491.669	-0.3953
491.973	-0.394
492.276	-0.3943
492.58	-0.3948
492.883	-0.3945
493.186	-0.3959
493.489	-0.3947
493.792	-0.3953
494.096	-0.3957
494.399	-0.3946
494.701	-0.3956
495.004	-0.3961
495.307	-0.3945
495.61	-0.3932
495.912	-0.3935
496.215	-0.3935
496.517	-0.397
496.82	-0.3972
497.122	-0.398
497.424	-0.3967
497.727	-0.3965
498.029	-0.3957
498.331	-0.3962
498.633	-0.3955
498.935	-0.3959
499.237	-0.3967
499.538	-0.3957
499.84	-0.3959
500.142	-0.397
500.443	-0.3959
500.745	-0.3959
501.046	-0.3952
501.348	-0.3961
501.649	-0.3958
501.95	-0.3968
502.251	-0.3959
502.552	-0.3972
502.853	-0.397
503.154	-0.3966
503.455	-0.3957
503.756	-0.3971
504.057	-0.3971
504.357	-0.396
504.658	-0.3968
504.958	-0.3972
505.259	-0.3977
505.559	-0.3975
505.859	-0.3976
506.16	-0.3963
506.46	-0.3974
506.76	-0.3978
507.06	-0.3984
507.36	-0.3978
507.66	-0.3967
507.96	-0.3981
508.259	-0.4
508.559	-0.3985
508.859	-0.3986
509.158	-0.3984
509.457	-0.3983
509.757	-0.3992
510.056	-0.3991
510.355	-0.3998
510.655	-0.3992
510.954	-0.4001
511.253	-0.3987
511.552	-0.3996
511.851	-0.4004
512.149	-0.4002
512.448	-0.3993
512.747	-0.4
513.045	-0.3999
513.344	-0.4012
513.642	-0.3999
513.941	-0.4006
514.239	-0.4008
514.537	-0.4014
514.836	-0.4012
515.134	-0.4022
515.432	-0.4009
515.73	-0.4006
516.028	-0.4012
516.326	-0.4008
516.623	-0.4
516.921	-0.4011
517.219	-0.401
517.516	-0.4014
517.814	-0.4009
518.111	-0.4015
518.409	-0.4024
518.706	-0.4006
519.003	-0.4021
519.3	-0.4023
519.597	-0.4035
519.894	-0.4042
520.191	-0.4036
520.488	-0.4032
520.785	-0.4039
521.082	-0.4029
521.378	-0.4021
521.675	-0.4036
521.971	-0.4034
522.268	-0.403
522.564	-0.4035
522.861	-0.4033
523.157	-0.4036
523.453	-0.4035
523.749	-0.4044
524.045	-0.4048
524.341	-0.4044
524.637	-0.4048
524.933	-0.4044
525.229	-0.4039
525.524	-0.4048
525.82	-0.4041
526.115	-0.4042
526.411	-0.4053
526.706	-0.4062
527.002	-0.4061
527.297	-0.4064
527.592	-0.4063
527.887	-0.4067
528.182	-0.4059
528.477	-0.4045
528.772	-0.4051
529.067	-0.406
529.362	-0.4069
529.657	-0.4062
529.951	-0.4055
530.246	-0.4067
530.54	-0.4072
530.835	-0.4075
531.129	-0.4059
531.423	-0.4078
531.718	-0.4068
532.012	-0.4076
532.306	-0.4067
532.6	-0.4058
532.894	-0.405
533.188	-0.4068
533.482	-0.406
533.775	-0.4067
534.069	-0.4064
534.363	-0.4075
534.656	-0.4067
534.95	-0.4069
535.243	-0.4076
535.536	-0.4074
535.83	-0.4084
536.123	-0.4086
536.416	-0.4082
536.709	-0.4083
537.002	-0.4082
537.295	-0.4077
537.588	-0.4067
537.881	-0.4071
538.173	-0.4073
538.466	-0.407
538.759	-0.4081
539.051	-0.4072
539.344	-0.4073
539.636	-0.4078
539.928	-0.4084
540.22	-0.409
540.513	-0.4084
540.805	-0.4079
541.097	-0.4087
541.389	-0.4101
541.681	-0.4083
541.972	-0.4091
542.264	-0.4084
542.556	-0.4093
542.847	-0.4107
543.139	-0.4105
543.431	-0.4095
543.722	-0.4098
544.013	-0.4094
544.305	-0.4082
544.596	-0.4099
544.887	-0.4087
545.178	-0.409
545.469	-0.4109
545.76	-0.4096
546.051	-0.4098
546.342	-0.4115
546.632	-0.409
546.923	-0.4097
547.214	-0.4094
547.504	-0.4089
547.795	-0.4091
548.085	-0.4089
548.375	-0.4098
548.666	-0.4109
548.956	-0.4091
549.246	-0.4117
549.536	-0.411
549.826	-0.4103
550.116	-0.4117
550.406	-0.4114
550.695	-0.4126
550.985	-0.4126
551.275	-0.4127
551.564	-0.4107
551.854	-0.4103
552.143	-0.4103
552.433	-0.4112
552.722	-0.4116
553.011	-0.411
553.3	-0.4102
553.589	-0.4109
553.879	-0.4127
554.167	-0.4121
554.456	-0.4128
554.745	-0.4098
555.034	-0.4094
555.323	-0.411
555.611	-0.412
555.9	-0.4109
556.188	-0.412
556.477	-0.4121
556.765	-0.4128
557.053	-0.4125
557.342	-0.4134
557.63	-0.4141
557.918	-0.414
558.206	-0.4144
558.494	-0.4138
558.782	-0.415
559.069	-0.4135
559.357	-0.4128
559.645	-0.4122
559.932	-0.4124
560.22	-0.4111
560.507	-0.4119
560.795	-0.4102
561.082	-0.4122
561.37	-0.4126
561.657	-0.4115
561.944	-0.4134
562.231	-0.4138
562.518	-0.4142
562.805	-0.4136
563.092	-0.4135
563.379	-0.4141
563.665	-0.4147
563.952	-0.4144
564.239	-0.4134
564.525	-0.4147
564.811	-0.4154
565.098	-0.415
565.384	-0.4159
565.67	-0.4152
565.957	-0.4139
566.243	-0.4152
566.529	-0.4146
566.815	-0.4151
567.101	-0.4145
567.387	-0.4136
567.672	-0.4152
567.958	-0.4128
568.244	-0.4128
568.529	-0.4119
568.815	-0.411
569.1	-0.4115
569.386	-0.4091
569.671	-0.4076
569.956	-0.4099
570.242	-0.4087
570.527	-0.4096
570.812	-0.4056
571.097	-0.4063
571.382	-0.406
571.666	-0.405
571.951	-0.4057
572.236	-0.4095
572.521	-0.4093
572.805	-0.4051
573.09	-0.404
573.374	-0.4072
573.659	-0.4072
573.943	-0.4034
574.227	-0.403
574.511	-0.4053
574.795	-0.4042
575.079	-0.4032
575.363	-0.4082
575.647	-0.4088
575.931	-0.4046
576.215	-0.4065
576.499	-0.4053
576.782	-0.4078
577.066	-0.4056
577.349	-0.402
577.633	-0.3976
577.916	-0.4027
578.2	-0.4046
578.483	-0.4061
578.766	-0.4057
579.049	-0.4083
579.332	-0.4046
579.615	-0.4052
579.898	-0.4097
580.181	-0.4073
580.464	-0.4068
580.746	-0.4058
581.029	-0.3976
581.312	-0.3959
581.594	-0.4024
581.877	-0.4001
582.159	-0.4005
582.441	-0.4056
582.724	-0.4063
583.006	-0.4069
583.288	-0.4108
583.57	-0.4092
583.852	-0.4087
584.134	-0.4066
584.416	-0.4064
584.697	-0.4017
584.979	-0.4017
585.261	-0.4054
585.542	-0.4047
585.824	-0.4046
586.105	-0.4081
586.387	-0.4066
586.668	-0.4061
586.949	-0.4065
587.231	-0.4041
587.512	-0.4065
587.793	-0.4065
588.074	-0.4076
588.355	-0.4056
588.636	-0.4095
588.916	-0.412
589.197	-0.4102
589.478	-0.4098
589.758	-0.4108
590.039	-0.4128
590.319	-0.4122
590.6	-0.4122
590.88	-0.414
591.16	-0.4137
591.441	-0.4117
591.721	-0.4112
592.001	-0.4123
592.281	-0.4095
592.561	-0.4022
592.841	-0.404
593.12	-0.4072
593.4	-0.4059
593.68	-0.4079
593.959	-0.409
594.239	-0.4124
594.518	-0.4104
594.798	-0.4099
595.077	-0.412
595.356	-0.4119
595.636	-0.4136
595.915	-0.4137
596.194	-0.4147
596.473	-0.4138
596.752	-0.4128
597.031	-0.4107
597.31	-0.4116
597.588	-0.4099
597.867	-0.4108
598.146	-0.4121
598.424	-0.4056
598.703	-0.4052
598.981	-0.4052
599.259	-0.4093
599.538	-0.4055
599.816	-0.4031
600.094	-0.4068
600.372	-0.4085
600.65	-0.4084
600.928	-0.4076
601.206	-0.4125
601.484	-0.4124
601.762	-0.4124
602.04	-0.4135
602.317	-0.4145
602.595	-0.4141
602.872	-0.4137
603.15	-0.4106
603.427	-0.4104
603.704	-0.4119
603.982	-0.4102
604.259	-0.4116
604.536	-0.4135
604.813	-0.4132
605.09	-0.4113
605.367	-0.4117
605.644	-0.4111
605.921	-0.4087
606.197	-0.4128
606.474	-0.4109
606.751	-0.4101
607.027	-0.4114
607.304	-0.4086
607.58	-0.41
607.856	-0.4114
608.133	-0.4119
608.409	-0.4124
608.685	-0.4144
608.961	-0.4161
609.237	-0.4175
609.513	-0.4165
609.789	-0.4145
610.065	-0.4143
610.341	-0.4162
610.616	-0.4154
610.892	-0.4158
611.167	-0.416
611.443	-0.4149
611.718	-0.4145
611.994	-0.4165
612.269	-0.415
612.544	-0.4151
612.819	-0.4152
613.095	-0.4156
613.37	-0.4145
613.645	-0.4151
613.919	-0.4145
614.194	-0.414
614.469	-0.4114
614.744	-0.4113
615.019	-0.411
615.293	-0.4108
615.568	-0.4134
615.842	-0.4146
616.116	-0.4178
616.391	-0.4164
616.665	-0.4185
616.939	-0.4183
617.213	-0.4187
617.488	-0.42
617.762	-0.4199
618.035	-0.4193
618.309	-0.4207
618.583	-0.4207
618.857	-0.4215
619.131	-0.4233
619.404	-0.4249
619.678	-0.4214
619.951	-0.4202
620.225	-0.4221
620.498	-0.421
620.771	-0.4246
621.045	-0.4281
621.318	-0.4277
621.591	-0.4254
621.864	-0.4219
622.137	-0.42
622.41	-0.421
622.683	-0.4205
622.956	-0.4202
623.228	-0.4207
623.501	-0.4203
623.774	-0.422
624.046	-0.4221
624.319	-0.4209
624.591	-0.4215
624.863	-0.423
625.136	-0.4256
625.408	-0.4246
625.68	-0.4255
625.952	-0.4257
626.224	-0.4265
626.496	-0.4275
626.768	-0.4264
627.04	-0.4251
627.311	-0.425
627.583	-0.4257
627.855	-0.4256
628.126	-0.4287
628.398	-0.4308
628.669	-0.4313
628.941	-0.4279
629.212	-0.4265
629.483	-0.4251
629.755	-0.4278
630.026	-0.4283
630.297	-0.4278
630.568	-0.4295
630.839	-0.4282
631.11	-0.4314
631.38	-0.4322
631.651	-0.4329
631.922	-0.4342
632.192	-0.436
632.463	-0.4355
632.733	-0.4343
633.004	-0.4338
633.274	-0.434
633.545	-0.4345
633.815	-0.4343
634.085	-0.4339
634.355	-0.433
634.625	-0.4337
634.895	-0.4333
635.165	-0.4342
635.435	-0.4335
635.705	-0.4339
635.974	-0.4329
636.244	-0.4321
636.514	-0.4296
636.783	-0.4311
637.053	-0.4308
637.322	-0.4335
637.591	-0.4339
637.861	-0.435
638.13	-0.4351
638.399	-0.4341
638.668	-0.4332
638.937	-0.434
639.206	-0.434
639.475	-0.4358
639.744	-0.4366
640.013	-0.4354
640.281	-0.4336
640.55	-0.4342
640.819	-0.4345
641.087	-0.4353
641.356	-0.436
641.624	-0.4357
641.892	-0.4368
642.161	-0.4375
642.429	-0.4381
642.697	-0.4387
642.965	-0.4376
643.233	-0.4372
643.501	-0.4366
643.769	-0.4372
644.037	-0.4371
644.305	-0.4385
644.572	-0.4381
644.84	-0.4402
645.108	-0.4415
645.375	-0.4431
645.643	-0.4422
645.91	-0.4423
646.177	-0.4419
646.445	-0.4416
646.712	-0.4407
646.979	-0.4396
647.246	-0.4387
647.513	-0.4375
647.78	-0.4368
648.047	-0.4328
648.314	-0.4295
648.58	-0.429
648.847	-0.4286
649.114	-0.4308
649.38	-0.4307
649.647	-0.4318
649.913	-0.434
650.18	-0.4361
650.446	-0.437
650.712	-0.4366
650.978	-0.4367
651.245	-0.4364
651.511	-0.4357
651.777	-0.4355
652.043	-0.4349
652.309	-0.4354
652.574	-0.4351
652.84	-0.4354
653.106	-0.4344
653.371	-0.4349
653.637	-0.4366
653.903	-0.4383
654.168	-0.4395
654.433	-0.4381
654.699	-0.4366
654.964	-0.4349
655.229	-0.4316
655.494	-0.4178
655.759	-0.3851
656.024	-0.0078
656.289	-0
656.554	-0.2259
656.819	-0.4179
657.084	-0.4313
657.349	-0.4365
657.613	-0.4356
657.878	-0.4344
658.142	-0.4345
658.407	-0.4342
658.671	-0.4355
658.936	-0.4348
659.2	-0.4365
659.464	-0.4381
659.728	-0.4393
659.992	-0.4407
660.256	-0.441
660.52	-0.4426
660.784	-0.4422
661.048	-0.4413
661.312	-0.4384
661.575	-0.4366
661.839	-0.4354
662.103	-0.4367
662.366	-0.4381
662.63	-0.4389
662.893	-0.438
663.156	-0.4377
663.42	-0.4373
663.683	-0.4376
663.946	-0.4369
664.209	-0.4351
664.472	-0.4336
664.735	-0.4331
664.998	-0.434
665.261	-0.4341
665.524	-0.4343
665.786	-0.435
666.049	-0.4358
666.312	-0.4371
666.574	-0.4381
666.837	-0.4388
667.099	-0.4394
667.361	-0.4407
667.624	-0.441
667.886	-0.44
668.148	-0.4398
668.41	-0.439
668.672	-0.44
668.934	-0.4388
669.196	-0.4378
669.458	-0.4377
669.72	-0.4381
669.982	-0.4397
670.243	-0.4397
670.505	-0.4381
670.766	-0.439
671.028	-0.4381
671.289	-0.4372
671.551	-0.433
671.812	-0.4276
672.073	-0.4275
672.334	-0.4311
672.596	-0.4304
672.857	-0.4319
673.118	-0.4349
673.379	-0.4362
673.639	-0.4371
673.9	-0.4373
674.161	-0.4347
674.422	-0.4351
674.682	-0.4351
674.943	-0.4361
675.203	-0.4372
675.464	-0.4368
675.724	-0.4358
675.985	-0.4375
676.245	-0.4369
676.505	-0.4361
676.765	-0.4353
677.025	-0.4374
677.285	-0.4401
677.545	-0.4369
677.805	-0.4324
678.065	-0.4299
678.325	-0.4305
678.585	-0.4328
678.844	-0.4313
679.104	-0.4303
679.363	-0.4318
679.623	-0.4295
679.882	-0.4288
680.142	-0.431
680.401	-0.4327
680.66	-0.4341
680.919	-0.4344
681.178	-0.4369
681.437	-0.4357
681.696	-0.4318
681.955	-0.4324
682.214	-0.4345
682.473	-0.437
682.732	-0.4375
682.99	-0.4411
683.249	-0.4415
683.508	-0.4392
683.766	-0.4342
684.024	-0.4331
684.283	-0.4326
684.541	-0.4296
684.799	-0.4305
685.058	-0.4311
685.316	-0.4306
685.574	-0.4277
685.832	-0.4277
686.09	-0.431
686.348	-0.4338
686.606	-0.4343
686.863	-0.4349
687.121	-0.4366
687.379	-0.4347
687.636	-0.4318
687.894	-0.4349
688.151	-0.4375
688.409	-0.4385
688.666	-0.4385
688.923	-0.4401
689.181	-0.4388
689.438	-0.437
689.695	-0.4342
689.952	-0.4326
690.209	-0.4368
690.466	-0.4368
690.723	-0.439
690.979	-0.4378
691.236	-0.4337
691.493	-0.4302
691.75	-0.4323
692.006	-0.4353
692.263	-0.4357
692.519	-0.4365
692.775	-0.4358
693.032	-0.4365
693.288	-0.4353
693.544	-0.4317
693.8	-0.4353
694.056	-0.4368
694.313	-0.4384
694.568	-0.438
694.824	-0.4393
695.08	-0.4377
695.336	-0.435
695.592	-0.4324
695.847	-0.4355
696.103	-0.4424
696.359	-0.4422
696.614	-0.4423
696.869	-0.437
697.125	-0.4272
697.38	-0.4232
697.635	-0.4291
697.891	-0.4333
698.146	-0.4381
698.401	-0.4412
698.656	-0.4387
698.911	-0.4401
699.166	-0.4417
699.42	-0.4409
699.675	-0.4411
699.93	-0.4417
700.185	-0.4414
700.439	-0.4419
700.694	-0.4415
700.948	-0.4401
701.203	-0.4375
701.457	-0.4387
701.711	-0.4406
701.965	-0.4385
702.22	-0.4345
702.474	-0.4353
702.728	-0.4337
702.982	-0.431
703.236	-0.4354
703.49	-0.4387
703.743	-0.4385
703.997	-0.4406
704.251	-0.4393
704.504	-0.4379
704.758	-0.4343
705.012	-0.4378
705.265	-0.4387
705.518	-0.4391
705.772	-0.4383
706.025	-0.4388
706.278	-0.4391
706.531	-0.4362
706.785	-0.433
707.038	-0.4267
707.291	-0.4282
707.543	-0.4298
707.796	-0.4299
708.049	-0.4318
708.302	-0.4314
708.555	-0.4324
708.807	-0.4324
709.06	-0.4344
709.312	-0.4336
709.565	-0.4357
709.817	-0.4363
710.069	-0.4356
710.322	-0.4376
710.574	-0.4358
710.826	-0.4329
711.078	-0.431
711.33	-0.4345
711.582	-0.4364
711.834	-0.4388
712.086	-0.4392
712.338	-0.4394
712.59	-0.4391
712.841	-0.4343
713.093	-0.4312
713.344	-0.4379
713.596	-0.4354
713.847	-0.4327
714.099	-0.4333
714.35	-0.4351
714.601	-0.4351
714.853	-0.4325
715.104	-0.4362
715.355	-0.4345
715.606	-0.4314
715.857	-0.4357
716.108	-0.4361
716.359	-0.4397
716.609	-0.4398
716.86	-0.4406
717.111	-0.4387
717.361	-0.4359
717.612	-0.4374
717.863	-0.4389
718.113	-0.4384
718.363	-0.4325
718.614	-0.4336
718.864	-0.4402
719.114	-0.441
719.364	-0.4392
719.614	-0.4349
719.865	-0.438
720.114	-0.4422
720.364	-0.4427
720.614	-0.4432
720.864	-0.4414
721.114	-0.4383
721.364	-0.439
721.613	-0.4407
721.863	-0.4392
722.112	-0.4402
722.362	-0.4393
722.611	-0.4389
722.86	-0.4415
723.11	-0.4419
723.359	-0.4405
723.608	-0.4386
723.857	-0.4397
724.106	-0.4388
724.355	-0.4393
724.604	-0.4413
724.853	-0.4418
725.102	-0.4401
725.351	-0.437
725.599	-0.4355
725.848	-0.4362
726.097	-0.4377
726.345	-0.4376
726.594	-0.4355
726.842	-0.439
727.09	-0.441
727.339	-0.4421
727.587	-0.4401
727.835	-0.4415
728.083	-0.4384
728.331	-0.4381
728.579	-0.4363
728.827	-0.4355
729.075	-0.4395
729.323	-0.4366
729.571	-0.4375
729.818	-0.4378
730.066	-0.4349
730.314	-0.439
730.561	-0.439
730.809	-0.4418
731.056	-0.4312
731.303	-0.4296
731.551	-0.4383
731.798	-0.4376
732.045	-0.4337
732.292	-0.4387
732.539	-0.4414
732.786	-0.4371
733.033	-0.4334
733.28	-0.4347
733.527	-0.439
733.774	-0.4379
734.021	-0.4329
734.267	-0.4336
734.514	-0.4325
734.76	-0.4308
735.007	-0.4377
735.253	-0.4421
735.5	-0.4387
735.746	-0.435
735.992	-0.4324
736.238	-0.4362
736.485	-0.4392
736.731	-0.4424
736.977	-0.4409
737.223	-0.4345
737.469	-0.436
737.715	-0.4373
737.96	-0.441
738.206	-0.4381
738.452	-0.4373
738.697	-0.4388
738.943	-0.4349
739.189	-0.4345
739.434	-0.4269
739.679	-0.4289
739.925	-0.4362
740.17	-0.4425
740.415	-0.4442
740.66	-0.4434
740.906	-0.4443
741.151	-0.444
741.396	-0.4432
741.641	-0.445
741.886	-0.4452
742.13	-0.4424
742.375	-0.4398
742.62	-0.4411
742.865	-0.4349
743.109	-0.44
743.354	-0.4443
743.598	-0.4463
743.843	-0.4456
744.087	-0.444
744.331	-0.4451
744.576	-0.4453
744.82	-0.4459
745.064	-0.4454
745.308	-0.4464
745.552	-0.4474
745.796	-0.4455
746.04	-0.4441
746.284	-0.4429
746.528	-0.4417
746.771	-0.4453
747.015	-0.4473
747.259	-0.4465
747.502	-0.4437
747.746	-0.4453
747.989	-0.4484
748.233	-0.4495
748.476	-0.4492
748.719	-0.4497
748.963	-0.4473
749.206	-0.4453
749.449	-0.4445
749.692	-0.4399
749.935	-0.4413
750.178	-0.4431
750.421	-0.441
750.664	-0.4429
750.906	-0.4452
751.149	-0.447
751.392	-0.4459
751.635	-0.4425
751.877	-0.4398
752.12	-0.4428
752.362	-0.4422
752.604	-0.4425
752.847	-0.4421
753.089	-0.4409
753.331	-0.4428
753.573	-0.4416
753.816	-0.4357
754.058	-0.4369
754.3	-0.4386
754.542	-0.4416
754.783	-0.4427
755.025	-0.442
755.267	-0.4437
755.509	-0.4422
755.75	-0.4421
755.992	-0.438
756.234	-0.4405
756.475	-0.4421
756.716	-0.4386
756.958	-0.4331
757.199	-0.4293
757.44	-0.4367
757.682	-0.435
757.923	-0.4259
758.164	-0.4318
758.405	-0.4366
758.646	-0.438
758.887	-0.441
759.128	-0.4431
759.369	-0.4428
759.609	-0.4373
759.85	-0.4377
760.091	-0.4368
760.331	-0.4424
760.572	-0.4396
760.812	-0.4362
761.053	-0.434
761.293	-0.4378
761.533	-0.4393
761.774	-0.4387
762.014	-0.4446
762.254	-0.4441
762.494	-0.4412
762.734	-0.4416
762.974	-0.4419
763.214	-0.4392
763.454	-0.4423
763.694	-0.4418
763.933	-0.4392
764.173	-0.4434
764.413	-0.444
764.652	-0.4379
764.892	-0.4326
765.131	-0.4349
765.371	-0.4344
765.61	-0.4373
765.849	-0.4415
766.089	-0.4394
766.328	-0.4422
766.567	-0.444
766.806	-0.4452
767.045	-0.4444
767.284	-0.4453
767.523	-0.444
767.762	-0.4461
768.001	-0.4447
768.239	-0.4403
768.478	-0.4378
768.717	-0.4383
768.955	-0.44
769.194	-0.4379
769.432	-0.438
769.671	-0.4422
769.909	-0.4434
770.148	-0.4449
770.386	-0.4431
770.624	-0.4408
770.862	-0.4378
771.1	-0.4384
771.338	-0.4401
771.576	-0.4365
771.814	-0.4386
772.052	-0.4435
772.29	-0.4455
772.528	-0.4469
772.765	-0.4443
773.003	-0.4432
773.24	-0.4436
773.478	-0.4448
773.716	-0.4435
773.953	-0.4444
774.19	-0.4433
774.428	-0.4432
774.665	-0.4424
774.902	-0.4432
775.139	-0.4426
775.376	-0.4422
775.613	-0.4433
775.85	-0.4455
776.087	-0.446
776.324	-0.4459
776.561	-0.4449
776.798	-0.4435
777.034	-0.4413
777.271	-0.4424
777.508	-0.4415
777.744	-0.4432
777.981	-0.4443
778.217	-0.4451
778.454	-0.4454
778.69	-0.4452
778.926	-0.4435
779.162	-0.4439
779.399	-0.445
779.635	-0.4449
779.871	-0.4453
780.107	-0.4466
780.343	-0.4472
780.579	-0.4459
780.814	-0.4458
781.05	-0.4446
781.286	-0.4417
781.522	-0.4337
781.757	-0.4342
781.993	-0.4379
782.228	-0.4394
782.464	-0.4417
782.699	-0.441
782.934	-0.4402
783.17	-0.438
783.405	-0.4405
783.64	-0.4423
783.875	-0.4398
784.11	-0.4388
784.345	-0.4422
784.58	-0.4454
784.815	-0.4459
785.05	-0.4485
785.285	-0.4469
785.52	-0.4438
785.754	-0.4434
785.989	-0.445
786.223	-0.4428
786.458	-0.4398
786.692	-0.4405
786.927	-0.4407
787.161	-0.4445
787.396	-0.4438
787.63	-0.4414
787.864	-0.4397
788.098	-0.4383
788.332	-0.4377
788.566	-0.4359
788.8	-0.4333
789.034	-0.4345
789.268	-0.4325
789.502	-0.4348
789.736	-0.4393
789.969	-0.4412
790.203	-0.4421
790.437	-0.4425
790.67	-0.441
790.904	-0.4408
791.137	-0.4409
791.37	-0.4412
791.604	-0.4415
791.837	-0.4393
792.07	-0.4373
792.303	-0.4381
792.537	-0.4419
792.77	-0.4424
793.003	-0.4423
793.236	-0.442
793.469	-0.4382
793.701	-0.4379
793.934	-0.442
794.167	-0.4401
794.4	-0.433
794.632	-0.4264
794.865	-0.4295
795.097	-0.4368
795.33	-0.4399
795.562	-0.4364
795.795	-0.4349
796.027	-0.4413
796.259	-0.4446
796.491	-0.4464
796.724	-0.4466
796.956	-0.4478
797.188	-0.4484
797.42	-0.4488
797.652	-0.4481
797.883	-0.4458
798.115	-0.4426
798.347	-0.4424
798.579	-0.4444
798.81	-0.4463
799.042	-0.4455
799.274	-0.4434
799.505	-0.4409
799.737	-0.4415
799.968	-0.4421
800.199	-0.4429
800.431	-0.4422
800.662	-0.4427
800.893	-0.4425
801.124	-0.4426
801.355	-0.4428
801.586	-0.4406
801.817	-0.4425
802.048	-0.4435
802.279	-0.4436
802.51	-0.4453
802.741	-0.4458
802.971	-0.4463
803.202	-0.446
803.433	-0.4449
803.663	-0.4439
803.894	-0.4422
804.124	-0.4415
804.354	-0.4442
804.585	-0.4442
804.815	-0.4428
805.045	-0.443
805.275	-0.4428
805.506	-0.3837
805.736	-0.5592
805.966	-0.5266
806.196	-0.4695
