Data from 03 0.5 mM K2Cr2O7 0.2 mM BQDS 1 M H2SO4 5 min_Absorbance_0057.txt Node
Date: Thu Dec 09 20:31:44 EST 2021
User: kwabilab-user
Spectrometer: HDX00518
Trigger mode: 0
Integration Time (sec): 5.000000E-2
Scans to average: 50
Nonlinearity correction enabled: false
Boxcar width: 0
Storing dark spectrum: false
XAxis mode: Wavelengths
Number of Pixels in Spectrum: 2068
>>>>>Begin Spectral Data<<<<<
195.27	-0.0069
195.642	0.0064
196.014	0.0575
196.386	0.0787
196.758	-0.0454
197.129	-0.0229
197.501	0.0332
197.872	0.0515
198.244	0.0874
198.615	0.0903
198.986	0.0929
199.357	0.0855
199.728	0.0887
200.099	0.0818
200.47	0.0906
200.841	0.0787
201.212	0.0832
201.582	0.0841
201.953	0.0689
202.323	0.0861
202.694	0.0795
203.064	0.069
203.434	0.0815
203.804	0.0711
204.174	0.0842
204.544	0.076
204.914	0.0874
205.284	0.0981
205.653	0.096
206.023	0.0974
206.393	0.0953
206.762	0.0823
207.131	0.0958
207.501	0.0878
207.87	0.0868
208.239	0.0751
208.608	0.0873
208.977	0.0768
209.346	0.0947
209.715	0.0837
210.083	0.0944
210.452	0.0795
210.82	0.0804
211.189	0.0814
211.557	0.1173
211.925	0.1006
212.294	0.0971
212.662	0.1067
213.03	0.1171
213.398	0.1158
213.766	0.1294
214.133	0.1138
214.501	0.1377
214.869	0.1478
215.236	0.1384
215.604	0.1553
215.971	0.1596
216.338	0.185
216.705	0.1844
217.072	0.2297
217.439	0.2147
217.806	0.2486
218.173	0.2585
218.54	0.2908
218.907	0.3186
219.273	0.3458
219.64	0.3698
220.006	0.4075
220.373	0.4317
220.739	0.4605
221.105	0.5201
221.471	0.546
221.837	0.5998
222.203	0.6434
222.569	0.6694
222.935	0.713
223.3	0.7487
223.666	0.7818
224.031	0.8106
224.397	0.8367
224.762	0.8636
225.127	0.9061
225.493	0.9293
225.858	0.9486
226.223	0.9719
226.588	0.9884
226.952	0.9926
227.317	1.0233
227.682	1.0215
228.046	1.0259
228.411	1.0454
228.775	1.0526
229.14	1.0569
229.504	1.063
229.868	1.0704
230.232	1.0581
230.596	1.057
230.96	1.071
231.324	1.0585
231.688	1.0479
232.052	1.0513
232.415	1.0412
232.779	1.0442
233.142	1.0456
233.505	1.0382
233.869	1.0383
234.232	1.0262
234.595	1.0112
234.958	1.0077
235.321	0.9966
235.684	0.9864
236.047	0.9846
236.409	0.9763
236.772	0.9676
237.134	0.9639
237.497	0.955
237.859	0.9452
238.222	0.9401
238.584	0.9336
238.946	0.9279
239.308	0.9167
239.67	0.9071
240.032	0.9006
240.393	0.897
240.755	0.8897
241.117	0.8873
241.478	0.8806
241.84	0.874
242.201	0.8701
242.562	0.8678
242.924	0.8585
243.285	0.8534
243.646	0.8477
244.007	0.8447
244.368	0.8426
244.728	0.8359
245.089	0.8328
245.45	0.83
245.81	0.8277
246.171	0.8215
246.531	0.819
246.891	0.8198
247.252	0.8124
247.612	0.8096
247.972	0.8113
248.332	0.8091
248.692	0.8061
249.051	0.8044
249.411	0.8012
249.771	0.7961
250.13	0.7978
250.49	0.7968
250.849	0.7969
251.208	0.7967
251.568	0.7925
251.927	0.7953
252.286	0.7893
252.645	0.7904
253.004	0.7901
253.363	0.7884
253.721	0.7897
254.08	0.7897
254.439	0.7856
254.797	0.7855
255.155	0.7849
255.514	0.7848
255.872	0.7833
256.23	0.7823
256.588	0.7816
256.946	0.7836
257.304	0.7828
257.662	0.7814
258.02	0.7807
258.377	0.7785
258.735	0.7785
259.093	0.7768
259.45	0.7763
259.807	0.7768
260.165	0.7741
260.522	0.7757
260.879	0.7743
261.236	0.773
261.593	0.7717
261.95	0.7692
262.306	0.7693
262.663	0.768
263.02	0.7642
263.376	0.763
263.733	0.7649
264.089	0.7606
264.445	0.759
264.802	0.7603
265.158	0.7582
265.514	0.7571
265.87	0.7532
266.226	0.7508
266.581	0.7471
266.937	0.7486
267.293	0.7434
267.648	0.741
268.004	0.7411
268.359	0.7385
268.714	0.7364
269.07	0.7347
269.425	0.7321
269.78	0.7302
270.135	0.7257
270.49	0.7237
270.844	0.7197
271.199	0.7164
271.554	0.7136
271.908	0.7119
272.263	0.706
272.617	0.7029
272.972	0.6995
273.326	0.7006
273.68	0.694
274.034	0.6915
274.388	0.6884
274.742	0.6843
275.096	0.6813
275.45	0.6762
275.803	0.6723
276.157	0.6703
276.51	0.665
276.864	0.6604
277.217	0.6553
277.571	0.6513
277.924	0.6443
278.277	0.6445
278.63	0.637
278.983	0.6311
279.336	0.6282
279.688	0.6235
280.041	0.617
280.394	0.6125
280.746	0.6097
281.099	0.6043
281.451	0.5973
281.803	0.5914
282.156	0.5871
282.508	0.5816
282.86	0.5776
283.212	0.5722
283.564	0.5673
283.916	0.5619
284.267	0.5551
284.619	0.5483
284.971	0.5453
285.322	0.5388
285.673	0.5336
286.025	0.5256
286.376	0.5228
286.727	0.5167
287.078	0.5107
287.429	0.5049
287.78	0.4989
288.131	0.4935
288.482	0.4869
288.833	0.4809
289.183	0.4747
289.534	0.4691
289.884	0.463
290.235	0.4562
290.585	0.4501
290.935	0.4446
291.285	0.439
291.635	0.434
291.985	0.4267
292.335	0.4218
292.685	0.416
293.035	0.4088
293.384	0.4029
293.734	0.3973
294.083	0.3918
294.433	0.3869
294.782	0.3797
295.131	0.3743
295.48	0.3673
295.829	0.363
296.179	0.358
296.527	0.3523
296.876	0.3459
297.225	0.3391
297.574	0.3351
297.922	0.3302
298.271	0.3245
298.619	0.32
298.968	0.3153
299.316	0.3094
299.664	0.3052
300.012	0.2998
300.36	0.2956
300.708	0.2914
301.056	0.2869
301.404	0.2809
301.752	0.2772
302.099	0.2736
302.447	0.2688
302.794	0.2651
303.142	0.2622
303.489	0.2578
303.836	0.255
304.183	0.2502
304.531	0.2468
304.878	0.2439
305.224	0.2404
305.571	0.2375
305.918	0.2353
306.265	0.232
306.611	0.2295
306.958	0.2272
307.304	0.2242
307.651	0.2215
307.997	0.2199
308.343	0.2184
308.689	0.2157
309.035	0.2143
309.381	0.2128
309.727	0.2117
310.073	0.2095
310.419	0.2089
310.764	0.2066
311.11	0.2057
311.455	0.2048
311.801	0.2038
312.146	0.2033
312.491	0.2027
312.837	0.2023
313.182	0.2016
313.527	0.201
313.872	0.2007
314.216	0.2003
314.561	0.2001
314.906	0.2004
315.251	0.2004
315.595	0.2003
315.94	0.2006
316.284	0.2013
316.628	0.2014
316.972	0.2021
317.317	0.2024
317.661	0.2031
318.005	0.204
318.348	0.2048
318.692	0.206
319.036	0.2063
319.38	0.2077
319.723	0.2087
320.067	0.2095
320.41	0.211
320.754	0.2125
321.097	0.2134
321.44	0.2152
321.783	0.2167
322.126	0.2184
322.469	0.22
322.812	0.2214
323.155	0.223
323.498	0.2251
323.84	0.2269
324.183	0.2283
324.525	0.2309
324.868	0.2315
325.21	0.2346
325.552	0.236
325.894	0.238
326.236	0.2393
326.578	0.2421
326.92	0.244
327.262	0.2463
327.604	0.2481
327.946	0.2507
328.287	0.2522
328.629	0.254
328.97	0.2572
329.312	0.2584
329.653	0.2615
329.994	0.264
330.335	0.2662
330.676	0.269
331.017	0.2714
331.358	0.2741
331.699	0.2759
332.04	0.2778
332.38	0.2804
332.721	0.2834
333.061	0.2853
333.402	0.2872
333.742	0.289
334.083	0.292
334.423	0.2946
334.763	0.2962
335.103	0.2977
335.443	0.2996
335.783	0.3018
336.123	0.304
336.462	0.306
336.802	0.3067
337.141	0.3095
337.481	0.3112
337.82	0.3129
338.16	0.3144
338.499	0.3165
338.838	0.3195
339.177	0.3216
339.516	0.3224
339.855	0.3242
340.194	0.3265
340.533	0.3279
340.872	0.3297
341.21	0.331
341.549	0.3324
341.887	0.3338
342.226	0.3348
342.564	0.336
342.902	0.3362
343.24	0.3373
343.578	0.3386
343.916	0.3387
344.254	0.3391
344.592	0.3398
344.93	0.3408
345.268	0.3408
345.605	0.3411
345.943	0.342
346.28	0.3429
346.618	0.343
346.955	0.3429
347.292	0.3436
347.629	0.3435
347.966	0.3442
348.303	0.3448
348.64	0.3447
348.977	0.3455
349.314	0.3457
349.65	0.346
349.987	0.3454
350.324	0.3449
350.66	0.3448
350.996	0.3444
351.333	0.3442
351.669	0.3433
352.005	0.3416
352.341	0.3419
352.677	0.3405
353.013	0.3397
353.349	0.3379
353.685	0.3362
354.02	0.3357
354.356	0.334
354.691	0.3325
355.027	0.3327
355.362	0.3298
355.697	0.3293
356.033	0.3275
356.368	0.3261
356.703	0.3248
357.038	0.324
357.373	0.3229
357.707	0.3212
358.042	0.3204
358.377	0.3184
358.711	0.3164
359.046	0.3155
359.38	0.3143
359.715	0.3131
360.049	0.3112
360.383	0.3097
360.717	0.308
361.051	0.3054
361.385	0.3045
361.719	0.3019
362.053	0.2981
362.387	0.2961
362.72	0.295
363.054	0.2911
363.387	0.289
363.721	0.2866
364.054	0.2844
364.387	0.2813
364.721	0.2789
365.054	0.2764
365.387	0.2733
365.72	0.2708
366.053	0.2699
366.385	0.2673
366.718	0.2646
367.051	0.2633
367.383	0.2607
367.716	0.2584
368.048	0.2567
368.381	0.2543
368.713	0.2528
369.045	0.2508
369.377	0.2495
369.709	0.2475
370.041	0.2451
370.373	0.2433
370.705	0.2404
371.037	0.2386
371.368	0.2362
371.7	0.2343
372.031	0.2308
372.363	0.2289
372.694	0.2265
373.025	0.2234
373.356	0.2204
373.688	0.2179
374.019	0.2144
374.35	0.2116
374.68	0.2097
375.011	0.2065
375.342	0.2037
375.673	0.2005
376.003	0.1991
376.334	0.1957
376.664	0.1926
376.995	0.1909
377.325	0.1888
377.655	0.1864
377.985	0.1835
378.315	0.1818
378.645	0.1804
378.975	0.1784
379.305	0.1759
379.635	0.1741
379.964	0.1732
380.294	0.1709
380.623	0.1696
380.953	0.1662
381.282	0.1656
381.611	0.1635
381.941	0.1623
382.27	0.159
382.599	0.1577
382.928	0.1549
383.257	0.1531
383.585	0.1508
383.914	0.1493
384.243	0.1473
384.571	0.1443
384.9	0.1423
385.228	0.1398
385.557	0.1374
385.885	0.1352
386.213	0.1328
386.541	0.1304
386.869	0.1286
387.197	0.1262
387.525	0.123
387.853	0.122
388.181	0.1197
388.508	0.1176
388.836	0.1149
389.164	0.1135
389.491	0.1125
389.818	0.1107
390.146	0.1085
390.473	0.1066
390.8	0.1051
391.127	0.1033
391.454	0.1025
391.781	0.1007
392.108	0.0994
392.435	0.098
392.761	0.0966
393.088	0.0951
393.415	0.0943
393.741	0.0928
394.067	0.0919
394.394	0.0906
394.72	0.0894
395.046	0.0881
395.372	0.0868
395.698	0.0857
396.024	0.0846
396.35	0.0831
396.676	0.0815
397.001	0.0806
397.327	0.0787
397.653	0.0783
397.978	0.0763
398.303	0.0753
398.629	0.0744
398.954	0.0736
399.279	0.0732
399.604	0.0709
399.929	0.0699
400.254	0.0694
400.579	0.069
400.904	0.0674
401.229	0.0662
401.553	0.0659
401.878	0.0655
402.202	0.0636
402.527	0.0636
402.851	0.0625
403.175	0.0618
403.5	0.0614
403.824	0.0609
404.148	0.0604
404.472	0.0604
404.796	0.0598
405.119	0.0591
405.443	0.0586
405.767	0.0582
406.09	0.0584
406.414	0.0574
406.737	0.0572
407.061	0.0573
407.384	0.0572
407.707	0.0562
408.03	0.0562
408.353	0.056
408.676	0.0555
408.999	0.0556
409.322	0.0555
409.645	0.0554
409.968	0.0549
410.29	0.0549
410.613	0.0543
410.935	0.0543
411.258	0.0549
411.58	0.0543
411.902	0.0546
412.224	0.0549
412.546	0.054
412.868	0.0543
413.19	0.0538
413.512	0.0543
413.834	0.0535
414.156	0.0538
414.477	0.054
414.799	0.0535
415.121	0.054
415.442	0.0541
415.763	0.0538
416.085	0.0543
416.406	0.0538
416.727	0.0535
417.048	0.054
417.369	0.0538
417.69	0.0552
418.011	0.0543
418.331	0.0546
418.652	0.0549
418.973	0.0547
419.293	0.0545
419.614	0.0551
419.934	0.0554
420.254	0.0549
420.574	0.0556
420.895	0.0539
421.215	0.0545
421.535	0.0549
421.855	0.0551
422.174	0.0553
422.494	0.0549
422.814	0.0559
423.134	0.0553
423.453	0.0561
423.773	0.0565
424.092	0.0559
424.411	0.0557
424.731	0.0563
425.05	0.056
425.369	0.0563
425.688	0.0568
426.007	0.0572
426.326	0.0568
426.644	0.0568
426.963	0.0567
427.282	0.0569
427.6	0.0562
427.919	0.057
428.237	0.0579
428.556	0.0575
428.874	0.0574
429.192	0.0581
429.51	0.0566
429.828	0.0576
430.146	0.0573
430.464	0.0576
430.782	0.058
431.1	0.0583
431.418	0.0586
431.735	0.0583
432.053	0.0591
432.37	0.0585
432.688	0.0582
433.005	0.0585
433.322	0.0591
433.639	0.0582
433.957	0.059
434.274	0.0589
434.591	0.059
434.907	0.0594
435.224	0.0599
435.541	0.0596
435.858	0.0606
436.174	0.0602
436.491	0.0596
436.807	0.059
437.124	0.0602
437.44	0.0595
437.756	0.0592
438.072	0.0594
438.388	0.0591
438.704	0.059
439.02	0.0595
439.336	0.06
439.652	0.0599
439.968	0.0588
440.283	0.0596
440.599	0.0589
440.914	0.059
441.23	0.0592
441.545	0.0584
441.86	0.0585
442.175	0.0591
442.491	0.059
442.806	0.0592
443.121	0.06
443.435	0.0593
443.75	0.0595
444.065	0.0596
444.38	0.0595
444.694	0.0591
445.009	0.0589
445.323	0.059
445.638	0.059
445.952	0.0587
446.266	0.0589
446.58	0.0578
446.894	0.0589
447.208	0.0585
447.522	0.058
447.836	0.0576
448.15	0.0575
448.464	0.0576
448.777	0.0576
449.091	0.0568
449.404	0.0568
449.718	0.0575
450.031	0.0571
450.345	0.057
450.658	0.0568
450.971	0.0574
451.284	0.0568
451.597	0.0573
451.91	0.0569
452.223	0.0562
452.535	0.0571
452.848	0.0569
453.161	0.0572
453.473	0.0565
453.786	0.0569
454.098	0.0558
454.411	0.0563
454.723	0.0558
455.035	0.0553
455.347	0.0549
455.659	0.0546
455.971	0.0541
456.283	0.0538
456.595	0.0541
456.907	0.0543
457.218	0.0547
457.53	0.0539
457.841	0.0532
458.153	0.0535
458.464	0.053
458.776	0.0539
459.087	0.0527
459.398	0.0527
459.709	0.0515
460.02	0.053
460.331	0.0524
460.642	0.0511
460.953	0.0526
461.263	0.0514
461.574	0.0507
461.885	0.0519
462.195	0.0512
462.506	0.0505
462.816	0.0508
463.126	0.0505
463.437	0.0501
463.747	0.0501
464.057	0.05
464.367	0.0503
464.677	0.0491
464.987	0.0491
465.296	0.0492
465.606	0.0486
465.916	0.048
466.225	0.0486
466.535	0.0477
466.844	0.0473
467.154	0.0472
467.463	0.0474
467.772	0.046
468.081	0.0471
468.39	0.0466
468.699	0.0462
469.008	0.0456
469.317	0.0463
469.626	0.0456
469.935	0.0451
470.243	0.045
470.552	0.0443
470.86	0.0436
471.169	0.0431
471.477	0.0429
471.785	0.043
472.093	0.0433
472.402	0.0422
472.71	0.0425
473.018	0.043
473.326	0.0419
473.633	0.0409
473.941	0.0399
474.249	0.041
474.556	0.0407
474.864	0.0396
475.171	0.0395
475.479	0.0399
475.786	0.039
476.094	0.0385
476.401	0.0395
476.708	0.0385
477.015	0.0388
477.322	0.0384
477.629	0.0379
477.936	0.038
478.242	0.038
478.549	0.0375
478.856	0.0366
479.162	0.037
479.469	0.0366
479.775	0.0354
480.081	0.0361
480.388	0.0345
480.694	0.0361
481	0.0346
481.306	0.0356
481.612	0.035
481.918	0.0348
482.224	0.0343
482.53	0.0331
482.835	0.0334
483.141	0.0335
483.446	0.0329
483.752	0.0326
484.057	0.0321
484.363	0.0327
484.668	0.0312
484.973	0.0315
485.278	0.0314
485.583	0.0302
485.888	0.0296
486.193	0.0294
486.498	0.0303
486.803	0.0306
487.107	0.0287
487.412	0.0286
487.717	0.028
488.021	0.0282
488.325	0.0278
488.63	0.0284
488.934	0.0279
489.238	0.0274
489.542	0.0275
489.846	0.0271
490.15	0.026
490.454	0.0258
490.758	0.0256
491.062	0.0256
491.366	0.0253
491.669	0.0242
491.973	0.0246
492.276	0.0254
492.58	0.0245
492.883	0.0241
493.186	0.0237
493.489	0.0237
493.792	0.0233
494.096	0.0232
494.399	0.0231
494.701	0.0228
495.004	0.0226
495.307	0.0227
495.61	0.0221
495.912	0.0211
496.215	0.0216
496.517	0.0213
496.82	0.0214
497.122	0.0213
497.424	0.0203
497.727	0.0197
498.029	0.0208
498.331	0.0199
498.633	0.0205
498.935	0.0196
499.237	0.0192
499.538	0.0192
499.84	0.0192
500.142	0.019
500.443	0.0187
500.745	0.0186
501.046	0.0182
501.348	0.0181
501.649	0.0185
501.95	0.0179
502.251	0.0169
502.552	0.0173
502.853	0.0173
503.154	0.0168
503.455	0.0164
503.756	0.0153
504.057	0.0159
504.357	0.0162
504.658	0.0159
504.958	0.0149
505.259	0.0155
505.559	0.0158
505.859	0.0146
506.16	0.0145
506.46	0.0137
506.76	0.0145
507.06	0.014
507.36	0.0146
507.66	0.0147
507.96	0.0129
508.259	0.0121
508.559	0.0136
508.859	0.012
509.158	0.0132
509.457	0.0135
509.757	0.0118
510.056	0.0123
510.355	0.0128
510.655	0.0117
510.954	0.0121
511.253	0.0119
511.552	0.0107
511.851	0.0104
512.149	0.0102
512.448	0.0102
512.747	0.0104
513.045	0.0098
513.344	0.0097
513.642	0.0112
513.941	0.0096
514.239	0.0105
514.537	0.0107
514.836	0.0105
515.134	0.0095
515.432	0.0097
515.73	0.0091
516.028	0.009
516.326	0.0088
516.623	0.0089
516.921	0.0089
517.219	0.0092
517.516	0.0098
517.814	0.0088
518.111	0.0089
518.409	0.0079
518.706	0.0093
519.003	0.0077
519.3	0.0089
519.597	0.0083
519.894	0.0075
520.191	0.0075
520.488	0.0083
520.785	0.0077
521.082	0.0067
521.378	0.0071
521.675	0.0074
521.971	0.0062
522.268	0.0076
522.564	0.0066
522.861	0.006
523.157	0.0057
523.453	0.0069
523.749	0.0055
524.045	0.0048
524.341	0.0061
524.637	0.0059
524.933	0.0054
525.229	0.0054
525.524	0.0056
525.82	0.0047
526.115	0.0047
526.411	0.0051
526.706	0.0036
527.002	0.0039
527.297	0.004
527.592	0.0049
527.887	0.004
528.182	0.003
528.477	0.0044
528.772	0.0028
529.067	0.0034
529.362	0.0032
529.657	0.0043
529.951	0.0033
530.246	0.0053
530.54	0.0032
530.835	0.0041
531.129	0.0059
531.423	0.0043
531.718	0.0038
532.012	0.0032
532.306	0.0035
532.6	0.0043
532.894	0.0036
533.188	0.0023
533.482	0.0039
533.775	0.0041
534.069	0.0039
534.363	0.0023
534.656	0.0025
534.95	0.0028
535.243	0.0025
535.536	0.0022
535.83	0.0023
536.123	0.0031
536.416	0.003
536.709	0.0026
537.002	0.0028
537.295	0.0018
537.588	0.0017
537.881	0.0016
538.173	0.0021
538.466	0.0024
538.759	0.001
539.051	0.0016
539.344	0.0021
539.636	0.0014
539.928	0.0019
540.22	0.0015
540.513	0.0017
540.805	0.0017
541.097	0.0014
541.389	0.0015
541.681	0.0024
541.972	0.0022
542.264	0.002
542.556	0.0022
542.847	0.0008
543.139	0.0012
543.431	0.002
543.722	0.0016
544.013	0.0002
544.305	0.0026
544.596	0.0007
544.887	0.0013
545.178	0.0002
545.469	0.0004
545.76	0.002
546.051	0.0005
546.342	0.0002
546.632	0.002
546.923	0.0008
547.214	0.0001
547.504	0.001
547.795	0.0009
548.085	0.0008
548.375	0.0001
548.666	0.0001
548.956	0.0023
549.246	-0.0003
549.536	0.0016
549.826	0.0009
550.116	0.0009
550.406	0.0012
550.695	0.0021
550.985	0.0006
551.275	0.0008
551.564	0.0012
551.854	0.0008
552.143	0.0003
552.433	0.0005
552.722	-0.0002
553.011	-0
553.3	0.0006
553.589	0.001
553.879	-0.0002
554.167	0.0007
554.456	-0.0002
554.745	0.0013
555.034	-0
555.323	-0.0018
555.611	-0
555.9	0
556.188	-0.0004
556.477	0.0006
556.765	0.0005
557.053	0.0007
557.342	0.0001
557.63	-0.0005
557.918	0.0005
558.206	0.0008
558.494	0.0013
558.782	0.0007
559.069	0.0009
559.357	0.0009
559.645	0.0017
559.932	0.0002
560.22	0.0013
560.507	0.0002
560.795	0.0011
561.082	0.0001
561.37	-0.0001
561.657	0.0005
561.944	0.0003
562.231	-0.0006
562.518	-0.0001
562.805	-0.0011
563.092	-0.0004
563.379	-0.0006
563.665	-0.0007
563.952	0.0004
564.239	0.001
564.525	0.0005
564.811	0.0009
565.098	0.0005
565.384	0.0019
565.67	0.0009
565.957	0.0023
566.243	0.0005
566.529	0.0013
566.815	0.0003
567.101	0
567.387	0.0009
567.672	-0.0012
567.958	0.0001
568.244	-0.0005
568.529	0.0006
568.815	-0.0001
569.1	0.0006
569.386	0.001
569.671	0.0017
569.956	0.0011
570.242	0.0016
570.527	0.0014
570.812	0.0018
571.097	0.001
571.382	0.0023
571.666	0.0022
571.951	0.0017
572.236	0.0016
572.521	0.0023
572.805	0.0021
573.09	0.0006
573.374	0.0003
573.659	0.0015
573.943	0.002
574.227	0.002
574.511	0.0016
574.795	0.0021
575.079	0.0023
575.363	0.0001
575.647	0.001
575.931	0.0013
576.215	0.0003
576.499	-0.0002
576.782	0.0016
577.066	0.0003
577.349	0.0006
577.633	0.001
577.916	0.0004
578.2	0.0012
578.483	0.0022
578.766	0.002
579.049	0.002
579.332	0.0021
579.615	0.0008
579.898	0.0008
580.181	0.0018
580.464	0.0014
580.746	0.0008
581.029	0.0022
581.312	0.0008
581.594	0.0009
581.877	0.0026
582.159	0.0026
582.441	0.0019
582.724	0.0013
583.006	0.002
583.288	0.0007
583.57	0.0023
583.852	0
584.134	-0
584.416	0.0002
584.697	0.0011
584.979	0.0003
585.261	0.0004
585.542	0.0019
585.824	0.001
586.105	0.0012
586.387	0.0016
586.668	0.001
586.949	0
587.231	0.0006
587.512	0.0007
587.793	0.0014
588.074	0.0016
588.355	0.001
588.636	0.0006
588.916	0.0011
589.197	0.0019
589.478	0.0003
589.758	0.0004
590.039	-0
590.319	0.0005
590.6	0.0006
590.88	0.0006
591.16	0.0003
591.441	-0.0005
591.721	0.0004
592.001	-0.0002
592.281	-0.0001
592.561	0.0007
592.841	-0.0008
593.12	0.0009
593.4	0.0006
593.68	0.0005
593.959	0.001
594.239	0.0022
594.518	0.0021
594.798	0.0011
595.077	0.0011
595.356	0.0005
595.636	0.0003
595.915	0.0007
596.194	0.0009
596.473	-0.0004
596.752	-0.0004
597.031	-0.0007
597.31	-0.0004
597.588	0.0011
597.867	-0.0002
598.146	0.0005
598.424	0.0005
598.703	-0.0007
598.981	0.0003
599.259	0
599.538	0.001
599.816	0.0006
600.094	-0.0004
600.372	0.0008
600.65	0.0005
600.928	0.0007
601.206	-0.0013
601.484	-0.0005
601.762	-0.0011
602.04	-0.002
602.317	-0.0011
602.595	0.0001
602.872	-0.0013
603.15	-0.0009
603.427	-0.0007
603.704	0.0006
603.982	0.0018
604.259	-0
604.536	0.0006
604.813	-0.0003
605.09	0.0001
605.367	-0.0006
605.644	-0.0003
605.921	-0.0014
606.197	-0.002
606.474	0.0001
606.751	-0.0002
607.027	-0.0012
607.304	-0.0008
607.58	-0.0008
607.856	-0.0001
608.133	0.0002
608.409	-0.0009
608.685	-0.0011
608.961	-0.0015
609.237	-0.0008
609.513	-0.0008
609.789	-0.0015
610.065	-0.0014
610.341	-0.0013
610.616	-0.0001
610.892	-0.0006
611.167	-0.0008
611.443	-0.0005
611.718	-0.0003
611.994	-0.0002
612.269	0.0004
612.544	-0.0007
612.819	-0.0005
613.095	-0.0002
613.37	-0.0003
613.645	0.0003
613.919	0.0005
614.194	0.0008
614.469	0.0005
614.744	-0.0005
615.019	0.0004
615.293	0.0002
615.568	-0.0009
615.842	-0.0012
616.116	-0.001
616.391	-0.0023
616.665	-0.0026
616.939	-0.0018
617.213	-0.0018
617.488	-0.0011
617.762	-0.0021
618.035	-0.0026
618.309	-0.0027
618.583	-0.0015
618.857	-0.002
619.131	-0.002
619.404	-0.0024
619.678	-0.0019
619.951	-0.0023
620.225	-0.0013
620.498	-0.001
620.771	-0.0018
621.045	-0.0013
621.318	-0.0022
621.591	-0.0028
621.864	-0.0021
622.137	-0.0007
622.41	-0.0006
622.683	-0.0001
622.956	-0.0022
623.228	-0.0021
623.501	-0.001
623.774	-0.0026
624.046	-0.002
624.319	-0.0021
624.591	-0.0029
624.863	-0.0025
625.136	-0.0023
625.408	-0.003
625.68	-0.0028
625.952	-0.0024
626.224	-0.0029
626.496	-0.004
626.768	-0.0024
627.04	-0.0035
627.311	-0.004
627.583	-0.0034
627.855	-0.002
628.126	-0.0029
628.398	-0.0032
628.669	-0.0052
628.941	-0.0033
629.212	-0.0029
629.483	-0.002
629.755	-0.0038
630.026	-0.0029
630.297	-0.0025
630.568	-0.0035
630.839	-0.0025
631.11	-0.0038
631.38	-0.0039
631.651	-0.0042
631.922	-0.0042
632.192	-0.0039
632.463	-0.0039
632.733	-0.0041
633.004	-0.004
633.274	-0.0031
633.545	-0.0044
633.815	-0.0027
634.085	-0.0034
634.355	-0.0035
634.625	-0.0032
634.895	-0.0023
635.165	-0.0035
635.435	-0.0034
635.705	-0.0039
635.974	-0.0052
636.244	-0.0043
636.514	-0.0024
636.783	-0.0032
637.053	-0.0017
637.322	-0.0019
637.591	-0.0026
637.861	-0.0036
638.13	-0.0033
638.399	-0.0026
638.668	-0.0022
638.937	-0.0038
639.206	-0.0014
639.475	-0.0028
639.744	-0.0037
640.013	-0.0022
640.281	-0.0018
640.55	-0.0028
640.819	-0.0018
641.087	-0.0023
641.356	-0.0025
641.624	-0.0029
641.892	-0.0028
642.161	-0.0032
642.429	-0.003
642.697	-0.0036
642.965	-0.0036
643.233	-0.0041
643.501	-0.0033
643.769	-0.0045
644.037	-0.0033
644.305	-0.004
644.572	-0.004
644.84	-0.0052
645.108	-0.0053
645.375	-0.0067
645.643	-0.0069
645.91	-0.0064
646.177	-0.006
646.445	-0.0079
646.712	-0.0072
646.979	-0.0056
647.246	-0.0059
647.513	-0.0039
647.78	-0.0042
648.047	-0.0032
648.314	-0.0036
648.58	-0.0026
648.847	-0.0023
649.114	-0.0042
649.38	-0.0043
649.647	-0.004
649.913	-0.0037
650.18	-0.0055
650.446	-0.0057
650.712	-0.0058
650.978	-0.0054
651.245	-0.0056
651.511	-0.004
651.777	-0.0043
652.043	-0.0033
652.309	-0.0041
652.574	-0.0044
652.84	-0.0054
653.106	-0.0053
653.371	-0.0056
653.637	-0.0064
653.903	-0.0049
654.168	-0.0057
654.433	-0.004
654.699	-0.0028
654.964	-0.0036
655.229	-0.0042
655.494	-0.0035
655.759	-0.0052
656.024	0.0006
656.289	-0
656.554	0.0064
656.819	-0.0002
657.084	-0.0041
657.349	-0.0048
657.613	-0.0042
657.878	-0.0043
658.142	-0.004
658.407	-0.0039
658.671	-0.0041
658.936	-0.0028
659.2	-0.0035
659.464	-0.0024
659.728	-0.0041
659.992	-0.0039
660.256	-0.0044
660.52	-0.0047
660.784	-0.0042
661.048	-0.0045
661.312	-0.0045
661.575	-0.0055
661.839	-0.0049
662.103	-0.0044
662.366	-0.0055
662.63	-0.0054
662.893	-0.0042
663.156	-0.0046
663.42	-0.0036
663.683	-0.0046
663.946	-0.0047
664.209	-0.0037
664.472	-0.0027
664.735	-0.0028
664.998	-0.0028
665.261	-0.0037
665.524	-0.0044
665.786	-0.0039
666.049	-0.003
666.312	-0.0031
666.574	-0.0023
666.837	-0.0038
667.099	-0.0034
667.361	-0.0042
667.624	-0.0049
667.886	-0.0045
668.148	-0.0044
668.41	-0.0038
668.672	-0.0042
668.934	-0.0038
669.196	-0.0031
669.458	-0.0033
669.72	-0.0029
669.982	-0.0024
670.243	-0.0029
670.505	-0.0036
670.766	-0.004
671.028	-0.0042
671.289	-0.0037
671.551	-0.0042
671.812	-0.004
672.073	-0.0026
672.334	-0.0033
672.596	-0.0017
672.857	-0.0019
673.118	-0.0021
673.379	-0.0022
673.639	-0.0027
673.9	-0.0036
674.161	-0.004
674.422	-0.0041
674.682	-0.0044
674.943	-0.0033
675.203	-0.0037
675.464	-0.004
675.724	-0.0035
675.985	-0.0027
676.245	-0.0033
676.505	-0.0044
676.765	-0.0038
677.025	-0.0039
677.285	-0.0048
677.545	-0.005
677.805	-0.0047
678.065	-0.0037
678.325	-0.0028
678.585	-0.0034
678.844	-0.0025
679.104	-0.0024
679.363	-0.004
679.623	-0.0039
679.882	-0.0031
680.142	-0.0028
680.401	-0.0035
680.66	-0.0039
680.919	-0.0041
681.178	-0.0042
681.437	-0.0039
681.696	-0.0039
681.955	-0.0022
682.214	-0.0022
682.473	-0.0024
682.732	-0.0024
682.99	-0.0045
683.249	-0.0043
683.508	-0.0043
683.766	-0.0038
684.024	-0.0028
684.283	-0.0041
684.541	-0.0036
684.799	-0.0034
685.058	-0.0032
685.316	-0.0038
685.574	-0.0032
685.832	-0.0032
686.09	-0.0036
686.348	-0.0045
686.606	-0.0049
686.863	-0.0057
687.121	-0.0052
687.379	-0.0056
687.636	-0.0052
687.894	-0.0042
688.151	-0.005
688.409	-0.0056
688.666	-0.0057
688.923	-0.006
689.181	-0.0052
689.438	-0.0045
689.695	-0.0031
689.952	-0.0019
690.209	-0.0027
690.466	-0.0025
690.723	-0.0045
690.979	-0.0048
691.236	-0.0054
691.493	-0.0041
691.75	-0.0046
692.006	-0.0037
692.263	-0.0046
692.519	-0.0046
692.775	-0.0046
693.032	-0.0045
693.288	-0.0046
693.544	-0.0048
693.8	-0.0048
694.056	-0.0055
694.313	-0.0059
694.568	-0.0051
694.824	-0.0062
695.08	-0.0053
695.336	-0.0044
695.592	-0.0055
695.847	-0.0043
696.103	-0.0071
696.359	-0.006
696.614	-0.0057
696.869	-0.0059
697.125	-0.0064
697.38	-0.0031
697.635	-0.0045
697.891	-0.0053
698.146	-0.006
698.401	-0.007
698.656	-0.0071
698.911	-0.0069
699.166	-0.0086
699.42	-0.0084
699.675	-0.0078
699.93	-0.0071
700.185	-0.0054
700.439	-0.0049
700.694	-0.0042
700.948	-0.0053
701.203	-0.0055
701.457	-0.0053
701.711	-0.0065
701.965	-0.0061
702.22	-0.005
702.474	-0.0039
702.728	-0.0043
702.982	-0.0024
703.236	-0.0042
703.49	-0.0042
703.743	-0.005
703.997	-0.0055
704.251	-0.0054
704.504	-0.0059
704.758	-0.0044
705.012	-0.006
705.265	-0.0054
705.518	-0.006
705.772	-0.0056
706.025	-0.0055
706.278	-0.0061
706.531	-0.0055
706.785	-0.0061
707.038	-0.0055
707.291	-0.004
707.543	-0.0055
707.796	-0.0043
708.049	-0.0054
708.302	-0.0042
708.555	-0.0042
708.807	-0.0028
709.06	-0.0038
709.312	-0.0032
709.565	-0.0051
709.817	-0.0055
710.069	-0.0051
710.322	-0.0061
710.574	-0.0061
710.826	-0.0045
711.078	-0.0031
711.33	-0.0025
711.582	-0.0024
711.834	-0.0041
712.086	-0.0041
712.338	-0.0045
712.59	-0.0053
712.841	-0.0063
713.093	-0.0039
713.344	-0.0067
713.596	-0.0062
713.847	-0.0055
714.099	-0.0045
714.35	-0.006
714.601	-0.0066
714.853	-0.0067
715.104	-0.0071
715.355	-0.0075
715.606	-0.0054
715.857	-0.0059
716.108	-0.0061
716.359	-0.0072
716.609	-0.0071
716.86	-0.0075
717.111	-0.0074
717.361	-0.0077
717.612	-0.0077
717.863	-0.0074
718.113	-0.0081
718.363	-0.0088
718.614	-0.0069
718.864	-0.0075
719.114	-0.0082
719.364	-0.0078
719.614	-0.0075
719.865	-0.0081
720.114	-0.0091
720.364	-0.0086
720.614	-0.0086
720.864	-0.0078
721.114	-0.0054
721.364	-0.0061
721.613	-0.0055
721.863	-0.005
722.112	-0.0051
722.362	-0.0061
722.611	-0.0059
722.86	-0.0073
723.11	-0.0077
723.359	-0.0076
723.608	-0.0066
723.857	-0.0069
724.106	-0.007
724.355	-0.0059
724.604	-0.0055
724.853	-0.0069
725.102	-0.0066
725.351	-0.0056
725.599	-0.0063
725.848	-0.0045
726.097	-0.0041
726.345	-0.0034
726.594	-0.0027
726.842	-0.004
727.09	-0.005
727.339	-0.006
727.587	-0.0059
727.835	-0.0077
728.083	-0.0061
728.331	-0.0073
728.579	-0.0058
728.827	-0.0043
729.075	-0.0053
729.323	-0.0037
729.571	-0.0026
729.818	-0.0027
730.066	-0.003
730.314	-0.0037
730.561	-0.0049
730.809	-0.0075
731.056	-0.0057
731.303	-0.003
731.551	-0.0054
731.798	-0.0066
732.045	-0.0037
732.292	-0.0044
732.539	-0.0058
732.786	-0.0057
733.033	-0.0047
733.28	-0.0044
733.527	-0.0049
733.774	-0.0057
734.021	-0.0044
734.267	-0.0044
734.514	-0.0042
734.76	-0.0031
735.007	-0.0048
735.253	-0.0062
735.5	-0.005
735.746	-0.0043
735.992	-0.0034
736.238	-0.0047
736.485	-0.0057
736.731	-0.007
736.977	-0.0074
737.223	-0.0062
737.469	-0.0072
737.715	-0.0062
737.96	-0.0059
738.206	-0.0045
738.452	-0.003
738.697	-0.0035
738.943	-0.003
739.189	-0.0038
739.434	-0.0028
739.679	-0.0028
739.925	-0.003
740.17	-0.0044
740.415	-0.0048
740.66	-0.0042
740.906	-0.0042
741.151	-0.0043
741.396	-0.0043
741.641	-0.0048
741.886	-0.0059
742.13	-0.0055
742.375	-0.0045
742.62	-0.0069
742.865	-0.0047
743.109	-0.0054
743.354	-0.0059
743.598	-0.0059
743.843	-0.0052
744.087	-0.0049
744.331	-0.0049
744.576	-0.0042
744.82	-0.007
745.064	-0.0057
745.308	-0.0061
745.552	-0.007
745.796	-0.0059
746.04	-0.005
746.284	-0.0063
746.528	-0.0056
746.771	-0.0069
747.015	-0.0066
747.259	-0.0069
747.502	-0.0056
747.746	-0.0056
747.989	-0.0068
748.233	-0.0076
748.476	-0.0066
748.719	-0.0074
748.963	-0.0068
749.206	-0.0067
749.449	-0.0063
749.692	-0.0043
749.935	-0.0044
750.178	-0.0058
750.421	-0.0064
750.664	-0.0077
750.906	-0.0087
751.149	-0.008
751.392	-0.0092
751.635	-0.0075
751.877	-0.0068
752.12	-0.0075
752.362	-0.0074
752.604	-0.008
752.847	-0.007
753.089	-0.0061
753.331	-0.0071
753.573	-0.0066
753.816	-0.0051
754.058	-0.0057
754.3	-0.0058
754.542	-0.0072
754.783	-0.0065
755.025	-0.0069
755.267	-0.0081
755.509	-0.0087
755.75	-0.0088
755.992	-0.0075
756.234	-0.0079
756.475	-0.0075
756.716	-0.0061
756.958	-0.0044
757.199	-0.0035
757.44	-0.007
757.682	-0.0071
757.923	-0.0044
758.164	-0.006
758.405	-0.0058
758.646	-0.0055
758.887	-0.0057
759.128	-0.0076
759.369	-0.0078
759.609	-0.0068
759.85	-0.007
760.091	-0.006
760.331	-0.0076
760.572	-0.0067
760.812	-0.0066
761.053	-0.0046
761.293	-0.0046
761.533	-0.0043
761.774	-0.0034
762.014	-0.0046
762.254	-0.005
762.494	-0.0044
762.734	-0.006
762.974	-0.0061
763.214	-0.0045
763.454	-0.0069
763.694	-0.0057
763.933	-0.0046
764.173	-0.0045
764.413	-0.0051
764.652	-0.0046
764.892	-0.0052
765.131	-0.0053
765.371	-0.0052
765.61	-0.0057
765.849	-0.0075
766.089	-0.0068
766.328	-0.0068
766.567	-0.0062
766.806	-0.0069
767.045	-0.0048
767.284	-0.0047
767.523	-0.0045
767.762	-0.0057
768.001	-0.0055
768.239	-0.0047
768.478	-0.0045
768.717	-0.0048
768.955	-0.005
769.194	-0.0045
769.432	-0.0046
769.671	-0.0054
769.909	-0.0042
770.148	-0.0055
770.386	-0.0036
770.624	-0.0046
770.862	-0.0037
771.1	-0.0039
771.338	-0.0045
771.576	-0.003
771.814	-0.0043
772.052	-0.0054
772.29	-0.0058
772.528	-0.0062
772.765	-0.0045
773.003	-0.0047
773.24	-0.0044
773.478	-0.0031
773.716	-0.0024
773.953	-0.0029
774.19	-0.0021
774.428	-0.0026
774.665	-0.0016
774.902	-0.0018
775.139	-0.0017
775.376	-0.003
775.613	-0.0023
775.85	-0.0024
776.087	-0.0019
776.324	-0.0022
776.561	-0.0017
776.798	-0.0012
777.034	0.0007
777.271	-0.0017
777.508	-0.001
777.744	-0.0016
777.981	-0.0023
778.217	-0.0028
778.454	-0.0033
778.69	-0.0035
778.926	-0.0042
779.162	-0.0053
779.399	-0.0073
779.635	-0.0076
779.871	-0.0081
780.107	-0.0072
780.343	-0.0074
780.579	-0.0061
780.814	-0.0061
781.05	-0.0061
781.286	-0.0061
781.522	-0.0035
781.757	-0.0031
781.993	-0.0029
782.228	-0.003
782.464	-0.0032
782.699	-0.0038
782.934	-0.0043
783.17	-0.003
783.405	-0.0038
783.64	-0.0039
783.875	-0.0031
784.11	-0.0025
784.345	-0.0029
784.58	-0.0033
784.815	-0.0027
785.05	-0.0046
785.285	-0.0038
785.52	-0.0036
785.754	-0.0039
785.989	-0.0051
786.223	-0.0035
786.458	-0.003
786.692	-0.0036
786.927	-0.0034
787.161	-0.0042
787.396	-0.0041
787.63	-0.0022
787.864	-0.0032
788.098	-0.0024
788.332	-0.0036
788.566	-0.0032
788.8	-0.003
789.034	-0.0028
789.268	-0.0021
789.502	-0.0016
789.736	-0.0018
789.969	-0.0018
790.203	-0.0028
790.437	-0.0032
790.67	-0.0036
790.904	-0.004
791.137	-0.0042
791.37	-0.0047
791.604	-0.0046
791.837	-0.0051
792.07	-0.0047
792.303	-0.005
792.537	-0.006
792.77	-0.0068
793.003	-0.0064
793.236	-0.0062
793.469	-0.0042
793.701	-0.0054
793.934	-0.0063
794.167	-0.0059
794.4	-0.0049
794.632	-0.0036
794.865	-0.0052
795.097	-0.0056
795.33	-0.0061
795.562	-0.0048
795.795	-0.0048
796.027	-0.0065
796.259	-0.006
796.491	-0.0075
796.724	-0.0068
796.956	-0.0063
797.188	-0.0055
797.42	-0.0056
797.652	-0.0048
797.883	-0.0055
798.115	-0.0052
798.347	-0.0061
798.579	-0.0063
798.81	-0.0072
799.042	-0.0072
799.274	-0.0066
799.505	-0.0052
799.737	-0.0049
799.968	-0.0045
800.199	-0.0035
800.431	-0.0022
800.662	-0.0028
800.893	-0.0025
801.124	-0.0024
801.355	-0.0036
801.586	-0.0015
801.817	-0.004
802.048	-0.0036
802.279	-0.0051
802.51	-0.0062
802.741	-0.0051
802.971	-0.0057
803.202	-0.0064
803.433	-0.0061
803.663	-0.006
803.894	-0.0052
804.124	-0.0055
804.354	-0.006
804.585	-0.0059
804.815	-0.0058
805.045	-0.0069
805.275	-0.006
805.506	-0.0176
805.736	-0.044
805.966	0.1421
806.196	0.0665
