Data from 03 0.5 mM K2Cr2O7 0.2 mM BQDS 1 M H2SO4 5 min_Absorbance_0076.txt Node
Date: Thu Dec 09 22:06:44 EST 2021
User: kwabilab-user
Spectrometer: HDX00518
Trigger mode: 0
Integration Time (sec): 5.000000E-2
Scans to average: 50
Nonlinearity correction enabled: false
Boxcar width: 0
Storing dark spectrum: false
XAxis mode: Wavelengths
Number of Pixels in Spectrum: 2068
>>>>>Begin Spectral Data<<<<<
195.27	0.2686
195.642	0.1721
196.014	0.1944
196.386	0.4795
196.758	0.0449
197.129	0.0098
197.501	0.0676
197.872	0.0894
198.244	0.1291
198.615	0.1323
198.986	0.1122
199.357	0.1204
199.728	0.1185
200.099	0.1205
200.47	0.1302
200.841	0.1207
201.212	0.1105
201.582	0.1345
201.953	0.0977
202.323	0.1198
202.694	0.1214
203.064	0.1271
203.434	0.1409
203.804	0.1301
204.174	0.1168
204.544	0.1222
204.914	0.1308
205.284	0.1341
205.653	0.1195
206.023	0.1315
206.393	0.1351
206.762	0.1224
207.131	0.1359
207.501	0.1295
207.87	0.1295
208.239	0.1201
208.608	0.1433
208.977	0.1167
209.346	0.1459
209.715	0.1409
210.083	0.1572
210.452	0.1458
210.82	0.1472
211.189	0.1292
211.557	0.1349
211.925	0.1426
212.294	0.1538
212.662	0.1639
213.03	0.1623
213.398	0.1445
213.766	0.1786
214.133	0.1893
214.501	0.1871
214.869	0.1878
215.236	0.1914
215.604	0.1895
215.971	0.2272
216.338	0.2455
216.705	0.2282
217.072	0.2736
217.439	0.2673
217.806	0.3085
218.173	0.3263
218.54	0.3423
218.907	0.3755
219.273	0.4132
219.64	0.4169
220.006	0.4691
220.373	0.4909
220.739	0.5142
221.105	0.5549
221.471	0.5863
221.837	0.6486
222.203	0.6751
222.569	0.7319
222.935	0.7563
223.3	0.7844
223.666	0.8297
224.031	0.8624
224.397	0.8763
224.762	0.9047
225.127	0.9498
225.493	0.9573
225.858	0.9842
226.223	0.9988
226.588	1.0356
226.952	1.0368
227.317	1.0622
227.682	1.0674
228.046	1.0672
228.411	1.0885
228.775	1.0793
229.14	1.0913
229.504	1.0934
229.868	1.0837
230.232	1.1017
230.596	1.0966
230.96	1.1042
231.324	1.0866
231.688	1.0725
232.052	1.0843
232.415	1.0671
232.779	1.0648
233.142	1.0607
233.505	1.0624
233.869	1.0489
234.232	1.0405
234.595	1.0258
234.958	1.0242
235.321	1.0134
235.684	1.0044
236.047	0.9877
236.409	0.9806
236.772	0.9841
237.134	0.9743
237.497	0.9632
237.859	0.9605
238.222	0.9489
238.584	0.9447
238.946	0.9299
239.308	0.9238
239.67	0.9175
240.032	0.91
240.393	0.9073
240.755	0.8998
241.117	0.8962
241.478	0.8857
241.84	0.8842
242.201	0.8715
242.562	0.8682
242.924	0.8615
243.285	0.8558
243.646	0.8539
244.007	0.8486
244.368	0.8488
244.728	0.8394
245.089	0.8376
245.45	0.8269
245.81	0.8256
246.171	0.8248
246.531	0.8203
246.891	0.8197
247.252	0.816
247.612	0.8141
247.972	0.8097
248.332	0.8078
248.692	0.8056
249.051	0.8038
249.411	0.8048
249.771	0.7978
250.13	0.7968
250.49	0.794
250.849	0.7958
251.208	0.7925
251.568	0.7914
251.927	0.7906
252.286	0.7928
252.645	0.7867
253.004	0.7868
253.363	0.7863
253.721	0.7887
254.08	0.7844
254.439	0.7847
254.797	0.7819
255.155	0.7814
255.514	0.7769
255.872	0.7809
256.23	0.7767
256.588	0.7788
256.946	0.7779
257.304	0.7753
257.662	0.7761
258.02	0.7751
258.377	0.7729
258.735	0.775
259.093	0.7734
259.45	0.7723
259.807	0.7702
260.165	0.7703
260.522	0.7685
260.879	0.7682
261.236	0.7668
261.593	0.7652
261.95	0.7652
262.306	0.764
262.663	0.7591
263.02	0.7622
263.376	0.7596
263.733	0.7577
264.089	0.7536
264.445	0.7543
264.802	0.7537
265.158	0.7536
265.514	0.7488
265.87	0.7454
266.226	0.7452
266.581	0.7438
266.937	0.7417
267.293	0.7383
267.648	0.7377
268.004	0.734
268.359	0.7316
268.714	0.73
269.07	0.7269
269.425	0.7236
269.78	0.7215
270.135	0.7185
270.49	0.7168
270.844	0.7141
271.199	0.7107
271.554	0.7076
271.908	0.7054
272.263	0.7036
272.617	0.6984
272.972	0.6938
273.326	0.694
273.68	0.6887
274.034	0.6865
274.388	0.6821
274.742	0.6776
275.096	0.6761
275.45	0.6709
275.803	0.6653
276.157	0.6646
276.51	0.6589
276.864	0.6536
277.217	0.6497
277.571	0.6459
277.924	0.6405
278.277	0.6375
278.63	0.631
278.983	0.6272
279.336	0.6239
279.688	0.6184
280.041	0.6135
280.394	0.6103
280.746	0.6028
281.099	0.599
281.451	0.5933
281.803	0.5872
282.156	0.5823
282.508	0.5773
282.86	0.5719
283.212	0.5683
283.564	0.5618
283.916	0.5569
284.267	0.5513
284.619	0.5455
284.971	0.541
285.322	0.5355
285.673	0.5291
286.025	0.5234
286.376	0.518
286.727	0.5129
287.078	0.505
287.429	0.4989
287.78	0.4954
288.131	0.4884
288.482	0.4822
288.833	0.4751
289.183	0.4707
289.534	0.4665
289.884	0.4589
290.235	0.452
290.585	0.4466
290.935	0.44
291.285	0.4339
291.635	0.4292
291.985	0.4227
292.335	0.4185
292.685	0.4106
293.035	0.4059
293.384	0.3995
293.734	0.3934
294.083	0.3875
294.433	0.3824
294.782	0.3763
295.131	0.3701
295.48	0.3646
295.829	0.3588
296.179	0.3538
296.527	0.3474
296.876	0.3421
297.225	0.3369
297.574	0.3315
297.922	0.3256
298.271	0.3195
298.619	0.3144
298.968	0.3113
299.316	0.3052
299.664	0.3011
300.012	0.2951
300.36	0.2915
300.708	0.2866
301.056	0.2825
301.404	0.2767
301.752	0.2734
302.099	0.2692
302.447	0.2648
302.794	0.2618
303.142	0.2573
303.489	0.2531
303.836	0.2502
304.183	0.2465
304.531	0.2433
304.878	0.2401
305.224	0.2365
305.571	0.234
305.918	0.2308
306.265	0.2279
306.611	0.2247
306.958	0.2231
307.304	0.2207
307.651	0.2181
307.997	0.2158
308.343	0.2143
308.689	0.2113
309.035	0.2101
309.381	0.2089
309.727	0.2071
310.073	0.2052
310.419	0.2042
310.764	0.2032
311.11	0.2012
311.455	0.2005
311.801	0.2
312.146	0.1992
312.491	0.1981
312.837	0.1978
313.182	0.1975
313.527	0.1969
313.872	0.1971
314.216	0.1965
314.561	0.1965
314.906	0.196
315.251	0.1963
315.595	0.1962
315.94	0.1972
316.284	0.1972
316.628	0.1973
316.972	0.1979
317.317	0.1988
317.661	0.199
318.005	0.1994
318.348	0.2004
318.692	0.2014
319.036	0.2017
319.38	0.2034
319.723	0.2044
320.067	0.2049
320.41	0.2066
320.754	0.2076
321.097	0.2098
321.44	0.2105
321.783	0.2124
322.126	0.2137
322.469	0.2149
322.812	0.2164
323.155	0.2181
323.498	0.2208
323.84	0.2221
324.183	0.2246
324.525	0.2264
324.868	0.2273
325.21	0.2299
325.552	0.2319
325.894	0.2337
326.236	0.2353
326.578	0.2377
326.92	0.2396
327.262	0.2416
327.604	0.2433
327.946	0.2458
328.287	0.2476
328.629	0.2503
328.97	0.2525
329.312	0.2543
329.653	0.2567
329.994	0.2585
330.335	0.2612
330.676	0.2635
331.017	0.2662
331.358	0.2684
331.699	0.2716
332.04	0.273
332.38	0.2756
332.721	0.2776
333.061	0.2799
333.402	0.2817
333.742	0.2844
334.083	0.2872
334.423	0.289
334.763	0.29
335.103	0.2927
335.443	0.294
335.783	0.2961
336.123	0.2977
336.462	0.3003
336.802	0.3019
337.141	0.3043
337.481	0.3064
337.82	0.3084
338.16	0.3089
338.499	0.312
338.838	0.3139
339.177	0.3159
339.516	0.3171
339.855	0.3195
340.194	0.3215
340.533	0.3225
340.872	0.325
341.21	0.3263
341.549	0.3266
341.887	0.328
342.226	0.3292
342.564	0.331
342.902	0.3308
343.24	0.3314
343.578	0.3332
343.916	0.333
344.254	0.3332
344.592	0.3341
344.93	0.335
345.268	0.336
345.605	0.3364
345.943	0.3362
346.28	0.3379
346.618	0.3375
346.955	0.3378
347.292	0.3379
347.629	0.3384
347.966	0.339
348.303	0.3399
348.64	0.339
348.977	0.34
349.314	0.3403
349.65	0.3393
349.987	0.3404
350.324	0.3398
350.66	0.3399
350.996	0.3393
351.333	0.3381
351.669	0.3385
352.005	0.3368
352.341	0.3357
352.677	0.3346
353.013	0.3343
353.349	0.3327
353.685	0.3311
354.02	0.3298
354.356	0.3282
354.691	0.3284
355.027	0.3263
355.362	0.3253
355.697	0.3242
356.033	0.3224
356.368	0.3209
356.703	0.3204
357.038	0.3186
357.373	0.3174
357.707	0.3162
358.042	0.3146
358.377	0.3131
358.711	0.3121
359.046	0.3103
359.38	0.309
359.715	0.3085
360.049	0.3063
360.383	0.3048
360.717	0.3029
361.051	0.3006
361.385	0.2991
361.719	0.2971
362.053	0.2938
362.387	0.2915
362.72	0.29
363.054	0.2874
363.387	0.285
363.721	0.2826
364.054	0.2802
364.387	0.277
364.721	0.275
365.054	0.2723
365.387	0.2697
365.72	0.2669
366.053	0.2653
366.385	0.2626
366.718	0.2607
367.051	0.2592
367.383	0.2561
367.716	0.2544
368.048	0.2531
368.381	0.2507
368.713	0.2492
369.045	0.2466
369.377	0.2457
369.709	0.2431
370.041	0.2413
370.373	0.2395
370.705	0.2368
371.037	0.2349
371.368	0.2325
371.7	0.2304
372.031	0.228
372.363	0.2256
372.694	0.2223
373.025	0.2195
373.356	0.217
373.688	0.2142
374.019	0.2112
374.35	0.2078
374.68	0.2058
375.011	0.203
375.342	0.2001
375.673	0.197
376.003	0.1953
376.334	0.1924
376.664	0.1896
376.995	0.1875
377.325	0.1856
377.655	0.183
377.985	0.1806
378.315	0.179
378.645	0.1776
378.975	0.1755
379.305	0.1728
379.635	0.1711
379.964	0.17
380.294	0.1676
380.623	0.1657
380.953	0.1633
381.282	0.1622
381.611	0.1599
381.941	0.1584
382.27	0.1559
382.599	0.1545
382.928	0.1523
383.257	0.1508
383.585	0.1488
383.914	0.1462
384.243	0.144
384.571	0.1413
384.9	0.1395
385.228	0.137
385.557	0.1341
385.885	0.1326
386.213	0.1309
386.541	0.1278
386.869	0.1255
387.197	0.1236
387.525	0.1206
387.853	0.119
388.181	0.1174
388.508	0.1149
388.836	0.1128
389.164	0.1111
389.491	0.1105
389.818	0.1084
390.146	0.1062
390.473	0.1042
390.8	0.1035
391.127	0.1013
391.454	0.1001
391.781	0.0987
392.108	0.0976
392.435	0.0961
392.761	0.0942
393.088	0.093
393.415	0.0913
393.741	0.0911
394.067	0.0896
394.394	0.0892
394.72	0.0873
395.046	0.086
395.372	0.0853
395.698	0.0844
396.024	0.0822
396.35	0.081
396.676	0.0804
397.001	0.0786
397.327	0.0768
397.653	0.0766
397.978	0.0752
398.303	0.0739
398.629	0.0733
398.954	0.0721
399.279	0.0715
399.604	0.07
399.929	0.0681
400.254	0.0681
400.579	0.0671
400.904	0.0664
401.229	0.0649
401.553	0.0645
401.878	0.0639
402.202	0.0624
402.527	0.0619
402.851	0.0609
403.175	0.0603
403.5	0.0605
403.824	0.0588
404.148	0.0586
404.472	0.0586
404.796	0.0579
405.119	0.058
405.443	0.0574
405.767	0.0568
406.09	0.0568
406.414	0.0561
406.737	0.0561
407.061	0.0562
407.384	0.0557
407.707	0.055
408.03	0.0545
408.353	0.0548
408.676	0.0551
408.999	0.0544
409.322	0.0541
409.645	0.054
409.968	0.0536
410.29	0.0532
410.613	0.0531
410.935	0.0535
411.258	0.0536
411.58	0.0527
411.902	0.0528
412.224	0.0526
412.546	0.0535
412.868	0.053
413.19	0.0526
413.512	0.0529
413.834	0.0526
414.156	0.0524
414.477	0.0526
414.799	0.0521
415.121	0.0527
415.442	0.0529
415.763	0.0533
416.085	0.0535
416.406	0.0526
416.727	0.0523
417.048	0.0527
417.369	0.0528
417.69	0.0532
418.011	0.053
418.331	0.0537
418.652	0.0534
418.973	0.0532
419.293	0.054
419.614	0.054
419.934	0.0546
420.254	0.0545
420.574	0.0541
420.895	0.0535
421.215	0.054
421.535	0.0534
421.855	0.0538
422.174	0.0535
422.494	0.0535
422.814	0.0539
423.134	0.0541
423.453	0.0543
423.773	0.0549
424.092	0.055
424.411	0.0542
424.731	0.0551
425.05	0.0549
425.369	0.0551
425.688	0.0554
426.007	0.0559
426.326	0.0554
426.644	0.0553
426.963	0.0562
427.282	0.0561
427.6	0.0551
427.919	0.0555
428.237	0.0565
428.556	0.0564
428.874	0.0559
429.192	0.0569
429.51	0.056
429.828	0.0565
430.146	0.0567
430.464	0.0568
430.782	0.0568
431.1	0.0564
431.418	0.0565
431.735	0.0568
432.053	0.0573
432.37	0.057
432.688	0.0563
433.005	0.0569
433.322	0.057
433.639	0.0569
433.957	0.0578
434.274	0.0577
434.591	0.0577
434.907	0.0579
435.224	0.0586
435.541	0.0586
435.858	0.0588
436.174	0.0586
436.491	0.0583
436.807	0.0582
437.124	0.0589
437.44	0.0573
437.756	0.0577
438.072	0.0585
438.388	0.0585
438.704	0.0582
439.02	0.0576
439.336	0.058
439.652	0.0584
439.968	0.0581
440.283	0.0582
440.599	0.0591
440.914	0.0575
441.23	0.0582
441.545	0.0579
441.86	0.0578
442.175	0.0582
442.491	0.0578
442.806	0.0581
443.121	0.0578
443.435	0.0579
443.75	0.0574
444.065	0.0576
444.38	0.0575
444.694	0.0574
445.009	0.058
445.323	0.0575
445.638	0.0566
445.952	0.0573
446.266	0.0575
446.58	0.0572
446.894	0.0572
447.208	0.0574
447.522	0.0572
447.836	0.0571
448.15	0.0567
448.464	0.0566
448.777	0.0569
449.091	0.0559
449.404	0.0564
449.718	0.0565
450.031	0.0559
450.345	0.0564
450.658	0.0568
450.971	0.0557
451.284	0.0562
451.597	0.0565
451.91	0.0562
452.223	0.0558
452.535	0.0558
452.848	0.056
453.161	0.0552
453.473	0.0553
453.786	0.0567
454.098	0.056
454.411	0.056
454.723	0.0554
455.035	0.0552
455.347	0.0542
455.659	0.0538
455.971	0.053
456.283	0.0539
456.595	0.0535
456.907	0.0533
457.218	0.0534
457.53	0.0532
457.841	0.0527
458.153	0.0533
458.464	0.0523
458.776	0.0536
459.087	0.0524
459.398	0.052
459.709	0.0516
460.02	0.0514
460.331	0.051
460.642	0.0505
460.953	0.0517
461.263	0.0516
461.574	0.0502
461.885	0.051
462.195	0.0506
462.506	0.051
462.816	0.0498
463.126	0.0496
463.437	0.0496
463.747	0.0502
464.057	0.0493
464.367	0.0485
464.677	0.0479
464.987	0.0482
465.296	0.0478
465.606	0.0474
465.916	0.0468
466.225	0.0465
466.535	0.0458
466.844	0.0464
467.154	0.0456
467.463	0.0461
467.772	0.0448
468.081	0.0459
468.39	0.0451
468.699	0.0451
469.008	0.0446
469.317	0.0453
469.626	0.0443
469.935	0.0436
470.243	0.0441
470.552	0.0437
470.86	0.0424
471.169	0.0425
471.477	0.0424
471.785	0.0424
472.093	0.0422
472.402	0.0419
472.71	0.0427
473.018	0.0425
473.326	0.0411
473.633	0.0415
473.941	0.04
474.249	0.0407
474.556	0.0401
474.864	0.0394
475.171	0.0393
475.479	0.039
475.786	0.0388
476.094	0.0388
476.401	0.0395
476.708	0.0382
477.015	0.0374
477.322	0.0372
477.629	0.0366
477.936	0.0379
478.242	0.038
478.549	0.0372
478.856	0.0362
479.162	0.036
479.469	0.0366
479.775	0.0361
480.081	0.0361
480.388	0.035
480.694	0.0351
481	0.0347
481.306	0.0351
481.612	0.0342
481.918	0.0342
482.224	0.0339
482.53	0.0329
482.835	0.0328
483.141	0.0326
483.446	0.033
483.752	0.0318
484.057	0.0318
484.363	0.031
484.668	0.0309
484.973	0.0299
485.278	0.0304
485.583	0.0298
485.888	0.0282
486.193	0.0284
486.498	0.0301
486.803	0.03
487.107	0.0287
487.412	0.0279
487.717	0.0281
488.021	0.0266
488.325	0.0272
488.63	0.0281
488.934	0.0269
489.238	0.026
489.542	0.027
489.846	0.0263
490.15	0.0258
490.454	0.0252
490.758	0.0256
491.062	0.0249
491.366	0.0254
491.669	0.0246
491.973	0.0239
492.276	0.0248
492.58	0.0242
492.883	0.0241
493.186	0.0233
493.489	0.0228
493.792	0.0229
494.096	0.0226
494.399	0.023
494.701	0.0228
495.004	0.0226
495.307	0.0226
495.61	0.0229
495.912	0.0216
496.215	0.021
496.517	0.0201
496.82	0.0214
497.122	0.0208
497.424	0.0204
497.727	0.0197
498.029	0.0199
498.331	0.0192
498.633	0.0193
498.935	0.0192
499.237	0.019
499.538	0.0194
499.84	0.0188
500.142	0.0185
500.443	0.0182
500.745	0.0185
501.046	0.0188
501.348	0.0174
501.649	0.0182
501.95	0.0181
502.251	0.0177
502.552	0.017
502.853	0.0173
503.154	0.0166
503.455	0.0174
503.756	0.0156
504.057	0.0161
504.357	0.0161
504.658	0.016
504.958	0.0152
505.259	0.0155
505.559	0.0154
505.859	0.0152
506.16	0.015
506.46	0.0143
506.76	0.0147
507.06	0.014
507.36	0.0145
507.66	0.014
507.96	0.0136
508.259	0.013
508.559	0.0138
508.859	0.0134
509.158	0.013
509.457	0.013
509.757	0.012
510.056	0.0118
510.355	0.0112
510.655	0.0124
510.954	0.0116
511.253	0.0125
511.552	0.0106
511.851	0.0114
512.149	0.0107
512.448	0.011
512.747	0.0112
513.045	0.0101
513.344	0.0103
513.642	0.011
513.941	0.0106
514.239	0.0109
514.537	0.0113
514.836	0.0103
515.134	0.0102
515.432	0.0108
515.73	0.01
516.028	0.0087
516.326	0.0092
516.623	0.0102
516.921	0.0099
517.219	0.0113
517.516	0.0106
517.814	0.0097
518.111	0.0092
518.409	0.0086
518.706	0.0093
519.003	0.0076
519.3	0.0083
519.597	0.0081
519.894	0.007
520.191	0.0069
520.488	0.0082
520.785	0.0067
521.082	0.0074
521.378	0.0072
521.675	0.0073
521.971	0.0072
522.268	0.0097
522.564	0.0073
522.861	0.0069
523.157	0.0071
523.453	0.0078
523.749	0.0063
524.045	0.0049
524.341	0.0061
524.637	0.0057
524.933	0.0072
525.229	0.0065
525.524	0.0067
525.82	0.0058
526.115	0.0055
526.411	0.0056
526.706	0.0043
527.002	0.0047
527.297	0.0041
527.592	0.0052
527.887	0.0051
528.182	0.004
528.477	0.0041
528.772	0.003
529.067	0.0038
529.362	0.0041
529.657	0.0038
529.951	0.0047
530.246	0.005
530.54	0.0046
530.835	0.0053
531.129	0.0067
531.423	0.0036
531.718	0.0044
532.012	0.004
532.306	0.0038
532.6	0.0048
532.894	0.005
533.188	0.0038
533.482	0.0048
533.775	0.0042
534.069	0.0037
534.363	0.0037
534.656	0.0034
534.95	0.0037
535.243	0.0026
535.536	0.0045
535.83	0.0032
536.123	0.0031
536.416	0.0038
536.709	0.0028
537.002	0.0011
537.295	0.0014
537.588	0.0023
537.881	0.0027
538.173	0.0021
538.466	0.0026
538.759	0.002
539.051	0.0022
539.344	0.0035
539.636	0.0029
539.928	0.003
540.22	0.0033
540.513	0.0026
540.805	0.0026
541.097	0.0021
541.389	0.0022
541.681	0.0031
541.972	0.0019
542.264	0.0025
542.556	0.0018
542.847	0.0013
543.139	0.0015
543.431	0.0014
543.722	0.0015
544.013	0.0008
544.305	0.0013
544.596	0.0014
544.887	0.0016
545.178	0.0014
545.469	0.0009
545.76	0.0025
546.051	0.0009
546.342	0.0009
546.632	0.0017
546.923	0.0024
547.214	0.0011
547.504	0.0017
547.795	0.0016
548.085	0.0027
548.375	0.0019
548.666	0.0016
548.956	0.003
549.246	0.0018
549.536	0.0027
549.826	0.002
550.116	0.0016
550.406	0.0017
550.695	0.0028
550.985	0.0016
551.275	0.0008
551.564	0.0007
551.854	0.0013
552.143	0.0021
552.433	0.0018
552.722	0.0015
553.011	0.002
553.3	0.0011
553.589	0.0017
553.879	0.0011
554.167	0.0016
554.456	0.001
554.745	0.0031
555.034	0.0014
555.323	0.001
555.611	0.002
555.9	0.0027
556.188	0.0018
556.477	0.0024
556.765	0.0034
557.053	0.0025
557.342	0.0014
557.63	0.001
557.918	0.0016
558.206	0.0025
558.494	0.0031
558.782	0.0019
559.069	0.0022
559.357	0.0016
559.645	0.0025
559.932	0.002
560.22	0.002
560.507	0.0015
560.795	0.0021
561.082	0.0008
561.37	0.0017
561.657	0.0018
561.944	0.0005
562.231	0.0009
562.518	0.0014
562.805	0.0002
563.092	0.0007
563.379	0.0001
563.665	0.0011
563.952	0.0012
564.239	0.0025
564.525	0.0016
564.811	0.0028
565.098	0.0021
565.384	0.0025
565.67	0.0034
565.957	0.0025
566.243	0.0014
566.529	0.0029
566.815	0.0009
567.101	0.0004
567.387	0.001
567.672	0.0002
567.958	0.0009
568.244	0.0006
568.529	0.0013
568.815	0.0009
569.1	0.0015
569.386	0.002
569.671	0.0022
569.956	0.0019
570.242	0.0026
570.527	0.0026
570.812	0.0026
571.097	0.0018
571.382	0.0021
571.666	0.0031
571.951	0.003
572.236	0.0031
572.521	0.003
572.805	0.0032
573.09	0.0014
573.374	0.0008
573.659	0.0028
573.943	0.0023
574.227	0.002
574.511	0.0014
574.795	0.0021
575.079	0.0023
575.363	0.001
575.647	0.0017
575.931	0.0021
576.215	0.0005
576.499	-0.0001
576.782	0.0013
577.066	0.0007
577.349	0.0018
577.633	0.0009
577.916	0.001
578.2	0.001
578.483	0.0024
578.766	0.002
579.049	0.0024
579.332	0.0022
579.615	0.001
579.898	0.0013
580.181	0.0028
580.464	0.002
580.746	0.002
581.029	0.0026
581.312	0.0012
581.594	0.0003
581.877	0.0031
582.159	0.0024
582.441	0.0019
582.724	0.0026
583.006	0.0032
583.288	0.0017
583.57	0.0024
583.852	0.0018
584.134	0.001
584.416	0.0018
584.697	0.0015
584.979	0.0007
585.261	0.0012
585.542	0.0021
585.824	0.0012
586.105	0.0013
586.387	0.0017
586.668	0.0004
586.949	0.0011
587.231	0.0012
587.512	0.0017
587.793	0.0011
588.074	0.0021
588.355	0.0009
588.636	0.0019
588.916	0.0018
589.197	0.0024
589.478	0.0015
589.758	0.0021
590.039	0.0006
590.319	0.0015
590.6	0.0007
590.88	0.0002
591.16	0.0001
591.441	-0.0001
591.721	0.001
592.001	0.0005
592.281	0.0021
592.561	0.0016
592.841	0.0007
593.12	0.0017
593.4	0.0019
593.68	0.0013
593.959	0.0017
594.239	0.0021
594.518	0.0025
594.798	0.0011
595.077	0.0019
595.356	0.001
595.636	0.0011
595.915	0.0006
596.194	0.0017
596.473	0.0007
596.752	0.0015
597.031	0.0002
597.31	-0
597.588	0.0014
597.867	0.0011
598.146	0.0018
598.424	0.0013
598.703	-0.0002
598.981	0.0002
599.259	0.0007
599.538	0.0016
599.816	0.0012
600.094	-0
600.372	0.0013
600.65	0.0007
600.928	0.0011
601.206	-0.0002
601.484	0.0011
601.762	0.0009
602.04	-0.0003
602.317	0.0006
602.595	0.0006
602.872	0.0005
603.15	0.0006
603.427	0.0001
603.704	0.0012
603.982	0.0014
604.259	0.0002
604.536	0.0013
604.813	0.0013
605.09	-0.0002
605.367	-0.0006
605.644	0.0003
605.921	-0.0003
606.197	-0.0005
606.474	0.0014
606.751	-0.0004
607.027	-0.0003
607.304	0.0005
607.58	-0.0002
607.856	0.0003
608.133	0.0008
608.409	-0.0001
608.685	0.0002
608.961	-0.0002
609.237	0.0007
609.513	0.0005
609.789	0.0002
610.065	0
610.341	-0
610.616	0.0008
610.892	-0.0002
611.167	-0.0007
611.443	0.0003
611.718	0.0004
611.994	0.0001
612.269	0.0004
612.544	-0
612.819	-0.0006
613.095	-0.0003
613.37	-0.0005
613.645	0.0007
613.919	0.0012
614.194	0.0003
614.469	0.0005
614.744	0.0004
615.019	0.0014
615.293	0.0007
615.568	0.0006
615.842	0.0001
616.116	0.0002
616.391	-0.0001
616.665	0.0002
616.939	0.0002
617.213	0.002
617.488	0.0009
617.762	-0.0005
618.035	0
618.309	-0.0003
618.583	0.0005
618.857	0.0005
619.131	-0.0003
619.404	-0.0004
619.678	0.0005
619.951	-0.0001
620.225	0.0003
620.498	0.001
620.771	-0.0002
621.045	-0.0006
621.318	-0.0002
621.591	-0.0013
621.864	-0.0016
622.137	0
622.41	0.0003
622.683	0.0009
622.956	-0.0004
623.228	-0.0002
623.501	0.0009
623.774	-0.0002
624.046	-0.0001
624.319	0.0009
624.591	-0.0004
624.863	0.0001
625.136	0.0008
625.408	-0.0002
625.68	-0.0014
625.952	-0.0007
626.224	-0.0015
626.496	-0.0015
626.768	-0.001
627.04	-0.0025
627.311	-0.0024
627.583	-0.0022
627.855	-0.002
628.126	-0.0025
628.398	-0.0018
628.669	-0.0023
628.941	-0.0014
629.212	-0.001
629.483	-0.0006
629.755	-0.0012
630.026	0.0004
630.297	-0.0005
630.568	-0.0016
630.839	0.0004
631.11	-0.0012
631.38	-0.0021
631.651	-0.002
631.922	-0.0024
632.192	-0.0022
632.463	-0.0023
632.733	-0.002
633.004	-0.0022
633.274	-0.0016
633.545	-0.0013
633.815	-0.001
634.085	-0.0022
634.355	-0.0016
634.625	-0.0014
634.895	-0.0001
635.165	-0.001
635.435	-0.0006
635.705	-0.0023
635.974	-0.0018
636.244	-0.002
636.514	-0.0023
636.783	-0.0022
637.053	-0.001
637.322	-0.0012
637.591	-0.0016
637.861	-0.0018
638.13	-0
638.399	0.0009
638.668	-0.0002
638.937	-0.0008
639.206	0.0004
639.475	0.0008
639.744	0.0001
640.013	0.0009
640.281	0.0017
640.55	-0.0005
640.819	-0.0006
641.087	0.0004
641.356	0.0012
641.624	0.0019
641.892	-0.0003
642.161	-0.0015
642.429	-0.0005
642.697	-0.001
642.965	-0.0006
643.233	-0.0012
643.501	-0.0017
643.769	-0.0003
644.037	0.0011
644.305	-0.0003
644.572	-0.0011
644.84	-0.0014
645.108	-0.0023
645.375	-0.0028
645.643	-0.0039
645.91	-0.0023
646.177	-0.0022
646.445	-0.0023
646.712	-0.0015
646.979	-0.0018
647.246	-0.0001
647.513	0.0007
647.78	0.0011
648.047	0.0018
648.314	0.0011
648.58	0.0004
648.847	0.0003
649.114	-0.0004
649.38	-0.0011
649.647	-0.0009
649.913	-0.0006
650.18	-0.0014
650.446	-0.0008
650.712	-0.0002
650.978	-0.0012
651.245	0.0005
651.511	0.0006
651.777	0.0011
652.043	0.0013
652.309	0.0008
652.574	0.0006
652.84	-0.0002
653.106	-0.0007
653.371	-0.0011
653.637	-0.0017
653.903	-0.0008
654.168	-0.002
654.433	-0.0017
654.699	-0.0015
654.964	-0.0008
655.229	-0.0025
655.494	-0.0023
655.759	-0.0051
656.024	0.0007
656.289	-0
656.554	0.005
656.819	0.0016
657.084	0
657.349	-0.003
657.613	-0.0018
657.878	-0.0039
658.142	-0.0033
658.407	-0.0017
658.671	-0.0026
658.936	-0.0007
659.2	-0.0017
659.464	-0.0016
659.728	-0.0022
659.992	-0.0026
660.256	-0.0017
660.52	-0.0018
660.784	-0.0014
661.048	-0.0009
661.312	-0.0002
661.575	-0.0014
661.839	-0.0013
662.103	-0.0008
662.366	-0.0007
662.63	-0.0009
662.893	0.0009
663.156	0.0002
663.42	0.0005
663.683	-0.0008
663.946	-0.002
664.209	-0.0023
664.472	-0.0012
664.735	-0.0008
664.998	-0.0007
665.261	-0.001
665.524	-0.0015
665.786	-0.0012
666.049	-0.0005
666.312	-0.0008
666.574	0
666.837	-0.0009
667.099	-0.0009
667.361	-0.0019
667.624	-0.0039
667.886	-0.0017
668.148	-0.0009
668.41	-0.0004
668.672	-0.001
668.934	-0.0004
669.196	-0.0012
669.458	-0.0023
669.72	-0.0023
669.982	-0.0026
670.243	-0.0028
670.505	-0.0016
670.766	-0.0024
671.028	-0.0007
671.289	-0.0014
671.551	-0.0035
671.812	-0.0024
672.073	-0.0011
672.334	-0.0018
672.596	-0.0011
672.857	-0.0002
673.118	0.0003
673.379	-0
673.639	-0.001
673.9	-0.0011
674.161	0.0002
674.422	-0.0004
674.682	-0.0013
674.943	0.0004
675.203	0.0013
675.464	0.0013
675.724	0.0016
675.985	0.0015
676.245	0.0006
676.505	-0.0001
676.765	0.0003
677.025	0.0009
677.285	0.0004
677.545	0.0001
677.805	-0.0021
678.065	-0.0012
678.325	0.0006
678.585	-0.0013
678.844	-0.0019
679.104	-0.0002
679.363	-0.0014
679.623	-0.0014
679.882	-0.0013
680.142	-0.0008
680.401	0.0001
680.66	0.0006
680.919	0.0009
681.178	0.0005
681.437	-0.0006
681.696	-0.0024
681.955	-0.0007
682.214	-0.0011
682.473	-0.0015
682.732	-0.0023
682.99	-0.0041
683.249	-0.0043
683.508	-0.005
683.766	-0.0036
684.024	-0.0027
684.283	-0.0032
684.541	-0.0022
684.799	-0.0026
685.058	-0.0037
685.316	-0.0023
685.574	-0.0022
685.832	-0.0023
686.09	-0.0015
686.348	-0.0039
686.606	-0.0039
686.863	-0.0035
687.121	-0.005
687.379	-0.0053
687.636	-0.0057
687.894	-0.0036
688.151	-0.0042
688.409	-0.0035
688.666	-0.0032
688.923	-0.0033
689.181	-0.003
689.438	-0.0025
689.695	-0.0018
689.952	-0.0008
690.209	-0.002
690.466	-0.0015
690.723	-0.0039
690.979	-0.0044
691.236	-0.0046
691.493	-0.0025
691.75	-0.0027
692.006	-0.0018
692.263	-0.0017
692.519	-0.001
692.775	-0.0025
693.032	-0.0021
693.288	-0.0036
693.544	-0.0033
693.8	-0.0023
694.056	-0.0025
694.313	-0.003
694.568	-0.0007
694.824	-0.0014
695.08	-0.0023
695.336	-0.0024
695.592	-0.0036
695.847	-0.0022
696.103	-0.0047
696.359	-0.0041
696.614	-0.0042
696.869	-0.0036
697.125	-0.0044
697.38	-0.002
697.635	-0.0025
697.891	-0.0023
698.146	-0.0034
698.401	-0.0037
698.656	-0.0032
698.911	-0.003
699.166	-0.004
699.42	-0.0031
699.675	-0.0028
699.93	-0.0029
700.185	-0.0015
700.439	-0.001
700.694	-0.0007
700.948	-0.0011
701.203	-0.0013
701.457	-0.0017
701.711	-0.0026
701.965	-0.0022
702.22	-0.0016
702.474	-0.002
702.728	-0.0013
702.982	-0.0001
703.236	-0.0016
703.49	-0.0009
703.743	-0.0016
703.997	-0.0016
704.251	-0.0016
704.504	-0.0027
704.758	-0.0014
705.012	-0.0022
705.265	-0.0019
705.518	-0.004
705.772	-0.0045
706.025	-0.005
706.278	-0.0047
706.531	-0.0043
706.785	-0.0052
707.038	-0.0038
707.291	-0.0037
707.543	-0.0048
707.796	-0.0032
708.049	-0.0032
708.302	-0.0025
708.555	-0.0008
708.807	-0.0002
709.06	-0.0014
709.312	-0.0002
709.565	-0
709.817	-0.0008
710.069	-0.0004
710.322	-0.0013
710.574	-0.0014
710.826	-0.0008
711.078	0.0001
711.33	0.0006
711.582	0.0003
711.834	-0.0009
712.086	-0.0008
712.338	-0.001
712.59	-0.0018
712.841	-0.0032
713.093	-0.0011
713.344	-0.0032
713.596	-0.0028
713.847	-0.0021
714.099	0.0006
714.35	-0.0006
714.601	-0.0016
714.853	-0.001
715.104	-0.0022
715.355	-0.0035
715.606	-0.0016
715.857	-0.0031
716.108	-0.0033
716.359	-0.0045
716.609	-0.0047
716.86	-0.0045
717.111	-0.0039
717.361	-0.0041
717.612	-0.0036
717.863	-0.0038
718.113	-0.0042
718.363	-0.005
718.614	-0.003
718.864	-0.0037
719.114	-0.0054
719.364	-0.0054
719.614	-0.0063
719.865	-0.006
720.114	-0.0072
720.364	-0.007
720.614	-0.0064
720.864	-0.0062
721.114	-0.0048
721.364	-0.0057
721.613	-0.0053
721.863	-0.005
722.112	-0.0045
722.362	-0.0052
722.611	-0.0041
722.86	-0.004
723.11	-0.0041
723.359	-0.0034
723.608	-0.0034
723.857	-0.0026
724.106	-0.0027
724.355	-0.0021
724.604	-0.0017
724.853	-0.0023
725.102	-0.0039
725.351	-0.003
725.599	-0.0027
725.848	-0.0024
726.097	-0.0018
726.345	-0.0016
726.594	-0.0009
726.842	-0.0019
727.09	-0.0021
727.339	-0.0028
727.587	-0.0039
727.835	-0.0058
728.083	-0.0046
728.331	-0.0055
728.579	-0.0043
728.827	-0.0031
729.075	-0.0041
729.323	-0.0033
729.571	-0.0028
729.818	-0.0038
730.066	-0.0028
730.314	-0.0042
730.561	-0.0039
730.809	-0.0066
731.056	-0.0059
731.303	-0.0039
731.551	-0.0047
731.798	-0.0059
732.045	-0.0042
732.292	-0.0042
732.539	-0.0052
732.786	-0.0044
733.033	-0.004
733.28	-0.003
733.527	-0.0036
733.774	-0.0045
734.021	-0.004
734.267	-0.004
734.514	-0.0039
734.76	-0.0022
735.007	-0.003
735.253	-0.0034
735.5	-0.0026
735.746	-0.0028
735.992	-0.0029
736.238	-0.0035
736.485	-0.0043
736.731	-0.0044
736.977	-0.0054
737.223	-0.0041
737.469	-0.0036
737.715	-0.0019
737.96	-0.0017
738.206	-0.0008
738.452	-0.0003
738.697	0.0005
738.943	-0
739.189	-0.0005
739.434	0.0001
739.679	-0
739.925	0.0013
740.17	-0.0014
740.415	-0.0018
740.66	-0.0012
740.906	-0.0015
741.151	-0.0014
741.396	-0.0016
741.641	-0.0029
741.886	-0.0032
742.13	-0.0029
742.375	-0.0019
742.62	-0.0041
742.865	-0.0028
743.109	-0.0038
743.354	-0.0041
743.598	-0.0039
743.843	-0.0024
744.087	-0.0021
744.331	-0.0021
744.576	-0.0012
744.82	-0.0031
745.064	-0.0027
745.308	-0.0028
745.552	-0.0035
745.796	-0.0032
746.04	-0.0037
746.284	-0.0033
746.528	-0.0034
746.771	-0.0034
747.015	-0.0046
747.259	-0.0055
747.502	-0.0035
747.746	-0.0022
747.989	-0.0025
748.233	-0.0041
748.476	-0.004
748.719	-0.0061
748.963	-0.0054
749.206	-0.0051
749.449	-0.0045
749.692	-0.0033
749.935	-0.002
750.178	-0.0023
750.421	-0.002
750.664	-0.0032
750.906	-0.0032
751.149	-0.0024
751.392	-0.0025
751.635	-0.0019
751.877	-0.0005
752.12	-0.001
752.362	-0.0014
752.604	-0.0012
752.847	-0.0007
753.089	-0.0005
753.331	-0.0018
753.573	-0.0021
753.816	-0.0014
754.058	-0.0023
754.3	-0.0014
754.542	-0.0006
754.783	-0.0012
755.025	-0.0007
755.267	-0.0016
755.509	-0.0013
755.75	-0.0012
755.992	0
756.234	0.0003
756.475	-0.0011
756.716	-0.001
756.958	-0.0011
757.199	0.0009
757.44	-0.0017
757.682	-0.0028
757.923	-0.001
758.164	-0.0011
758.405	-0.0008
758.646	-0.0008
758.887	0.0002
759.128	-0.0012
759.369	-0.0026
759.609	-0.0022
759.85	-0.0025
760.091	-0.0021
760.331	-0.003
760.572	-0.0029
760.812	-0.004
761.053	-0.0026
761.293	-0.0028
761.533	-0.0031
761.774	-0.0017
762.014	-0.0031
762.254	-0.0023
762.494	-0.0016
762.734	-0.0012
762.974	-0.0022
763.214	-0.0019
763.454	-0.0034
763.694	-0.0038
763.933	-0.0026
764.173	-0.0028
764.413	-0.003
764.652	-0.0035
764.892	-0.0034
765.131	-0.0045
765.371	-0.0036
765.61	-0.0032
765.849	-0.0039
766.089	-0.0039
766.328	-0.0047
766.567	-0.0045
766.806	-0.0047
767.045	-0.0041
767.284	-0.0032
767.523	-0.0034
767.762	-0.0041
768.001	-0.0044
768.239	-0.004
768.478	-0.0029
768.717	-0.0028
768.955	-0.003
769.194	-0.0011
769.432	-0.0014
769.671	-0.0003
769.909	-0.0001
770.148	-0.001
770.386	-0.0011
770.624	-0.002
770.862	-0.0023
771.1	-0.001
771.338	-0.0018
771.576	0.0001
771.814	-0.0001
772.052	-0.0014
772.29	-0.0008
772.528	-0.0014
772.765	-0.0004
773.003	-0.0012
773.24	-0.0009
773.478	-0.0012
773.716	-0.0004
773.953	-0.0005
774.19	0.0002
774.428	-0.0008
774.665	-0
774.902	-0.001
775.139	0.0003
775.376	-0.0003
775.613	0.0003
775.85	-0.0006
776.087	-0.0005
776.324	-0.0003
776.561	0.0008
776.798	0.0012
777.034	0.0032
777.271	0.0022
777.508	0.002
777.744	0.0009
777.981	0.0009
778.217	0.0003
778.454	0.0004
778.69	0.0001
778.926	0
779.162	-0.001
779.399	-0.0032
779.635	-0.0045
779.871	-0.0056
780.107	-0.0046
780.343	-0.0059
780.579	-0.0041
780.814	-0.0042
781.05	-0.0044
781.286	-0.0044
781.522	-0.0023
781.757	-0.0014
781.993	-0.0018
782.228	-0.0002
782.464	-0.0001
782.699	-0.0001
782.934	-0.0004
783.17	0.0007
783.405	-0.0005
783.64	-0.0015
783.875	-0.002
784.11	-0.0018
784.345	-0.0019
784.58	-0.0028
784.815	-0.001
785.05	-0.0028
785.285	-0.0019
785.52	-0.0013
785.754	-0.0014
785.989	-0.0017
786.223	-0.0009
786.458	-0
786.692	0.0001
786.927	0.0007
787.161	-0.0009
787.396	-0.0001
787.63	0.0016
787.864	0.0009
788.098	0.0009
788.332	0.001
788.566	0.0012
788.8	0.0014
789.034	0.0006
789.268	0.001
789.502	0.0008
789.736	-0.0007
789.969	-0.002
790.203	-0.0024
790.437	-0.0022
790.67	-0.0023
790.904	-0.0024
791.137	-0.0019
791.37	-0.0012
791.604	-0.0015
791.837	-0.0015
792.07	-0.0014
792.303	-0.0002
792.537	-0.002
792.77	-0.0019
793.003	-0.0027
793.236	-0.0024
793.469	-0.0008
793.701	-0.0015
793.934	-0.0027
794.167	-0.0029
794.4	-0.0018
794.632	-0.0013
794.865	-0.0011
795.097	-0.0021
795.33	-0.0029
795.562	-0.0016
795.795	-0.0007
796.027	-0.0026
796.259	-0.0022
796.491	-0.0022
796.724	-0.001
796.956	0.0003
797.188	0.0005
797.42	-0.0003
797.652	-0.0011
797.883	-0.0004
798.115	-0.0008
798.347	-0.0018
798.579	-0.0027
798.81	-0.0039
799.042	-0.004
799.274	-0.0034
799.505	-0.0036
799.737	-0.0033
799.968	-0.003
800.199	-0.0027
800.431	-0.0015
800.662	-0.0012
800.893	-0.0012
801.124	0.0003
801.355	0.0005
801.586	0.0026
801.817	0.001
802.048	0.0001
802.279	-0.0001
802.51	-0.0025
802.741	-0.0007
802.971	-0.0016
803.202	-0.0029
803.433	-0.0024
803.663	-0.0019
803.894	-0.0006
804.124	-0.0009
804.354	-0.001
804.585	-0.0004
804.815	-0.0001
805.045	-0.0005
805.275	0.0005
805.506	-0.0541
805.736	0.0773
805.966	0.2989
806.196	0.2
