Data from 02 0.5 mM K2Cr2O7 0.2 mM BQDS 1 M H2SO4 baseline_Absorbance_15-46-14-732.txt Node
Date: Thu Dec 09 15:46:14 EST 2021
User: kwabilab-user
Spectrometer: HDX00518
Trigger mode: 0
Integration Time (sec): 5.000000E-2
Scans to average: 50
Nonlinearity correction enabled: false
Boxcar width: 0
Storing dark spectrum: false
XAxis mode: Wavelengths
Number of Pixels in Spectrum: 2068
>>>>>Begin Spectral Data<<<<<
195.27	0.5671
195.642	0.2119
196.014	0.1852
196.386	0.4387
196.758	0.0356
197.129	0.0193
197.501	0.0675
197.872	0.1178
198.244	0.1439
198.615	0.1633
198.986	0.1605
199.357	0.1303
199.728	0.1469
200.099	0.1424
200.47	0.1619
200.841	0.1535
201.212	0.1392
201.582	0.1466
201.953	0.1367
202.323	0.1626
202.694	0.1488
203.064	0.1445
203.434	0.1548
203.804	0.1417
204.174	0.1485
204.544	0.1561
204.914	0.1554
205.284	0.1641
205.653	0.157
206.023	0.1499
206.393	0.1589
206.762	0.1457
207.131	0.1706
207.501	0.1578
207.87	0.1356
208.239	0.1321
208.608	0.1714
208.977	0.165
209.346	0.1619
209.715	0.1833
210.083	0.1714
210.452	0.1594
210.82	0.169
211.189	0.1812
211.557	0.167
211.925	0.1987
212.294	0.1908
212.662	0.1901
213.03	0.2014
213.398	0.2083
213.766	0.1977
214.133	0.1956
214.501	0.2154
214.869	0.2107
215.236	0.2165
215.604	0.2228
215.971	0.2468
216.338	0.2556
216.705	0.2907
217.072	0.2847
217.439	0.3155
217.806	0.333
218.173	0.3294
218.54	0.3679
218.907	0.3838
219.273	0.4403
219.64	0.469
220.006	0.5101
220.373	0.5146
220.739	0.5582
221.105	0.6075
221.471	0.6199
221.837	0.6704
222.203	0.7357
222.569	0.771
222.935	0.8012
223.3	0.818
223.666	0.8795
224.031	0.9152
224.397	0.954
224.762	0.9832
225.127	1.0258
225.493	1.0658
225.858	1.0629
226.223	1.1172
226.588	1.1225
226.952	1.1201
227.317	1.1737
227.682	1.1753
228.046	1.167
228.411	1.1906
228.775	1.2119
229.14	1.2133
229.504	1.2124
229.868	1.2213
230.232	1.2259
230.596	1.234
230.96	1.2453
231.324	1.2321
231.688	1.2336
232.052	1.2452
232.415	1.2435
232.779	1.2388
233.142	1.2384
233.505	1.2352
233.869	1.2349
234.232	1.2364
234.595	1.2099
234.958	1.2073
235.321	1.204
235.684	1.1969
236.047	1.1903
236.409	1.1783
236.772	1.1704
237.134	1.1715
237.497	1.156
237.859	1.1596
238.222	1.1563
238.584	1.1428
238.946	1.1316
239.308	1.1262
239.67	1.1147
240.032	1.1109
240.393	1.107
240.755	1.0975
241.117	1.1011
241.478	1.0961
241.84	1.0885
242.201	1.0775
242.562	1.0703
242.924	1.0682
243.285	1.0571
243.646	1.0551
244.007	1.0487
244.368	1.0488
244.728	1.0403
245.089	1.045
245.45	1.0348
245.81	1.0286
246.171	1.0273
246.531	1.0165
246.891	1.0209
247.252	1.0109
247.612	1.0118
247.972	1.0051
248.332	1.0096
248.692	1.0059
249.051	1.0038
249.411	0.9969
249.771	0.9927
250.13	0.9884
250.49	0.9903
250.849	0.9887
251.208	0.9886
251.568	0.9838
251.927	0.9763
252.286	0.9798
252.645	0.9778
253.004	0.9766
253.363	0.9768
253.721	0.9715
254.08	0.9631
254.439	0.9659
254.797	0.9639
255.155	0.9642
255.514	0.9604
255.872	0.9593
256.23	0.9571
256.588	0.9557
256.946	0.9531
257.304	0.9511
257.662	0.9495
258.02	0.948
258.377	0.9458
258.735	0.9459
259.093	0.9433
259.45	0.9366
259.807	0.9377
260.165	0.9389
260.522	0.9352
260.879	0.9329
261.236	0.93
261.593	0.9272
261.95	0.9217
262.306	0.9227
262.663	0.9194
263.02	0.9191
263.376	0.9189
263.733	0.9142
264.089	0.9102
264.445	0.9072
264.802	0.9078
265.158	0.9033
265.514	0.9034
265.87	0.9007
266.226	0.8992
266.581	0.896
266.937	0.8946
267.293	0.8912
267.648	0.8877
268.004	0.8822
268.359	0.8824
268.714	0.8802
269.07	0.8769
269.425	0.8765
269.78	0.8717
270.135	0.8683
270.49	0.8692
270.844	0.8648
271.199	0.8593
271.554	0.8594
271.908	0.8576
272.263	0.8536
272.617	0.8492
272.972	0.8469
273.326	0.8445
273.68	0.8408
274.034	0.8387
274.388	0.8351
274.742	0.8328
275.096	0.8311
275.45	0.827
275.803	0.8209
276.157	0.8202
276.51	0.8148
276.864	0.8112
277.217	0.806
277.571	0.8037
277.924	0.7986
278.277	0.7975
278.63	0.792
278.983	0.7856
279.336	0.784
279.688	0.7781
280.041	0.7735
280.394	0.7708
280.746	0.7637
281.099	0.7632
281.451	0.7558
281.803	0.7493
282.156	0.7421
282.508	0.7391
282.86	0.7334
283.212	0.7266
283.564	0.7239
283.916	0.7177
284.267	0.712
284.619	0.7057
284.971	0.6995
285.322	0.6958
285.673	0.6872
286.025	0.6809
286.376	0.6754
286.727	0.6693
287.078	0.6607
287.429	0.6551
287.78	0.6489
288.131	0.6424
288.482	0.6344
288.833	0.6269
289.183	0.6209
289.534	0.6146
289.884	0.6089
290.235	0.5995
290.585	0.5951
290.935	0.5869
291.285	0.5792
291.635	0.5727
291.985	0.5655
292.335	0.5593
292.685	0.5504
293.035	0.5446
293.384	0.5372
293.734	0.5297
294.083	0.523
294.433	0.5164
294.782	0.5085
295.131	0.5023
295.48	0.4961
295.829	0.4887
296.179	0.4817
296.527	0.4761
296.876	0.4691
297.225	0.4618
297.574	0.4555
297.922	0.4494
298.271	0.4428
298.619	0.4372
298.968	0.4318
299.316	0.4248
299.664	0.4194
300.012	0.4138
300.36	0.4093
300.708	0.4032
301.056	0.3982
301.404	0.3921
301.752	0.3884
302.099	0.3831
302.447	0.3779
302.794	0.3731
303.142	0.369
303.489	0.3635
303.836	0.3595
304.183	0.3549
304.531	0.3512
304.878	0.3479
305.224	0.3449
305.571	0.3415
305.918	0.3373
306.265	0.3344
306.611	0.3319
306.958	0.3293
307.304	0.3259
307.651	0.3231
307.997	0.3209
308.343	0.3192
308.689	0.3159
309.035	0.3147
309.381	0.3133
309.727	0.3113
310.073	0.3095
310.419	0.3077
310.764	0.3066
311.11	0.3052
311.455	0.3046
311.801	0.303
312.146	0.3026
312.491	0.3022
312.837	0.3018
313.182	0.3007
313.527	0.3009
313.872	0.301
314.216	0.3008
314.561	0.3008
314.906	0.3008
315.251	0.3009
315.595	0.3016
315.94	0.3023
316.284	0.3034
316.628	0.3036
316.972	0.3046
317.317	0.3056
317.661	0.3064
318.005	0.3072
318.348	0.308
318.692	0.309
319.036	0.31
319.38	0.3126
319.723	0.3136
320.067	0.3152
320.41	0.3172
320.754	0.3185
321.097	0.3211
321.44	0.3227
321.783	0.3249
322.126	0.3265
322.469	0.3286
322.812	0.3305
323.155	0.3333
323.498	0.3357
323.84	0.3382
324.183	0.3404
324.525	0.343
324.868	0.3442
325.21	0.3474
325.552	0.3503
325.894	0.3533
326.236	0.3553
326.578	0.3577
326.92	0.3605
327.262	0.3633
327.604	0.3652
327.946	0.3687
328.287	0.3704
328.629	0.3735
328.97	0.3769
329.312	0.3789
329.653	0.3814
329.994	0.3852
330.335	0.3874
330.676	0.3906
331.017	0.3944
331.358	0.3974
331.699	0.4002
332.04	0.4029
332.38	0.4055
332.721	0.4081
333.061	0.4111
333.402	0.4138
333.742	0.417
334.083	0.4203
334.423	0.4216
334.763	0.4239
335.103	0.4263
335.443	0.4296
335.783	0.4316
336.123	0.4337
336.462	0.436
336.802	0.4385
337.141	0.4404
337.481	0.4422
337.82	0.4456
338.16	0.4467
338.499	0.4497
338.838	0.4519
339.177	0.4547
339.516	0.4559
339.855	0.4583
340.194	0.4608
340.533	0.4623
340.872	0.4654
341.21	0.4661
341.549	0.4683
341.887	0.4697
342.226	0.4708
342.564	0.4722
342.902	0.4732
343.24	0.4745
343.578	0.4749
343.916	0.4753
344.254	0.4758
344.592	0.4759
344.93	0.4772
345.268	0.4775
345.605	0.4775
345.943	0.4785
346.28	0.4787
346.618	0.479
346.955	0.479
347.292	0.4791
347.629	0.4799
347.966	0.4809
348.303	0.4811
348.64	0.4807
348.977	0.4808
349.314	0.4806
349.65	0.4807
349.987	0.4803
350.324	0.4797
350.66	0.4805
350.996	0.4787
351.333	0.4782
351.669	0.4771
352.005	0.4754
352.341	0.474
352.677	0.4731
353.013	0.4707
353.349	0.4701
353.685	0.4679
354.02	0.4663
354.356	0.4648
354.691	0.4625
355.027	0.4607
355.362	0.459
355.697	0.458
356.033	0.4548
356.368	0.4532
356.703	0.4515
357.038	0.451
357.373	0.4495
357.707	0.4475
358.042	0.4459
358.377	0.4437
358.711	0.4429
359.046	0.4403
359.38	0.4385
359.715	0.4369
360.049	0.435
360.383	0.4326
360.717	0.4305
361.051	0.4286
361.385	0.4249
361.719	0.4226
362.053	0.4191
362.387	0.4169
362.72	0.4146
363.054	0.4107
363.387	0.4087
363.721	0.4051
364.054	0.4016
364.387	0.3987
364.721	0.3959
365.054	0.3937
365.387	0.3892
365.72	0.3863
366.053	0.385
366.385	0.3813
366.718	0.3796
367.051	0.3761
367.383	0.3737
367.716	0.3714
368.048	0.3698
368.381	0.3669
368.713	0.3645
369.045	0.3612
369.377	0.3603
369.709	0.3572
370.041	0.355
370.373	0.3516
370.705	0.3487
371.037	0.3468
371.368	0.3444
371.7	0.3414
372.031	0.3376
372.363	0.3352
372.694	0.3306
373.025	0.3282
373.356	0.3237
373.688	0.3202
374.019	0.3174
374.35	0.3137
374.68	0.3099
375.011	0.3061
375.342	0.3027
375.673	0.2992
376.003	0.2968
376.334	0.2927
376.664	0.2899
376.995	0.2873
377.325	0.2836
377.655	0.2811
377.985	0.2781
378.315	0.2757
378.645	0.2737
378.975	0.2706
379.305	0.2681
379.635	0.2654
379.964	0.264
380.294	0.2618
380.623	0.2595
380.953	0.2556
381.282	0.2533
381.611	0.2514
381.941	0.2488
382.27	0.246
382.599	0.2441
382.928	0.2408
383.257	0.2384
383.585	0.2352
383.914	0.2325
384.243	0.2298
384.571	0.2259
384.9	0.2238
385.228	0.2202
385.557	0.2179
385.885	0.2151
386.213	0.211
386.541	0.2082
386.869	0.2055
387.197	0.2022
387.525	0.1986
387.853	0.1958
388.181	0.1935
388.508	0.1908
388.836	0.1879
389.164	0.1856
389.491	0.1846
389.818	0.1817
390.146	0.1785
390.473	0.1761
390.8	0.174
391.127	0.172
391.454	0.1702
391.781	0.1686
392.108	0.1661
392.435	0.1639
392.761	0.1625
393.088	0.1609
393.415	0.1587
393.741	0.1572
394.067	0.1556
394.394	0.1542
394.72	0.1523
395.046	0.1504
395.372	0.1491
395.698	0.1471
396.024	0.1453
396.35	0.1435
396.676	0.1414
397.001	0.1405
397.327	0.1377
397.653	0.1364
397.978	0.1343
398.303	0.1331
398.629	0.1318
398.954	0.1303
399.279	0.129
399.604	0.127
399.929	0.1247
400.254	0.1238
400.579	0.1223
400.904	0.121
401.229	0.12
401.553	0.1184
401.878	0.117
402.202	0.1161
402.527	0.115
402.851	0.1135
403.175	0.1131
403.5	0.1125
403.824	0.1108
404.148	0.1096
404.472	0.1098
404.796	0.1085
405.119	0.1081
405.443	0.1068
405.767	0.1068
406.09	0.1057
406.414	0.1049
406.737	0.1047
407.061	0.1039
407.384	0.1037
407.707	0.1034
408.03	0.103
408.353	0.1021
408.676	0.1019
408.999	0.1008
409.322	0.1007
409.645	0.1003
409.968	0.0998
410.29	0.0995
410.613	0.099
410.935	0.0991
411.258	0.099
411.58	0.0985
411.902	0.098
412.224	0.0979
412.546	0.0979
412.868	0.0977
413.19	0.0967
413.512	0.0966
413.834	0.0967
414.156	0.0967
414.477	0.0963
414.799	0.0958
415.121	0.0963
415.442	0.096
415.763	0.0962
416.085	0.0966
416.406	0.0958
416.727	0.095
417.048	0.0962
417.369	0.0955
417.69	0.0955
418.011	0.0956
418.331	0.0956
418.652	0.0959
418.973	0.0956
419.293	0.0954
419.614	0.0956
419.934	0.0959
420.254	0.0959
420.574	0.0957
420.895	0.0948
421.215	0.0952
421.535	0.095
421.855	0.095
422.174	0.0952
422.494	0.0955
422.814	0.0954
423.134	0.0957
423.453	0.0954
423.773	0.0957
424.092	0.0958
424.411	0.0953
424.731	0.096
425.05	0.0962
425.369	0.0958
425.688	0.096
426.007	0.0967
426.326	0.0957
426.644	0.0962
426.963	0.0965
427.282	0.0962
427.6	0.0958
427.919	0.0956
428.237	0.0963
428.556	0.0962
428.874	0.096
429.192	0.0967
429.51	0.0957
429.828	0.0964
430.146	0.0964
430.464	0.0964
430.782	0.0965
431.1	0.0963
431.418	0.0966
431.735	0.0964
432.053	0.0962
432.37	0.096
432.688	0.0954
433.005	0.0969
433.322	0.0958
433.639	0.0963
433.957	0.0966
434.274	0.096
434.591	0.0968
434.907	0.0966
435.224	0.0963
435.541	0.0968
435.858	0.0968
436.174	0.0963
436.491	0.097
436.807	0.0954
437.124	0.0963
437.44	0.0954
437.756	0.0957
438.072	0.0958
438.388	0.0959
438.704	0.0959
439.02	0.0954
439.336	0.0951
439.652	0.0952
439.968	0.0956
440.283	0.0959
440.599	0.0955
440.914	0.095
441.23	0.095
441.545	0.0947
441.86	0.0947
442.175	0.0944
442.491	0.0949
442.806	0.0942
443.121	0.0951
443.435	0.0942
443.75	0.0945
444.065	0.0941
444.38	0.0942
444.694	0.0944
445.009	0.0936
445.323	0.0942
445.638	0.094
445.952	0.0932
446.266	0.0934
446.58	0.0927
446.894	0.0926
447.208	0.0927
447.522	0.0917
447.836	0.0914
448.15	0.0918
448.464	0.0912
448.777	0.0915
449.091	0.0903
449.404	0.091
449.718	0.0905
450.031	0.0909
450.345	0.0898
450.658	0.0894
450.971	0.0892
451.284	0.0892
451.597	0.0899
451.91	0.089
452.223	0.0887
452.535	0.0886
452.848	0.0888
453.161	0.0881
453.473	0.088
453.786	0.0886
454.098	0.0879
454.411	0.0882
454.723	0.0874
455.035	0.0869
455.347	0.0862
455.659	0.0855
455.971	0.0846
456.283	0.0859
456.595	0.0848
456.907	0.085
457.218	0.0844
457.53	0.0843
457.841	0.0831
458.153	0.0838
458.464	0.0825
458.776	0.0837
459.087	0.082
459.398	0.0819
459.709	0.0814
460.02	0.0813
460.331	0.0808
460.642	0.0799
460.953	0.0802
461.263	0.0799
461.574	0.079
461.885	0.0793
462.195	0.0781
462.506	0.0786
462.816	0.078
463.126	0.0781
463.437	0.0772
463.747	0.0774
464.057	0.0768
464.367	0.0764
464.677	0.0761
464.987	0.0746
465.296	0.0748
465.606	0.0742
465.916	0.0735
466.225	0.0738
466.535	0.073
466.844	0.0729
467.154	0.0712
467.463	0.0719
467.772	0.0699
468.081	0.0708
468.39	0.0701
468.699	0.0696
469.008	0.0688
469.317	0.0683
469.626	0.0684
469.935	0.0678
470.243	0.0668
470.552	0.0672
470.86	0.0651
471.169	0.0651
471.477	0.0651
471.785	0.0644
472.093	0.0651
472.402	0.0629
472.71	0.0637
473.018	0.0628
473.326	0.0622
473.633	0.0621
473.941	0.0606
474.249	0.0611
474.556	0.0614
474.864	0.0602
475.171	0.0598
475.479	0.0594
475.786	0.0589
476.094	0.058
476.401	0.0583
476.708	0.057
477.015	0.0571
477.322	0.0568
477.629	0.056
477.936	0.0565
478.242	0.0563
478.549	0.0544
478.856	0.0546
479.162	0.0536
479.469	0.0536
479.775	0.0531
480.081	0.0534
480.388	0.0518
480.694	0.0519
481	0.0518
481.306	0.0517
481.612	0.0509
481.918	0.0505
482.224	0.0502
482.53	0.0491
482.835	0.0486
483.141	0.0481
483.446	0.0478
483.752	0.0478
484.057	0.047
484.363	0.0468
484.668	0.0463
484.973	0.0455
485.278	0.0448
485.583	0.0449
485.888	0.0433
486.193	0.0437
486.498	0.0431
486.803	0.0434
487.107	0.0423
487.412	0.0418
487.717	0.0413
488.021	0.041
488.325	0.0398
488.63	0.0401
488.934	0.0398
489.238	0.0389
489.542	0.0391
489.846	0.0389
490.15	0.0374
490.454	0.0368
490.758	0.0369
491.062	0.0368
491.366	0.0365
491.669	0.0354
491.973	0.0361
492.276	0.0361
492.58	0.0358
492.883	0.0352
493.186	0.0341
493.489	0.0341
493.792	0.0336
494.096	0.0327
494.399	0.0333
494.701	0.033
495.004	0.0321
495.307	0.0315
495.61	0.0327
495.912	0.0318
496.215	0.0315
496.517	0.0307
496.82	0.0302
497.122	0.0297
497.424	0.0299
497.727	0.0287
498.029	0.0292
498.331	0.0285
498.633	0.0289
498.935	0.0282
499.237	0.0274
499.538	0.0281
499.84	0.0279
500.142	0.0272
500.443	0.0272
500.745	0.0261
501.046	0.0261
501.348	0.0257
501.649	0.0265
501.95	0.026
502.251	0.0245
502.552	0.0246
502.853	0.0244
503.154	0.0237
503.455	0.0238
503.756	0.0238
504.057	0.0233
504.357	0.0227
504.658	0.0236
504.958	0.0223
505.259	0.0222
505.559	0.022
505.859	0.021
506.16	0.0222
506.46	0.0211
506.76	0.0208
507.06	0.0198
507.36	0.0201
507.66	0.0206
507.96	0.0191
508.259	0.0187
508.559	0.0192
508.859	0.0189
509.158	0.0182
509.457	0.019
509.757	0.0183
510.056	0.017
510.355	0.0181
510.655	0.0176
510.954	0.0176
511.253	0.017
511.552	0.0174
511.851	0.0174
512.149	0.0159
512.448	0.0161
512.747	0.0151
513.045	0.0161
513.344	0.0153
513.642	0.0164
513.941	0.0151
514.239	0.0155
514.537	0.0156
514.836	0.0151
515.134	0.0144
515.432	0.0153
515.73	0.015
516.028	0.0147
516.326	0.0133
516.623	0.0138
516.921	0.0138
517.219	0.015
517.516	0.0134
517.814	0.0138
518.111	0.0123
518.409	0.0124
518.706	0.0134
519.003	0.0117
519.3	0.0119
519.597	0.0127
519.894	0.0123
520.191	0.0115
520.488	0.0127
520.785	0.0107
521.082	0.0105
521.378	0.0112
521.675	0.0109
521.971	0.0107
522.268	0.0117
522.564	0.0102
522.861	0.0102
523.157	0.0104
523.453	0.0098
523.749	0.0095
524.045	0.0092
524.341	0.0096
524.637	0.0091
524.933	0.0091
525.229	0.0095
525.524	0.0084
525.82	0.0081
526.115	0.0087
526.411	0.0079
526.706	0.0071
527.002	0.0083
527.297	0.0076
527.592	0.0078
527.887	0.0073
528.182	0.0071
528.477	0.0076
528.772	0.007
529.067	0.0078
529.362	0.0072
529.657	0.0069
529.951	0.0072
530.246	0.0078
530.54	0.0069
530.835	0.0065
531.129	0.0084
531.423	0.006
531.718	0.0067
532.012	0.0073
532.306	0.0068
532.6	0.0079
532.894	0.0067
533.188	0.0063
533.482	0.007
533.775	0.0066
534.069	0.006
534.363	0.0055
534.656	0.0069
534.95	0.0049
535.243	0.0056
535.536	0.0059
535.83	0.0056
536.123	0.0065
536.416	0.0067
536.709	0.0057
537.002	0.0054
537.295	0.0054
537.588	0.0053
537.881	0.0055
538.173	0.0055
538.466	0.0053
538.759	0.0048
539.051	0.0045
539.344	0.0049
539.636	0.0042
539.928	0.0047
540.22	0.0049
540.513	0.0045
540.805	0.0049
541.097	0.0042
541.389	0.0036
541.681	0.0056
541.972	0.0038
542.264	0.0041
542.556	0.0052
542.847	0.003
543.139	0.0039
543.431	0.0046
543.722	0.0043
544.013	0.0031
544.305	0.0045
544.596	0.0032
544.887	0.0025
545.178	0.0028
545.469	0.0022
545.76	0.0035
546.051	0.0037
546.342	0.002
546.632	0.0044
546.923	0.0035
547.214	0.0028
547.504	0.0037
547.795	0.0029
548.085	0.0035
548.375	0.0029
548.666	0.0023
548.956	0.0042
549.246	0.003
549.536	0.0038
549.826	0.0027
550.116	0.0042
550.406	0.0032
550.695	0.0042
550.985	0.0035
551.275	0.0027
551.564	0.0019
551.854	0.0032
552.143	0.0034
552.433	0.0026
552.722	0.0029
553.011	0.0024
553.3	0.0026
553.589	0.0024
553.879	0.0017
554.167	0.0028
554.456	0.0021
554.745	0.0036
555.034	0.0028
555.323	0.0018
555.611	0.0029
555.9	0.003
556.188	0.0031
556.477	0.0026
556.765	0.003
557.053	0.0027
557.342	0.0034
557.63	0.002
557.918	0.0034
558.206	0.003
558.494	0.004
558.782	0.0035
559.069	0.0038
559.357	0.0046
559.645	0.0034
559.932	0.0024
560.22	0.0043
560.507	0.0019
560.795	0.0032
561.082	0.0025
561.37	0.0023
561.657	0.0029
561.944	0.0025
562.231	0.0032
562.518	0.0026
562.805	0.0019
563.092	0.0015
563.379	0.0018
563.665	0.0015
563.952	0.0009
564.239	0.0028
564.525	0.0021
564.811	0.0036
565.098	0.0019
565.384	0.0032
565.67	0.0038
565.957	0.0035
566.243	0.0031
566.529	0.0039
566.815	0.0023
567.101	0.0024
567.387	0.0023
567.672	0.0021
567.958	0.0034
568.244	0.0023
568.529	0.0023
568.815	0.002
569.1	0.0015
569.386	0.0028
569.671	0.0034
569.956	0.0022
570.242	0.0029
570.527	0.0025
570.812	0.0026
571.097	0.0027
571.382	0.0038
571.666	0.0032
571.951	0.0029
572.236	0.0032
572.521	0.0029
572.805	0.0026
573.09	0.0024
573.374	0.0024
573.659	0.0031
573.943	0.0035
574.227	0.0037
574.511	0.0033
574.795	0.003
575.079	0.0032
575.363	0.002
575.647	0.0024
575.931	0.0017
576.215	0.0007
576.499	0.0011
576.782	0.0023
577.066	0.0011
577.349	0.0021
577.633	0.0015
577.916	0.0026
578.2	0.0023
578.483	0.0027
578.766	0.0026
579.049	0.0029
579.332	0.0024
579.615	0.0029
579.898	0.0023
580.181	0.0025
580.464	0.0016
580.746	0.0024
581.029	0.003
581.312	0.003
581.594	0.0027
581.877	0.003
582.159	0.0025
582.441	0.0027
582.724	0.0026
583.006	0.0027
583.288	0.0015
583.57	0.003
583.852	0.0015
584.134	0.0026
584.416	0.0019
584.697	0.0024
584.979	0.0019
585.261	0.0017
585.542	0.0014
585.824	0.0015
586.105	0.0017
586.387	0.001
586.668	0.0012
586.949	0.0017
587.231	0.0021
587.512	0.0017
587.793	0.0026
588.074	0.0026
588.355	0.0018
588.636	0.0027
588.916	0.0019
589.197	0.0029
589.478	0.0028
589.758	0.0037
590.039	0.0022
590.319	0.0021
590.6	0.0022
590.88	0.0019
591.16	0.0015
591.441	0.0013
591.721	0.0026
592.001	0.0024
592.281	0.0015
592.561	0.0016
592.841	0.0015
593.12	0.0017
593.4	0.0011
593.68	0.0014
593.959	0.0022
594.239	0.0024
594.518	0.0027
594.798	0.0015
595.077	0.0033
595.356	0.0021
595.636	0.0018
595.915	0.0023
596.194	0.0022
596.473	0.0022
596.752	0.0023
597.031	0.0012
597.31	0.0022
597.588	0.0021
597.867	0.002
598.146	0.0014
598.424	0.0024
598.703	0.0013
598.981	0.0017
599.259	0.0013
599.538	0.0008
599.816	0.0011
600.094	0.0013
600.372	0.0012
600.65	0.0004
600.928	0.0007
601.206	-0.0008
601.484	-0
601.762	-0.0002
602.04	-0.0008
602.317	0.0005
602.595	0.0003
602.872	0.0005
603.15	0.0007
603.427	0.0018
603.704	0.002
603.982	0.0018
604.259	0.0019
604.536	0.0018
604.813	0.0011
605.09	0.001
605.367	0.0015
605.644	0.0003
605.921	0.0007
606.197	0.0006
606.474	0.0009
606.751	0.0006
607.027	0.0014
607.304	0.0006
607.58	0.0015
607.856	0.0005
608.133	0.0012
608.409	-0.0003
608.685	0.001
608.961	-0.0006
609.237	0.0006
609.513	0.0003
609.789	0.0005
610.065	0.0012
610.341	0.0007
610.616	0.0002
610.892	0.0001
611.167	0.0003
611.443	0.0009
611.718	0.001
611.994	0.0012
612.269	0.001
612.544	0.0008
612.819	0.0007
613.095	0.0002
613.37	0.0008
613.645	0.0017
613.919	0.0018
614.194	0.002
614.469	0.0012
614.744	0.0008
615.019	0.0013
615.293	0.0006
615.568	0
615.842	0.0008
616.116	0.0003
616.391	-0.0005
616.665	-0.0002
616.939	-0.0003
617.213	0.0012
617.488	0.0007
617.762	0.0005
618.035	0.0006
618.309	-0.0005
618.583	0.0007
618.857	0.0013
619.131	0.0012
619.404	0.0004
619.678	0.0011
619.951	0.0013
620.225	0.0008
620.498	0.0012
620.771	0.0011
621.045	0.0016
621.318	0.0012
621.591	0.0007
621.864	0.0014
622.137	0.0018
622.41	0.0014
622.683	0.0019
622.956	0.0006
623.228	0.0006
623.501	0.0015
623.774	-0.0007
624.046	0.0002
624.319	0.0006
624.591	-0.0001
624.863	0.0004
625.136	-0.0005
625.408	0.0008
625.68	0.0008
625.952	0.0013
626.224	0.0006
626.496	-0
626.768	0.0005
627.04	-0.0003
627.311	-0
627.583	0.0003
627.855	0.0008
628.126	0.0006
628.398	-0.0001
628.669	-0.0012
628.941	0.0004
629.212	0.0002
629.483	0.0017
629.755	0.0005
630.026	0.0015
630.297	0.0006
630.568	0.0001
630.839	0.0021
631.11	-0.0003
631.38	0.0007
631.651	0.0008
631.922	0.0019
632.192	0.0003
632.463	0.0007
632.733	0.0007
633.004	0.0002
633.274	-0.0007
633.545	-0.0004
633.815	0.0006
634.085	0.0003
634.355	0.0002
634.625	-0.0004
634.895	0.0007
635.165	0.0005
635.435	0.0009
635.705	-0.001
635.974	-0.001
636.244	-0.0012
636.514	0.0016
636.783	0.0005
637.053	0.0015
637.322	0.001
637.591	0.0013
637.861	-0.0002
638.13	0.0008
638.399	0.0011
638.668	0.0016
638.937	0.0006
639.206	0.0007
639.475	0.0002
639.744	0.0013
640.013	0.0017
640.281	0.0023
640.55	0.0017
640.819	0.0019
641.087	0.0017
641.356	0.002
641.624	0.0028
641.892	0.0011
642.161	0.0005
642.429	0.0009
642.697	0.0001
642.965	0.0007
643.233	0.0013
643.501	0.0008
643.769	0.0006
644.037	0.0011
644.305	0.0006
644.572	0.0017
644.84	-0.0005
645.108	-0.0003
645.375	-0.0016
645.643	-0.0021
645.91	-0.0001
646.177	-0.0002
646.445	-0.0024
646.712	-0.0013
646.979	-0.001
647.246	-0.0015
647.513	0.0001
647.78	-0.0005
648.047	0.0012
648.314	0.0022
648.58	0.0016
648.847	0.0015
649.114	0.0011
649.38	0.0005
649.647	-0.0003
649.913	0.0002
650.18	0.0004
650.446	0.0003
650.712	0.0006
650.978	-0.0002
651.245	0.0006
651.511	0.0009
651.777	0.0005
652.043	0.002
652.309	0.0002
652.574	0.0007
652.84	-0.0004
653.106	-0.0004
653.371	-0.0012
653.637	-0.0016
653.903	0
654.168	0.0001
654.433	0.0008
654.699	0.0019
654.964	0.0019
655.229	0.0006
655.494	0.0016
655.759	0.0011
656.024	0.0012
656.289	-0
656.554	0.0011
656.819	0.0001
657.084	0.0016
657.349	-0.0001
657.613	0.001
657.878	0.0006
658.142	-0.0006
658.407	0.0007
658.671	0.0003
658.936	0.0005
659.2	0.0003
659.464	0.0015
659.728	0.0015
659.992	0.0012
660.256	0.0019
660.52	-0.0001
660.784	0.0004
661.048	0.0018
661.312	0.0017
661.575	0.0009
661.839	0.0007
662.103	0.0007
662.366	0.0014
662.63	0.0012
662.893	0.001
663.156	0.0009
663.42	0.0013
663.683	0.0007
663.946	0.0011
664.209	0.0018
664.472	0.0011
664.735	0.002
664.998	0.0015
665.261	0.0014
665.524	0.0001
665.786	0.0006
666.049	0.0005
666.312	0.0017
666.574	0.0021
666.837	0.002
667.099	0.0012
667.361	0.0002
667.624	-0.0008
667.886	-0.0004
668.148	0.0006
668.41	0.0013
668.672	0.0003
668.934	0.0014
669.196	0.0006
669.458	-0.0001
669.72	0.001
669.982	0.0004
670.243	-0
670.505	0.0006
670.766	-0.0003
671.028	0.0013
671.289	0.0003
671.551	-0
671.812	0.0007
672.073	0.0007
672.334	0.0001
672.596	0.0017
672.857	0.0013
673.118	0.0009
673.379	0.0017
673.639	0.0009
673.9	0.0002
674.161	0.002
674.422	0.0012
674.682	0.0017
674.943	0.0022
675.203	0.0024
675.464	0.0028
675.724	0.0016
675.985	0.0021
676.245	0.0021
676.505	-0.0001
676.765	0.0005
677.025	-0.0001
677.285	-0.0006
677.545	0.0002
677.805	-0.0006
678.065	-0.0005
678.325	0.0009
678.585	0.0005
678.844	0.0003
679.104	0.0011
679.363	0.0004
679.623	0.0002
679.882	0.0001
680.142	0.0003
680.401	0.0008
680.66	0.0007
680.919	0.0003
681.178	0.0006
681.437	0.0011
681.696	0.0005
681.955	0.0011
682.214	0.002
682.473	0.0024
682.732	0.0015
682.99	-0.0002
683.249	0.0015
683.508	0.001
683.766	0.0014
684.024	0.0007
684.283	0.0002
684.541	0.0007
684.799	0.001
685.058	0.0014
685.316	0.0012
685.574	0.0009
685.832	0.0005
686.09	-0
686.348	-0.0005
686.606	-0.0007
686.863	-0.0008
687.121	-0.0017
687.379	-0.0018
687.636	-0.002
687.894	-0.0017
688.151	-0.0018
688.409	-0.002
688.666	-0.0016
688.923	-0.0024
689.181	-0.001
689.438	-0.0004
689.695	-0.0001
689.952	0.0014
690.209	0.0025
690.466	0.001
690.723	0.001
690.979	-0.0004
691.236	0.0007
691.493	0.0007
691.75	-0.0001
692.006	-0.0005
692.263	-0.0001
692.519	0.0002
692.775	-0
693.032	-0.0013
693.288	-0.0003
693.544	0
693.8	-0.0014
694.056	-0.0013
694.313	-0.0024
694.568	-0.001
694.824	-0.0024
695.08	-0.0015
695.336	-0.0008
695.592	-0.0005
695.847	0.0001
696.103	-0.002
696.359	-0.0005
696.614	-0.0004
696.869	-0.0001
697.125	0.0002
697.38	-0.0003
697.635	-0.0002
697.891	-0.0007
698.146	-0.0016
698.401	-0.0023
698.656	-0.0032
698.911	-0.0035
699.166	-0.004
699.42	-0.0038
699.675	-0.0028
699.93	-0.003
700.185	-0.0018
700.439	-0.001
700.694	-0.0011
700.948	-0.002
701.203	-0.0011
701.457	-0.0012
701.711	-0.0015
701.965	-0.0008
702.22	-0.0009
702.474	-0.0005
702.728	0.0009
702.982	0.0009
703.236	-0.0001
703.49	0.0007
703.743	-0
703.997	0.0007
704.251	0.001
704.504	0.0003
704.758	0.0017
705.012	0.0002
705.265	0.001
705.518	-0.0009
705.772	0.0002
706.025	0.0004
706.278	0.0003
706.531	-0
706.785	-0.0001
707.038	-0.0011
707.291	-0
707.543	-0.0007
707.796	-0.0006
708.049	-0.0002
708.302	-0.0003
708.555	-0.0007
708.807	-0.0002
709.06	-0.0015
709.312	-0.0007
709.565	-0.0015
709.817	-0.0014
710.069	-0.0017
710.322	-0.0025
710.574	-0.001
710.826	-0.001
711.078	-0.0002
711.33	0.0002
711.582	0.0008
711.834	-0.0004
712.086	-0.001
712.338	-0.0021
712.59	-0.0016
712.841	-0.0012
713.093	-0.0005
713.344	-0.0022
713.596	-0.0009
713.847	-0.0009
714.099	-0.0005
714.35	-0.0018
714.601	-0.0017
714.853	-0.0019
715.104	-0.0022
715.355	-0.0021
715.606	-0.0015
715.857	-0.0022
716.108	-0.0021
716.359	-0.0029
716.609	-0.0023
716.86	-0.0027
717.111	-0.0018
717.361	-0.0021
717.612	-0.002
717.863	-0.0014
718.113	-0.0025
718.363	-0.0023
718.614	-0.0027
718.864	-0.0025
719.114	-0.002
719.364	-0.002
719.614	-0.0018
719.865	-0.0023
720.114	-0.0033
720.364	-0.0034
720.614	-0.0028
720.864	-0.0028
721.114	-0.0013
721.364	-0.0026
721.613	-0.0016
721.863	-0.0019
722.112	-0.0018
722.362	-0.0029
722.611	-0.0032
722.86	-0.0039
723.11	-0.0037
723.359	-0.0035
723.608	-0.0027
723.857	-0.0025
724.106	-0.0025
724.355	-0.0021
724.604	-0.0016
724.853	-0.0025
725.102	-0.0029
725.351	-0.0016
725.599	-0.0013
725.848	-0.0005
726.097	-0.0001
726.345	0.0015
726.594	0.0017
726.842	0.0011
727.09	0.0006
727.339	0.0003
727.587	-0.0006
727.835	-0.0011
728.083	-0.0006
728.331	-0.002
728.579	-0.0015
728.827	-0.0009
729.075	-0.0008
729.323	-0.0003
729.571	0.001
729.818	0.0012
730.066	0.001
730.314	0.001
730.561	-0.0002
730.809	-0.0016
731.056	-0.0011
731.303	-0.001
731.551	-0.0014
731.798	-0.0017
732.045	-0.0006
732.292	-0.0015
732.539	-0.0015
732.786	-0.0006
733.033	-0.0013
733.28	-0.0009
733.527	-0.0011
733.774	-0.0011
734.021	-0.0003
734.267	-0.0008
734.514	-0
734.76	0.0002
735.007	-0.0013
735.253	-0.001
735.5	-0.0003
735.746	-0.0001
735.992	-0.0007
736.238	-0.001
736.485	-0.0017
736.731	-0.0025
736.977	-0.0014
737.223	-0.0015
737.469	-0.002
737.715	-0.0015
737.96	-0.0012
738.206	-0.0003
738.452	0.0015
738.697	0.0015
738.943	0.0004
739.189	0.0006
739.434	0
739.679	0.0004
739.925	0.0004
740.17	0.0006
740.415	0.0007
740.66	-0.0003
740.906	-0.0002
741.151	-0.0002
741.396	-0.0012
741.641	-0.0008
741.886	-0.0018
742.13	-0.0016
742.375	-0.0013
742.62	-0.0017
742.865	-0.001
743.109	-0.0025
743.354	-0.0038
743.598	-0.0031
743.843	-0.0027
744.087	-0.003
744.331	-0.0037
744.576	-0.0012
744.82	-0.0039
745.064	-0.0039
745.308	-0.0033
745.552	-0.0028
745.796	-0.0022
746.04	-0.0027
746.284	-0.003
746.528	-0.0036
746.771	-0.0043
747.015	-0.0034
747.259	-0.0039
747.502	-0.003
747.746	-0.0026
747.989	-0.0028
748.233	-0.0034
748.476	-0.004
748.719	-0.0047
748.963	-0.0043
749.206	-0.0029
749.449	-0.0034
749.692	-0.0024
749.935	-0.0022
750.178	-0.002
750.421	-0.0031
750.664	-0.0048
750.906	-0.0052
751.149	-0.0051
751.392	-0.0051
751.635	-0.0037
751.877	-0.0029
752.12	-0.0027
752.362	-0.0027
752.604	-0.003
752.847	-0.0026
753.089	-0.0025
753.331	-0.0024
753.573	-0.0014
753.816	-0.0004
754.058	-0.0018
754.3	-0.0022
754.542	-0.0026
754.783	-0.0025
755.025	-0.0033
755.267	-0.0045
755.509	-0.0049
755.75	-0.0046
755.992	-0.0049
756.234	-0.0044
756.475	-0.0042
756.716	-0.0021
756.958	-0.0013
757.199	-0.0017
757.44	-0.0033
757.682	-0.0027
757.923	-0.002
758.164	-0.0022
758.405	-0.0017
758.646	-0.0019
758.887	-0.0013
759.128	-0.0018
759.369	-0.0013
759.609	-0.0011
759.85	-0.0024
760.091	-0.0014
760.331	-0.0012
760.572	-0.0009
760.812	-0.0014
761.053	-0.0011
761.293	-0.0007
761.533	-0.0014
761.774	0.0004
762.014	-0
762.254	0.0001
762.494	0.0011
762.734	0
762.974	-0.0003
763.214	-0.0009
763.454	-0.0012
763.694	-0.0005
763.933	-0.0003
764.173	-0.0002
764.413	0.001
764.652	-0.0004
764.892	-0.0017
765.131	-0.0014
765.371	-0.0014
765.61	-0.001
765.849	-0.0022
766.089	-0.0024
766.328	-0.0026
766.567	-0.0018
766.806	-0.0021
767.045	-0.0001
767.284	0.0005
767.523	-0.0002
767.762	-0.0014
768.001	-0.0004
768.239	-0.0006
768.478	0
768.717	-0.001
768.955	-0.0018
769.194	-0.0016
769.432	-0.0011
769.671	-0.0014
769.909	-0.0005
770.148	-0.0017
770.386	0.0011
770.624	0.0009
770.862	0.0012
771.1	0.001
771.338	0.0013
771.576	0.0014
771.814	0.0002
772.052	-0.0014
772.29	-0.0019
772.528	-0.0017
772.765	0.0001
773.003	-0.0004
773.24	-0.0004
773.478	-0.0001
773.716	0.0002
773.953	0.0007
774.19	0.0013
774.428	0.0007
774.665	0.0016
774.902	0.0008
775.139	0.0016
775.376	0.0005
775.613	0.0018
775.85	0.0014
776.087	0.0021
776.324	0.0026
776.561	0.0027
776.798	0.0029
777.034	0.0038
777.271	0.002
777.508	0.003
777.744	0.0009
777.981	0.0003
778.217	0.0006
778.454	0.0003
778.69	0.0009
778.926	0.0006
779.162	-0.0001
779.399	-0.0005
779.635	-0.001
779.871	-0.0011
780.107	-0.0003
780.343	-0.0007
780.579	0.0006
780.814	-0.0002
781.05	-0.0001
781.286	-0.0005
781.522	-0.0004
781.757	-0.0003
781.993	-0.0002
782.228	0.0012
782.464	0.0012
782.699	0.0005
782.934	0.0012
783.17	0.0013
783.405	0.0006
783.64	0.0004
783.875	-0.0002
784.11	0.0002
784.345	-0.0005
784.58	-0.0009
784.815	0.0005
785.05	-0.0014
785.285	-0.001
785.52	-0.0011
785.754	-0.0003
785.989	-0.0006
786.223	-0.0008
786.458	-0.001
786.692	-0.0006
786.927	0.0001
787.161	0.0003
787.396	0.0018
787.63	0.0022
787.864	0.0019
788.098	0.0008
788.332	0.0013
788.566	0.0001
788.8	0.0001
789.034	-0.0002
789.268	-0
789.502	0.0009
789.736	0.0008
789.969	0.0004
790.203	0.0003
790.437	-0.0003
790.67	-0.0003
790.904	-0.0009
791.137	-0.0008
791.37	-0
791.604	-0.0003
791.837	-0.0007
792.07	-0.0011
792.303	-0.0003
792.537	-0.0018
792.77	-0.0018
793.003	-0.0026
793.236	-0.0019
793.469	-0.0002
793.701	-0.0008
793.934	-0.0014
794.167	-0.0016
794.4	-0.001
794.632	-0.0011
794.865	-0.0019
795.097	-0.0013
795.33	-0.0014
795.562	-0.0006
795.795	-0.0005
796.027	-0.0013
796.259	-0.0017
796.491	-0.0027
796.724	-0.0021
796.956	-0.0017
797.188	-0.0015
797.42	-0.002
797.652	-0.0021
797.883	-0.0019
798.115	-0.0014
798.347	-0.0011
798.579	-0.0013
798.81	-0.0013
799.042	-0.0006
799.274	-0
799.505	0.0009
799.737	0.0006
799.968	0.0015
800.199	0.002
800.431	0.0027
800.662	0.0021
800.893	0.0021
801.124	0.0022
801.355	0.0016
801.586	0.0029
801.817	0.001
802.048	0.0014
802.279	0.0013
802.51	0.0001
802.741	0.001
802.971	0.0008
803.202	0.0002
803.433	-0.0008
803.663	-0.0001
803.894	-0.0003
804.124	0.0001
804.354	-0.0005
804.585	-0.0001
804.815	-0.0001
805.045	-0.0011
805.275	-0.0006
805.506	-0.0664
805.736	0.0943
805.966	0.4246
806.196	0.2771
