Data from 03 0.5 mM K2Cr2O7 0.2 mM BQDS 1 M H2SO4 5 min_Absorbance_0052.txt Node
Date: Thu Dec 09 20:06:44 EST 2021
User: kwabilab-user
Spectrometer: HDX00518
Trigger mode: 0
Integration Time (sec): 5.000000E-2
Scans to average: 50
Nonlinearity correction enabled: false
Boxcar width: 0
Storing dark spectrum: false
XAxis mode: Wavelengths
Number of Pixels in Spectrum: 2068
>>>>>Begin Spectral Data<<<<<
195.27	0.5091
195.642	0.1423
196.014	0.1517
196.386	0.3783
196.758	0.0626
197.129	0.0373
197.501	0.0824
197.872	0.1041
198.244	0.1162
198.615	0.1295
198.986	0.1224
199.357	0.1209
199.728	0.1369
200.099	0.1303
200.47	0.1385
200.841	0.1267
201.212	0.1388
201.582	0.1443
201.953	0.1225
202.323	0.1426
202.694	0.1307
203.064	0.1223
203.434	0.159
203.804	0.1364
204.174	0.134
204.544	0.1484
204.914	0.1381
205.284	0.1393
205.653	0.1482
206.023	0.1554
206.393	0.1475
206.762	0.1314
207.131	0.1627
207.501	0.1505
207.87	0.1528
208.239	0.1319
208.608	0.1597
208.977	0.1394
209.346	0.1641
209.715	0.1624
210.083	0.1439
210.452	0.1637
210.82	0.1666
211.189	0.1609
211.557	0.1559
211.925	0.157
212.294	0.1655
212.662	0.1469
213.03	0.1835
213.398	0.1984
213.766	0.201
214.133	0.1928
214.501	0.1955
214.869	0.2022
215.236	0.2121
215.604	0.2139
215.971	0.2413
216.338	0.2524
216.705	0.2527
217.072	0.2828
217.439	0.2816
217.806	0.332
218.173	0.3443
218.54	0.3525
218.907	0.3898
219.273	0.4193
219.64	0.4369
220.006	0.4911
220.373	0.5018
220.739	0.5397
221.105	0.5913
221.471	0.6118
221.837	0.6461
222.203	0.6983
222.569	0.7293
222.935	0.7844
223.3	0.8003
223.666	0.8234
224.031	0.8769
224.397	0.8892
224.762	0.9232
225.127	0.9533
225.493	0.9888
225.858	0.9838
226.223	1.0134
226.588	1.0444
226.952	1.0487
227.317	1.0843
227.682	1.0535
228.046	1.0756
228.411	1.0902
228.775	1.1087
229.14	1.0911
229.504	1.0988
229.868	1.097
230.232	1.1036
230.596	1.094
230.96	1.1047
231.324	1.0903
231.688	1.0845
232.052	1.0864
232.415	1.0698
232.779	1.0733
233.142	1.0693
233.505	1.0652
233.869	1.0499
234.232	1.0461
234.595	1.0318
234.958	1.0263
235.321	1.0182
235.684	1.0139
236.047	1.0099
236.409	0.9994
236.772	0.9902
237.134	0.9828
237.497	0.9698
237.859	0.9686
238.222	0.9554
238.584	0.9527
238.946	0.943
239.308	0.933
239.67	0.924
240.032	0.9201
240.393	0.9141
240.755	0.9074
241.117	0.9025
241.478	0.8944
241.84	0.889
242.201	0.8821
242.562	0.8738
242.924	0.8717
243.285	0.8669
243.646	0.8623
244.007	0.8568
244.368	0.8577
244.728	0.8485
245.089	0.8468
245.45	0.8411
245.81	0.8382
246.171	0.8369
246.531	0.8324
246.891	0.8301
247.252	0.8263
247.612	0.8266
247.972	0.8187
248.332	0.8189
248.692	0.8154
249.051	0.8147
249.411	0.8138
249.771	0.8128
250.13	0.8057
250.49	0.8069
250.849	0.8078
251.208	0.8034
251.568	0.8031
251.927	0.8038
252.286	0.8009
252.645	0.8011
253.004	0.7993
253.363	0.7964
253.721	0.8007
254.08	0.7981
254.439	0.7944
254.797	0.7936
255.155	0.7932
255.514	0.7959
255.872	0.7931
256.23	0.793
256.588	0.7946
256.946	0.7906
257.304	0.7872
257.662	0.792
258.02	0.7868
258.377	0.7898
258.735	0.7872
259.093	0.7848
259.45	0.7865
259.807	0.7865
260.165	0.7863
260.522	0.7808
260.879	0.7839
261.236	0.7829
261.593	0.7812
261.95	0.7795
262.306	0.7782
262.663	0.7755
263.02	0.7746
263.376	0.7727
263.733	0.7738
264.089	0.7707
264.445	0.7684
264.802	0.7667
265.158	0.7675
265.514	0.7649
265.87	0.7629
266.226	0.7621
266.581	0.7595
266.937	0.7577
267.293	0.7544
267.648	0.7497
268.004	0.7488
268.359	0.7492
268.714	0.7449
269.07	0.7414
269.425	0.7385
269.78	0.7365
270.135	0.7354
270.49	0.7302
270.844	0.73
271.199	0.7257
271.554	0.7219
271.908	0.719
272.263	0.7145
272.617	0.7142
272.972	0.7086
273.326	0.7043
273.68	0.7015
274.034	0.698
274.388	0.6951
274.742	0.6907
275.096	0.6895
275.45	0.6824
275.803	0.6785
276.157	0.6759
276.51	0.6718
276.864	0.6651
277.217	0.6612
277.571	0.6577
277.924	0.6519
278.277	0.6503
278.63	0.6434
278.983	0.6397
279.336	0.6328
279.688	0.6293
280.041	0.6229
280.394	0.6196
280.746	0.613
281.099	0.6092
281.451	0.6029
281.803	0.5979
282.156	0.5939
282.508	0.5861
282.86	0.5834
283.212	0.5758
283.564	0.5716
283.916	0.5658
284.267	0.5599
284.619	0.553
284.971	0.5487
285.322	0.5426
285.673	0.5378
286.025	0.5323
286.376	0.5274
286.727	0.5196
287.078	0.513
287.429	0.5083
287.78	0.5023
288.131	0.4968
288.482	0.4896
288.833	0.4835
289.183	0.4788
289.534	0.4722
289.884	0.4665
290.235	0.459
290.585	0.454
290.935	0.4479
291.285	0.4423
291.635	0.436
291.985	0.4304
292.335	0.4254
292.685	0.418
293.035	0.413
293.384	0.4056
293.734	0.4004
294.083	0.3941
294.433	0.3888
294.782	0.3832
295.131	0.3778
295.48	0.3709
295.829	0.365
296.179	0.3592
296.527	0.3537
296.876	0.3494
297.225	0.3431
297.574	0.3383
297.922	0.3324
298.271	0.3269
298.619	0.3214
298.968	0.3165
299.316	0.3122
299.664	0.307
300.012	0.302
300.36	0.2972
300.708	0.293
301.056	0.2887
301.404	0.2829
301.752	0.2796
302.099	0.2763
302.447	0.2713
302.794	0.2676
303.142	0.2634
303.489	0.2594
303.836	0.2562
304.183	0.2526
304.531	0.2496
304.878	0.2459
305.224	0.2427
305.571	0.2393
305.918	0.2365
306.265	0.2341
306.611	0.2315
306.958	0.2285
307.304	0.2257
307.651	0.2235
307.997	0.2218
308.343	0.2198
308.689	0.2179
309.035	0.2161
309.381	0.2148
309.727	0.2131
310.073	0.2117
310.419	0.2101
310.764	0.209
311.11	0.2078
311.455	0.2064
311.801	0.2062
312.146	0.2047
312.491	0.2037
312.837	0.2036
313.182	0.2026
313.527	0.2029
313.872	0.2029
314.216	0.2023
314.561	0.2025
314.906	0.2018
315.251	0.2019
315.595	0.2018
315.94	0.2024
316.284	0.2033
316.628	0.203
316.972	0.2039
317.317	0.2044
317.661	0.206
318.005	0.2055
318.348	0.2059
318.692	0.2072
319.036	0.2084
319.38	0.2094
319.723	0.2103
320.067	0.2112
320.41	0.2126
320.754	0.2138
321.097	0.2154
321.44	0.2167
321.783	0.2184
322.126	0.2196
322.469	0.2212
322.812	0.223
323.155	0.2247
323.498	0.2273
323.84	0.2288
324.183	0.2305
324.525	0.232
324.868	0.2332
325.21	0.2363
325.552	0.2371
325.894	0.2395
326.236	0.2418
326.578	0.2444
326.92	0.2461
327.262	0.2476
327.604	0.2499
327.946	0.2523
328.287	0.2543
328.629	0.2563
328.97	0.2588
329.312	0.2614
329.653	0.2633
329.994	0.2659
330.335	0.2683
330.676	0.2704
331.017	0.2735
331.358	0.2757
331.699	0.2781
332.04	0.2802
332.38	0.2825
332.721	0.2845
333.061	0.2874
333.402	0.2893
333.742	0.292
334.083	0.2939
334.423	0.2957
334.763	0.2976
335.103	0.3002
335.443	0.3017
335.783	0.3037
336.123	0.3054
336.462	0.3077
336.802	0.3087
337.141	0.3112
337.481	0.3128
337.82	0.3149
338.16	0.317
338.499	0.3193
338.838	0.3214
339.177	0.3234
339.516	0.3247
339.855	0.3263
340.194	0.3284
340.533	0.3302
340.872	0.3323
341.21	0.3338
341.549	0.3339
341.887	0.3364
342.226	0.337
342.564	0.338
342.902	0.3382
343.24	0.3395
343.578	0.341
343.916	0.3408
344.254	0.3416
344.592	0.3418
344.93	0.343
345.268	0.3433
345.605	0.3439
345.943	0.3442
346.28	0.3454
346.618	0.3447
346.955	0.3455
347.292	0.3467
347.629	0.3461
347.966	0.3472
348.303	0.3476
348.64	0.3475
348.977	0.347
349.314	0.3477
349.65	0.3475
349.987	0.3477
350.324	0.3476
350.66	0.3478
350.996	0.3466
351.333	0.3463
351.669	0.3455
352.005	0.3448
352.341	0.3438
352.677	0.3427
353.013	0.3421
353.349	0.3407
353.685	0.3393
354.02	0.3374
354.356	0.3356
354.691	0.3347
355.027	0.3333
355.362	0.332
355.697	0.3319
356.033	0.3295
356.368	0.3281
356.703	0.327
357.038	0.3257
357.373	0.3247
357.707	0.3241
358.042	0.3219
358.377	0.3207
358.711	0.3186
359.046	0.3181
359.38	0.3168
359.715	0.3151
360.049	0.3135
360.383	0.3116
360.717	0.31
361.051	0.3072
361.385	0.3054
361.719	0.3032
362.053	0.3008
362.387	0.2974
362.72	0.2958
363.054	0.2933
363.387	0.2916
363.721	0.2882
364.054	0.2864
364.387	0.2834
364.721	0.2809
365.054	0.2783
365.387	0.2756
365.72	0.2726
366.053	0.2715
366.385	0.269
366.718	0.2666
367.051	0.2649
367.383	0.2618
367.716	0.2607
368.048	0.259
368.381	0.2561
368.713	0.2548
369.045	0.2521
369.377	0.2515
369.709	0.2484
370.041	0.2468
370.373	0.2445
370.705	0.2425
371.037	0.2402
371.368	0.238
371.7	0.2355
372.031	0.2329
372.363	0.2306
372.694	0.2281
373.025	0.2252
373.356	0.2217
373.688	0.2189
374.019	0.2158
374.35	0.2134
374.68	0.2106
375.011	0.2077
375.342	0.2051
375.673	0.2016
376.003	0.2002
376.334	0.1972
376.664	0.1942
376.995	0.1925
377.325	0.1899
377.655	0.1884
377.985	0.1851
378.315	0.1829
378.645	0.182
378.975	0.1791
379.305	0.1773
379.635	0.1751
379.964	0.1738
380.294	0.1724
380.623	0.17
380.953	0.1678
381.282	0.1661
381.611	0.1639
381.941	0.1632
382.27	0.1602
382.599	0.1585
382.928	0.1562
383.257	0.1546
383.585	0.1524
383.914	0.1499
384.243	0.148
384.571	0.145
384.9	0.1432
385.228	0.1411
385.557	0.1385
385.885	0.1363
386.213	0.134
386.541	0.1311
386.869	0.129
387.197	0.1277
387.525	0.1241
387.853	0.1228
388.181	0.1201
388.508	0.1181
388.836	0.1158
389.164	0.1146
389.491	0.1133
389.818	0.1114
390.146	0.1091
390.473	0.1073
390.8	0.1061
391.127	0.1042
391.454	0.1029
391.781	0.1018
392.108	0.1001
392.435	0.0987
392.761	0.0972
393.088	0.0957
393.415	0.0945
393.741	0.0937
394.067	0.092
394.394	0.0911
394.72	0.0902
395.046	0.0892
395.372	0.0882
395.698	0.0859
396.024	0.0853
396.35	0.0838
396.676	0.0822
397.001	0.0814
397.327	0.0794
397.653	0.0789
397.978	0.0775
398.303	0.0761
398.629	0.0754
398.954	0.0742
399.279	0.0737
399.604	0.0722
399.929	0.071
400.254	0.0697
400.579	0.0696
400.904	0.0678
401.229	0.0678
401.553	0.0662
401.878	0.0653
402.202	0.065
402.527	0.0643
402.851	0.0634
403.175	0.0624
403.5	0.0619
403.824	0.0614
404.148	0.0606
404.472	0.0605
404.796	0.0601
405.119	0.06
405.443	0.0593
405.767	0.0584
406.09	0.0586
406.414	0.0581
406.737	0.0571
407.061	0.0572
407.384	0.0578
407.707	0.0571
408.03	0.0563
408.353	0.0569
408.676	0.0564
408.999	0.0557
409.322	0.0559
409.645	0.056
409.968	0.0556
410.29	0.0549
410.613	0.0554
410.935	0.0557
411.258	0.0551
411.58	0.0546
411.902	0.055
412.224	0.0548
412.546	0.0547
412.868	0.0553
413.19	0.0545
413.512	0.0537
413.834	0.054
414.156	0.0541
414.477	0.0546
414.799	0.0535
415.121	0.0549
415.442	0.0542
415.763	0.0544
416.085	0.0545
416.406	0.0545
416.727	0.0538
417.048	0.055
417.369	0.0543
417.69	0.0548
418.011	0.0546
418.331	0.055
418.652	0.0552
418.973	0.0552
419.293	0.0553
419.614	0.0556
419.934	0.0563
420.254	0.056
420.574	0.0553
420.895	0.0553
421.215	0.0559
421.535	0.0547
421.855	0.0554
422.174	0.0553
422.494	0.0553
422.814	0.0554
423.134	0.0562
423.453	0.056
423.773	0.0561
424.092	0.0565
424.411	0.0563
424.731	0.0565
425.05	0.0568
425.369	0.0567
425.688	0.057
426.007	0.0572
426.326	0.0573
426.644	0.0568
426.963	0.0574
427.282	0.0574
427.6	0.0571
427.919	0.0575
428.237	0.0578
428.556	0.0583
428.874	0.0576
429.192	0.0594
429.51	0.0579
429.828	0.0585
430.146	0.058
430.464	0.0586
430.782	0.0584
431.1	0.0581
431.418	0.0587
431.735	0.0586
432.053	0.0593
432.37	0.0591
432.688	0.0588
433.005	0.0593
433.322	0.0589
433.639	0.059
433.957	0.06
434.274	0.0591
434.591	0.0597
434.907	0.0596
435.224	0.0603
435.541	0.0605
435.858	0.0613
436.174	0.0605
436.491	0.0603
436.807	0.06
437.124	0.0604
437.44	0.0595
437.756	0.0593
438.072	0.0593
438.388	0.0596
438.704	0.0601
439.02	0.0592
439.336	0.06
439.652	0.0602
439.968	0.0597
440.283	0.0605
440.599	0.0605
440.914	0.0597
441.23	0.0594
441.545	0.059
441.86	0.0593
442.175	0.0595
442.491	0.0595
442.806	0.0592
443.121	0.0602
443.435	0.0598
443.75	0.0598
444.065	0.0592
444.38	0.0596
444.694	0.0592
445.009	0.0594
445.323	0.0599
445.638	0.0592
445.952	0.0591
446.266	0.0591
446.58	0.059
446.894	0.0587
447.208	0.0587
447.522	0.0584
447.836	0.0584
448.15	0.0579
448.464	0.0577
448.777	0.0581
449.091	0.0577
449.404	0.0576
449.718	0.0576
450.031	0.058
450.345	0.0576
450.658	0.0578
450.971	0.0573
451.284	0.0573
451.597	0.0575
451.91	0.057
452.223	0.0574
452.535	0.0569
452.848	0.0579
453.161	0.057
453.473	0.0569
453.786	0.0573
454.098	0.0566
454.411	0.0564
454.723	0.0565
455.035	0.056
455.347	0.0561
455.659	0.0553
455.971	0.0552
456.283	0.0547
456.595	0.0549
456.907	0.0551
457.218	0.0542
457.53	0.0546
457.841	0.0536
458.153	0.0546
458.464	0.0533
458.776	0.0542
459.087	0.0534
459.398	0.0531
459.709	0.0525
460.02	0.0528
460.331	0.0528
460.642	0.0517
460.953	0.0523
461.263	0.0517
461.574	0.0515
461.885	0.0523
462.195	0.0512
462.506	0.0516
462.816	0.0508
463.126	0.051
463.437	0.0508
463.747	0.0511
464.057	0.0509
464.367	0.05
464.677	0.0504
464.987	0.0489
465.296	0.0494
465.606	0.0489
465.916	0.0488
466.225	0.0483
466.535	0.0483
466.844	0.048
467.154	0.0473
467.463	0.0482
467.772	0.0462
468.081	0.0474
468.39	0.0469
468.699	0.0462
469.008	0.0459
469.317	0.046
469.626	0.0461
469.935	0.0451
470.243	0.0451
470.552	0.0455
470.86	0.0443
471.169	0.0433
471.477	0.044
471.785	0.0435
472.093	0.0438
472.402	0.0431
472.71	0.0426
473.018	0.0427
473.326	0.0424
473.633	0.0417
473.941	0.0407
474.249	0.0414
474.556	0.0413
474.864	0.041
475.171	0.0408
475.479	0.0401
475.786	0.04
476.094	0.0397
476.401	0.0398
476.708	0.0385
477.015	0.0393
477.322	0.0384
477.629	0.0389
477.936	0.0391
478.242	0.0377
478.549	0.0378
478.856	0.0373
479.162	0.037
479.469	0.0375
479.775	0.0355
480.081	0.0362
480.388	0.0358
480.694	0.0354
481	0.0354
481.306	0.036
481.612	0.0351
481.918	0.0353
482.224	0.0353
482.53	0.0337
482.835	0.0335
483.141	0.0329
483.446	0.0331
483.752	0.0335
484.057	0.0328
484.363	0.0326
484.668	0.0319
484.973	0.031
485.278	0.0319
485.583	0.0305
485.888	0.0306
486.193	0.0309
486.498	0.0311
486.803	0.0307
487.107	0.0294
487.412	0.0294
487.717	0.0287
488.021	0.0281
488.325	0.0281
488.63	0.0284
488.934	0.0282
489.238	0.0275
489.542	0.0271
489.846	0.0277
490.15	0.0262
490.454	0.0261
490.758	0.0261
491.062	0.0264
491.366	0.0257
491.669	0.025
491.973	0.0251
492.276	0.0256
492.58	0.0249
492.883	0.0237
493.186	0.0237
493.489	0.0237
493.792	0.0239
494.096	0.0235
494.399	0.0236
494.701	0.0233
495.004	0.0226
495.307	0.0228
495.61	0.0228
495.912	0.023
496.215	0.0225
496.517	0.0211
496.82	0.0219
497.122	0.0213
497.424	0.0216
497.727	0.0203
498.029	0.0209
498.331	0.02
498.633	0.0214
498.935	0.0198
499.237	0.0197
499.538	0.0191
499.84	0.0196
500.142	0.0194
500.443	0.0191
500.745	0.0189
501.046	0.0187
501.348	0.0183
501.649	0.0187
501.95	0.018
502.251	0.0172
502.552	0.0175
502.853	0.0174
503.154	0.017
503.455	0.0179
503.756	0.0167
504.057	0.0167
504.357	0.0167
504.658	0.0163
504.958	0.0161
505.259	0.0161
505.559	0.0157
505.859	0.0158
506.16	0.0161
506.46	0.0149
506.76	0.0153
507.06	0.0144
507.36	0.0157
507.66	0.0149
507.96	0.0138
508.259	0.0134
508.559	0.0141
508.859	0.0133
509.158	0.0143
509.457	0.0139
509.757	0.0132
510.056	0.0125
510.355	0.0113
510.655	0.0119
510.954	0.0118
511.253	0.013
511.552	0.0114
511.851	0.0117
512.149	0.0107
512.448	0.012
512.747	0.0105
513.045	0.0107
513.344	0.0105
513.642	0.0119
513.941	0.0108
514.239	0.011
514.537	0.0105
514.836	0.0109
515.134	0.0097
515.432	0.0103
515.73	0.0102
516.028	0.0089
516.326	0.0093
516.623	0.0096
516.921	0.0097
517.219	0.0102
517.516	0.0098
517.814	0.0093
518.111	0.0083
518.409	0.0083
518.706	0.0098
519.003	0.0081
519.3	0.0081
519.597	0.0085
519.894	0.0075
520.191	0.0083
520.488	0.0084
520.785	0.0076
521.082	0.0075
521.378	0.0079
521.675	0.0083
521.971	0.0075
522.268	0.0078
522.564	0.0074
522.861	0.0062
523.157	0.0068
523.453	0.0071
523.749	0.0062
524.045	0.0049
524.341	0.0063
524.637	0.0066
524.933	0.0062
525.229	0.0069
525.524	0.0058
525.82	0.0053
526.115	0.0052
526.411	0.0056
526.706	0.0048
527.002	0.0041
527.297	0.0037
527.592	0.0056
527.887	0.0043
528.182	0.0029
528.477	0.0044
528.772	0.0034
529.067	0.0044
529.362	0.0049
529.657	0.0038
529.951	0.0039
530.246	0.0042
530.54	0.0045
530.835	0.0045
531.129	0.0061
531.423	0.0041
531.718	0.0058
532.012	0.0041
532.306	0.0045
532.6	0.004
532.894	0.0041
533.188	0.0036
533.482	0.0043
533.775	0.0038
534.069	0.0025
534.363	0.0021
534.656	0.0035
534.95	0.0023
535.243	0.0037
535.536	0.0034
535.83	0.0026
536.123	0.0032
536.416	0.0038
536.709	0.003
537.002	0.0021
537.295	0.0015
537.588	0.0021
537.881	0.0021
538.173	0.0034
538.466	0.0019
538.759	0.0012
539.051	0.0019
539.344	0.0028
539.636	0.0024
539.928	0.0027
540.22	0.0025
540.513	0.0018
540.805	0.0021
541.097	0.0019
541.389	0.0028
541.681	0.0031
541.972	0.0021
542.264	0.0028
542.556	0.0026
542.847	0.0009
543.139	0.0023
543.431	0.0025
543.722	0.0018
544.013	0.0008
544.305	0.0029
544.596	0.0014
544.887	0.0016
545.178	0.0004
545.469	0.0005
545.76	0.0019
546.051	0.0024
546.342	0.001
546.632	0.0023
546.923	0.0025
547.214	0.0005
547.504	0.0011
547.795	0.0004
548.085	0.0021
548.375	0.0006
548.666	0.0017
548.956	0.0018
549.246	0.0004
549.536	0.0014
549.826	0.0015
550.116	0.0021
550.406	0.0021
550.695	0.0024
550.985	0.0017
551.275	0.0005
551.564	0.0013
551.854	0.0008
552.143	0.0014
552.433	0.0005
552.722	-0.0003
553.011	0.0002
553.3	0.0014
553.589	0.0008
553.879	0.0002
554.167	0.001
554.456	0
554.745	0.0009
555.034	0.0002
555.323	-0.0001
555.611	-0.0002
555.9	0.0007
556.188	0.0001
556.477	0.0005
556.765	0.0006
557.053	0.0007
557.342	0.0009
557.63	0
557.918	0.0001
558.206	0.0018
558.494	0.0017
558.782	0.0019
559.069	0.0014
559.357	0.002
559.645	0.0018
559.932	0.0017
560.22	0.0015
560.507	0.0001
560.795	0.0018
561.082	0.0005
561.37	0.0006
561.657	0.0015
561.944	0.0004
562.231	0.0006
562.518	0.0003
562.805	0
563.092	-0.0007
563.379	0.0007
563.665	-0.0003
563.952	0.0005
564.239	0.0019
564.525	0.0008
564.811	0.0016
565.098	0.0011
565.384	0.0013
565.67	0.0012
565.957	0.0016
566.243	0.0014
566.529	0.003
566.815	0.0012
567.101	0.0009
567.387	0.0015
567.672	-0.0002
567.958	0.0009
568.244	0.0009
568.529	0.0015
568.815	0.0011
569.1	0.0012
569.386	0.002
569.671	0.0024
569.956	0.0021
570.242	0.0018
570.527	0.0018
570.812	0.0018
571.097	0.0018
571.382	0.0027
571.666	0.0023
571.951	0.0024
572.236	0.0024
572.521	0.0021
572.805	0.0015
573.09	0.0007
573.374	0.0008
573.659	0.0023
573.943	0.0023
574.227	0.0018
574.511	0.0016
574.795	0.0021
575.079	0.0019
575.363	0.0011
575.647	0.0015
575.931	0.0015
576.215	0.0006
576.499	-0.0003
576.782	0.0015
577.066	-0
577.349	0.0015
577.633	0.0006
577.916	0.0014
578.2	0.002
578.483	0.0026
578.766	0.0014
579.049	0.0029
579.332	0.0015
579.615	0.0009
579.898	0.0014
580.181	0.0014
580.464	0.0009
580.746	0.0018
581.029	0.0028
581.312	0.0013
581.594	0.0015
581.877	0.0026
582.159	0.0016
582.441	0.0013
582.724	0.0011
583.006	0.0014
583.288	0.0001
583.57	0.0019
583.852	0.0008
584.134	0.0009
584.416	0.0009
584.697	0.001
584.979	0.0013
585.261	0.0008
585.542	0.0019
585.824	0.0011
586.105	0.0011
586.387	0.0017
586.668	0.0011
586.949	0.0006
587.231	0.0017
587.512	0.0014
587.793	0.0013
588.074	0.0013
588.355	0.0003
588.636	0.0011
588.916	0.0017
589.197	0.0018
589.478	0.0013
589.758	0.0007
590.039	0.0006
590.319	0.0009
590.6	0.0012
590.88	0.001
591.16	0.0004
591.441	-0.0009
591.721	0.0006
592.001	-0.0001
592.281	0.0008
592.561	0.0005
592.841	0.0006
593.12	0.0013
593.4	0.001
593.68	0.0009
593.959	0.0012
594.239	0.0015
594.518	0.0017
594.798	-0
595.077	0.0009
595.356	0.0005
595.636	0.0005
595.915	0.0008
596.194	0
596.473	0.0007
596.752	0.0006
597.031	-0.0004
597.31	-0.0005
597.588	0.0004
597.867	-0.0002
598.146	0.0008
598.424	0.0011
598.703	-0.0004
598.981	0.0001
599.259	0.0008
599.538	0.0004
599.816	0.0003
600.094	-0.0001
600.372	0.0009
600.65	0.0006
600.928	-0
601.206	-0.0011
601.484	0
601.762	-0.0009
602.04	-0.0017
602.317	-0.0009
602.595	-0
602.872	-0.0007
603.15	-0.0006
603.427	0.0001
603.704	0.001
603.982	0.001
604.259	-0.0002
604.536	0.0006
604.813	-0.0002
605.09	-0.0004
605.367	-0.0004
605.644	-0.0005
605.921	-0.0011
606.197	-0.001
606.474	-0.0003
606.751	-0.0006
607.027	-0.0005
607.304	-0.0005
607.58	-0.0006
607.856	-0.0001
608.133	0.0002
608.409	-0.0006
608.685	-0.0004
608.961	-0.0016
609.237	-0.0008
609.513	-0.0011
609.789	-0.0013
610.065	-0.0011
610.341	-0.0007
610.616	-0.0002
610.892	0.0002
611.167	0.0001
611.443	0.0002
611.718	0.0004
611.994	-0.0002
612.269	0.0005
612.544	-0.0002
612.819	-0.0006
613.095	-0.0005
613.37	-0.0003
613.645	0.0007
613.919	0.0006
614.194	0.0011
614.469	0.0005
614.744	-0.0001
615.019	-0.0002
615.293	0.0001
615.568	-0.0011
615.842	-0.0005
616.116	-0.0013
616.391	-0.0019
616.665	-0.0014
616.939	-0.0017
617.213	-0.0018
617.488	-0.0013
617.762	-0.0016
618.035	-0.0012
618.309	-0.0024
618.583	-0.001
618.857	-0.0022
619.131	-0.0022
619.404	-0.0022
619.678	-0.0026
619.951	-0.0025
620.225	-0.0017
620.498	-0.0012
620.771	-0.0019
621.045	-0.0013
621.318	-0.0021
621.591	-0.002
621.864	-0.0007
622.137	-0.0003
622.41	-0.0015
622.683	-0.0009
622.956	-0.0019
623.228	-0.0018
623.501	-0.0007
623.774	-0.0024
624.046	-0.0018
624.319	-0.0013
624.591	-0.0027
624.863	-0.0017
625.136	-0.0029
625.408	-0.0019
625.68	-0.0019
625.952	-0.0014
626.224	-0.0031
626.496	-0.0031
626.768	-0.0022
627.04	-0.0034
627.311	-0.0038
627.583	-0.0031
627.855	-0.0027
628.126	-0.0016
628.398	-0.0032
628.669	-0.0046
628.941	-0.0025
629.212	-0.0037
629.483	-0.0018
629.755	-0.003
630.026	-0.0032
630.297	-0.0026
630.568	-0.0034
630.839	-0.0021
631.11	-0.0039
631.38	-0.0042
631.651	-0.0042
631.922	-0.0036
632.192	-0.0032
632.463	-0.0042
632.733	-0.0035
633.004	-0.0035
633.274	-0.0034
633.545	-0.0034
633.815	-0.0036
634.085	-0.0032
634.355	-0.0031
634.625	-0.0025
634.895	-0.002
635.165	-0.0024
635.435	-0.0028
635.705	-0.0037
635.974	-0.0038
636.244	-0.0034
636.514	-0.0028
636.783	-0.0025
637.053	-0.0019
637.322	-0.0023
637.591	-0.0031
637.861	-0.0038
638.13	-0.0028
638.399	-0.0028
638.668	-0.0022
638.937	-0.0037
639.206	-0.0021
639.475	-0.0021
639.744	-0.0023
640.013	-0.0023
640.281	-0.0009
640.55	-0.0022
640.819	-0.002
641.087	-0.0021
641.356	-0.0022
641.624	-0.0023
641.892	-0.0035
642.161	-0.0036
642.429	-0.003
642.697	-0.0035
642.965	-0.0029
643.233	-0.0038
643.501	-0.0036
643.769	-0.0043
644.037	-0.004
644.305	-0.004
644.572	-0.0033
644.84	-0.0043
645.108	-0.0052
645.375	-0.0068
645.643	-0.0063
645.91	-0.006
646.177	-0.0052
646.445	-0.008
646.712	-0.0069
646.979	-0.0061
647.246	-0.0045
647.513	-0.0042
647.78	-0.0034
648.047	-0.0033
648.314	-0.0024
648.58	-0.0022
648.847	-0.0033
649.114	-0.0037
649.38	-0.0044
649.647	-0.0039
649.913	-0.0041
650.18	-0.0056
650.446	-0.0061
650.712	-0.0055
650.978	-0.0056
651.245	-0.0055
651.511	-0.004
651.777	-0.0037
652.043	-0.0031
652.309	-0.0038
652.574	-0.0041
652.84	-0.0052
653.106	-0.0057
653.371	-0.0054
653.637	-0.0063
653.903	-0.0055
654.168	-0.0057
654.433	-0.0045
654.699	-0.0026
654.964	-0.0026
655.229	-0.0019
655.494	-0.0029
655.759	-0.0037
656.024	0.0012
656.289	-0
656.554	0.0021
656.819	-0.0026
657.084	-0.0036
657.349	-0.0055
657.613	-0.004
657.878	-0.0038
658.142	-0.0046
658.407	-0.0042
658.671	-0.004
658.936	-0.0029
659.2	-0.0028
659.464	-0.0028
659.728	-0.0032
659.992	-0.0046
660.256	-0.0042
660.52	-0.0052
660.784	-0.0042
661.048	-0.0039
661.312	-0.0041
661.575	-0.0049
661.839	-0.005
662.103	-0.0054
662.366	-0.0054
662.63	-0.0052
662.893	-0.0032
663.156	-0.0043
663.42	-0.0035
663.683	-0.0046
663.946	-0.004
664.209	-0.0047
664.472	-0.0031
664.735	-0.0034
664.998	-0.0028
665.261	-0.0042
665.524	-0.005
665.786	-0.0041
666.049	-0.0028
666.312	-0.0028
666.574	-0.0032
666.837	-0.0038
667.099	-0.0029
667.361	-0.0047
667.624	-0.0055
667.886	-0.0048
668.148	-0.0048
668.41	-0.0033
668.672	-0.0035
668.934	-0.0034
669.196	-0.0027
669.458	-0.0024
669.72	-0.0027
669.982	-0.0028
670.243	-0.0039
670.505	-0.0037
670.766	-0.005
671.028	-0.0032
671.289	-0.004
671.551	-0.0043
671.812	-0.0035
672.073	-0.003
672.334	-0.0036
672.596	-0.0028
672.857	-0.0019
673.118	-0.0019
673.379	-0.002
673.639	-0.0032
673.9	-0.0036
674.161	-0.004
674.422	-0.0048
674.682	-0.0051
674.943	-0.0051
675.203	-0.0044
675.464	-0.004
675.724	-0.0032
675.985	-0.0034
676.245	-0.0034
676.505	-0.0045
676.765	-0.0039
677.025	-0.0046
677.285	-0.0049
677.545	-0.005
677.805	-0.005
678.065	-0.0034
678.325	-0.0024
678.585	-0.0031
678.844	-0.0035
679.104	-0.0027
679.363	-0.0042
679.623	-0.0042
679.882	-0.0039
680.142	-0.0029
680.401	-0.0034
680.66	-0.0036
680.919	-0.0044
681.178	-0.0042
681.437	-0.0036
681.696	-0.0031
681.955	-0.0023
682.214	-0.0021
682.473	-0.0031
682.732	-0.0027
682.99	-0.0042
683.249	-0.0041
683.508	-0.0042
683.766	-0.0036
684.024	-0.0035
684.283	-0.0034
684.541	-0.0034
684.799	-0.0031
685.058	-0.0032
685.316	-0.0033
685.574	-0.0031
685.832	-0.0035
686.09	-0.0037
686.348	-0.0046
686.606	-0.0053
686.863	-0.0052
687.121	-0.0057
687.379	-0.005
687.636	-0.0053
687.894	-0.0042
688.151	-0.0056
688.409	-0.0056
688.666	-0.0048
688.923	-0.0054
689.181	-0.0056
689.438	-0.0037
689.695	-0.0033
689.952	-0.0023
690.209	-0.0029
690.466	-0.0033
690.723	-0.0041
690.979	-0.0048
691.236	-0.0043
691.493	-0.0037
691.75	-0.0043
692.006	-0.004
692.263	-0.0045
692.519	-0.0041
692.775	-0.0047
693.032	-0.0045
693.288	-0.0048
693.544	-0.0044
693.8	-0.0054
694.056	-0.0061
694.313	-0.0061
694.568	-0.0047
694.824	-0.0062
695.08	-0.0058
695.336	-0.0047
695.592	-0.0056
695.847	-0.0053
696.103	-0.0076
696.359	-0.006
696.614	-0.006
696.869	-0.0052
697.125	-0.0051
697.38	-0.0034
697.635	-0.0043
697.891	-0.0044
698.146	-0.006
698.401	-0.0065
698.656	-0.0063
698.911	-0.0062
699.166	-0.0083
699.42	-0.0076
699.675	-0.0068
699.93	-0.0063
700.185	-0.0056
700.439	-0.0041
700.694	-0.0038
700.948	-0.0047
701.203	-0.0042
701.457	-0.0052
701.711	-0.0056
701.965	-0.0045
702.22	-0.0045
702.474	-0.0034
702.728	-0.0027
702.982	-0.0029
703.236	-0.0038
703.49	-0.0042
703.743	-0.0052
703.997	-0.0058
704.251	-0.005
704.504	-0.0055
704.758	-0.0046
705.012	-0.0054
705.265	-0.0051
705.518	-0.006
705.772	-0.0053
706.025	-0.005
706.278	-0.0054
706.531	-0.0046
706.785	-0.0049
707.038	-0.0051
707.291	-0.0048
707.543	-0.0058
707.796	-0.0045
708.049	-0.0053
708.302	-0.0046
708.555	-0.0039
708.807	-0.0021
709.06	-0.004
709.312	-0.0034
709.565	-0.0041
709.817	-0.0046
710.069	-0.0049
710.322	-0.0056
710.574	-0.0046
710.826	-0.0039
711.078	-0.0026
711.33	-0.0021
711.582	-0.0009
711.834	-0.0037
712.086	-0.004
712.338	-0.0047
712.59	-0.005
712.841	-0.0056
713.093	-0.0043
713.344	-0.0065
713.596	-0.0053
713.847	-0.0047
714.099	-0.0041
714.35	-0.0062
714.601	-0.0064
714.853	-0.0059
715.104	-0.0063
715.355	-0.0063
715.606	-0.0045
715.857	-0.006
716.108	-0.0055
716.359	-0.0061
716.609	-0.006
716.86	-0.0072
717.111	-0.0066
717.361	-0.0068
717.612	-0.0076
717.863	-0.0073
718.113	-0.0083
718.363	-0.0081
718.614	-0.0078
718.864	-0.0078
719.114	-0.0076
719.364	-0.0071
719.614	-0.0076
719.865	-0.0074
720.114	-0.0094
720.364	-0.0075
720.614	-0.0079
720.864	-0.0071
721.114	-0.0055
721.364	-0.0062
721.613	-0.0055
721.863	-0.0052
722.112	-0.0043
722.362	-0.0059
722.611	-0.0058
722.86	-0.007
723.11	-0.0082
723.359	-0.0073
723.608	-0.007
723.857	-0.006
724.106	-0.006
724.355	-0.0059
724.604	-0.0059
724.853	-0.0061
725.102	-0.0068
725.351	-0.0064
725.599	-0.0056
725.848	-0.0051
726.097	-0.0049
726.345	-0.0031
726.594	-0.0028
726.842	-0.0037
727.09	-0.0045
727.339	-0.0055
727.587	-0.0061
727.835	-0.0068
728.083	-0.0055
728.331	-0.0064
728.579	-0.0054
728.827	-0.0038
729.075	-0.0046
729.323	-0.0032
729.571	-0.0024
729.818	-0.0025
730.066	-0.0028
730.314	-0.0042
730.561	-0.0044
730.809	-0.0065
731.056	-0.0046
731.303	-0.004
731.551	-0.0052
731.798	-0.0058
732.045	-0.0045
732.292	-0.0045
732.539	-0.0055
732.786	-0.0057
733.033	-0.0047
733.28	-0.005
733.527	-0.0052
733.774	-0.0051
734.021	-0.0043
734.267	-0.0047
734.514	-0.0041
734.76	-0.0036
735.007	-0.0058
735.253	-0.0064
735.5	-0.0056
735.746	-0.0044
735.992	-0.0043
736.238	-0.0049
736.485	-0.0051
736.731	-0.0069
736.977	-0.0069
737.223	-0.0068
737.469	-0.0075
737.715	-0.0057
737.96	-0.0053
738.206	-0.0033
738.452	-0.0021
738.697	-0.002
738.943	-0.0025
739.189	-0.0026
739.434	-0.002
739.679	-0.0026
739.925	-0.0031
740.17	-0.0041
740.415	-0.0037
740.66	-0.0032
740.906	-0.0044
741.151	-0.0039
741.396	-0.0047
741.641	-0.0047
741.886	-0.0055
742.13	-0.0053
742.375	-0.0047
742.62	-0.0052
742.865	-0.0044
743.109	-0.0054
743.354	-0.0054
743.598	-0.0054
743.843	-0.0051
744.087	-0.0043
744.331	-0.0048
744.576	-0.0045
744.82	-0.0064
745.064	-0.0063
745.308	-0.0062
745.552	-0.0062
745.796	-0.0054
746.04	-0.0053
746.284	-0.0061
746.528	-0.0057
746.771	-0.007
747.015	-0.0059
747.259	-0.0063
747.502	-0.0043
747.746	-0.0048
747.989	-0.0058
748.233	-0.0062
748.476	-0.0058
748.719	-0.0066
748.963	-0.0064
749.206	-0.006
749.449	-0.0053
749.692	-0.0043
749.935	-0.0039
750.178	-0.0047
750.421	-0.0055
750.664	-0.0073
750.906	-0.0087
751.149	-0.0084
751.392	-0.009
751.635	-0.0076
751.877	-0.0074
752.12	-0.0076
752.362	-0.0073
752.604	-0.007
752.847	-0.0066
753.089	-0.0058
753.331	-0.0063
753.573	-0.0062
753.816	-0.0043
754.058	-0.0053
754.3	-0.0045
754.542	-0.0046
754.783	-0.0064
755.025	-0.0063
755.267	-0.0071
755.509	-0.0075
755.75	-0.0074
755.992	-0.0071
756.234	-0.0069
756.475	-0.0062
756.716	-0.0038
756.958	-0.0044
757.199	-0.0029
757.44	-0.0067
757.682	-0.0053
757.923	-0.0043
758.164	-0.0053
758.405	-0.0051
758.646	-0.0056
758.887	-0.0055
759.128	-0.0066
759.369	-0.0067
759.609	-0.0062
759.85	-0.0062
760.091	-0.0058
760.331	-0.006
760.572	-0.0058
760.812	-0.0059
761.053	-0.005
761.293	-0.0046
761.533	-0.0044
761.774	-0.0031
762.014	-0.004
762.254	-0.0041
762.494	-0.0042
762.734	-0.0055
762.974	-0.0059
763.214	-0.0055
763.454	-0.0063
763.694	-0.0054
763.933	-0.0045
764.173	-0.0043
764.413	-0.0044
764.652	-0.0042
764.892	-0.0045
765.131	-0.0057
765.371	-0.0049
765.61	-0.0058
765.849	-0.0071
766.089	-0.0066
766.328	-0.0067
766.567	-0.0071
766.806	-0.0071
767.045	-0.0044
767.284	-0.0053
767.523	-0.0043
767.762	-0.0053
768.001	-0.005
768.239	-0.005
768.478	-0.0042
768.717	-0.0057
768.955	-0.0053
769.194	-0.0044
769.432	-0.004
769.671	-0.0046
769.909	-0.0039
770.148	-0.0043
770.386	-0.004
770.624	-0.0037
770.862	-0.0034
771.1	-0.0037
771.338	-0.0037
771.576	-0.0025
771.814	-0.0039
772.052	-0.005
772.29	-0.0052
772.528	-0.0053
772.765	-0.004
773.003	-0.0046
773.24	-0.0039
773.478	-0.0031
773.716	-0.0027
773.953	-0.0023
774.19	-0.0022
774.428	-0.0016
774.665	-0.0014
774.902	-0.0012
775.139	-0.0013
775.376	-0.0021
775.613	-0.0015
775.85	-0.0017
776.087	-0.0013
776.324	-0.0015
776.561	-0.0011
776.798	-0.0007
777.034	0.0008
777.271	-0.0002
777.508	-0.0002
777.744	-0.0015
777.981	-0.0016
778.217	-0.002
778.454	-0.0024
778.69	-0.0034
778.926	-0.0041
779.162	-0.0051
779.399	-0.0066
779.635	-0.0072
779.871	-0.0075
780.107	-0.0076
780.343	-0.0073
780.579	-0.0052
780.814	-0.0056
781.05	-0.0052
781.286	-0.0056
781.522	-0.004
781.757	-0.0035
781.993	-0.0035
782.228	-0.0025
782.464	-0.0036
782.699	-0.0031
782.934	-0.0038
783.17	-0.0025
783.405	-0.0036
783.64	-0.0033
783.875	-0.0032
784.11	-0.0022
784.345	-0.0022
784.58	-0.0028
784.815	-0.0028
785.05	-0.0039
785.285	-0.0043
785.52	-0.0036
785.754	-0.0037
785.989	-0.0052
786.223	-0.0036
786.458	-0.0033
786.692	-0.0033
786.927	-0.0038
787.161	-0.0038
787.396	-0.0033
787.63	-0.0022
787.864	-0.0022
788.098	-0.0016
788.332	-0.0026
788.566	-0.0024
788.8	-0.0022
789.034	-0.0019
789.268	-0.0015
789.502	-0.0015
789.736	-0.0015
789.969	-0.0013
790.203	-0.0027
790.437	-0.0027
790.67	-0.0038
790.904	-0.0039
791.137	-0.0038
791.37	-0.0041
791.604	-0.0042
791.837	-0.0045
792.07	-0.0039
792.303	-0.0045
792.537	-0.0054
792.77	-0.0052
793.003	-0.0065
793.236	-0.0052
793.469	-0.0035
793.701	-0.0035
793.934	-0.0047
794.167	-0.0047
794.4	-0.004
794.632	-0.003
794.865	-0.0044
795.097	-0.0048
795.33	-0.005
795.562	-0.004
795.795	-0.0047
796.027	-0.0058
796.259	-0.0065
796.491	-0.0067
796.724	-0.0061
796.956	-0.0054
797.188	-0.0054
797.42	-0.0045
797.652	-0.0047
797.883	-0.0048
798.115	-0.0049
798.347	-0.006
798.579	-0.0062
798.81	-0.0067
799.042	-0.0062
799.274	-0.0061
799.505	-0.0052
799.737	-0.0049
799.968	-0.0035
800.199	-0.0033
800.431	-0.0023
800.662	-0.0021
800.893	-0.0025
801.124	-0.0017
801.355	-0.0022
801.586	-0.0012
801.817	-0.003
802.048	-0.0038
802.279	-0.0047
802.51	-0.0061
802.741	-0.0061
802.971	-0.0059
803.202	-0.0069
803.433	-0.0071
803.663	-0.0058
803.894	-0.0065
804.124	-0.0057
804.354	-0.0065
804.585	-0.0063
804.815	-0.0048
805.045	-0.0068
805.275	-0.0047
805.506	-0.0669
805.736	0.0752
805.966	0.242
806.196	0.1709
