Data from 03 0.5 mM K2Cr2O7 0.2 mM BQDS 1 M H2SO4 5 min_Absorbance_0014.txt Node
Date: Thu Dec 09 16:56:44 EST 2021
User: kwabilab-user
Spectrometer: HDX00518
Trigger mode: 0
Integration Time (sec): 5.000000E-2
Scans to average: 50
Nonlinearity correction enabled: false
Boxcar width: 0
Storing dark spectrum: false
XAxis mode: Wavelengths
Number of Pixels in Spectrum: 2068
>>>>>Begin Spectral Data<<<<<
195.27	0.4539
195.642	0.1335
196.014	0.2721
196.386	0.5014
196.758	0.0639
197.129	0.0479
197.501	0.0874
197.872	0.1051
198.244	0.1385
198.615	0.1252
198.986	0.1383
199.357	0.1258
199.728	0.1279
200.099	0.1411
200.47	0.1553
200.841	0.1481
201.212	0.1471
201.582	0.1516
201.953	0.1344
202.323	0.1506
202.694	0.147
203.064	0.1428
203.434	0.1513
203.804	0.1263
204.174	0.1412
204.544	0.1493
204.914	0.1529
205.284	0.1487
205.653	0.1588
206.023	0.1586
206.393	0.1468
206.762	0.1466
207.131	0.1616
207.501	0.141
207.87	0.1634
208.239	0.1292
208.608	0.163
208.977	0.1478
209.346	0.1715
209.715	0.1606
210.083	0.1618
210.452	0.1685
210.82	0.1536
211.189	0.1844
211.557	0.1714
211.925	0.189
212.294	0.1743
212.662	0.1895
213.03	0.1959
213.398	0.1976
213.766	0.2076
214.133	0.206
214.501	0.2196
214.869	0.2125
215.236	0.2163
215.604	0.2277
215.971	0.2645
216.338	0.2574
216.705	0.2613
217.072	0.315
217.439	0.2832
217.806	0.3197
218.173	0.3402
218.54	0.3621
218.907	0.3794
219.273	0.4468
219.64	0.4612
220.006	0.5056
220.373	0.5
220.739	0.5688
221.105	0.6046
221.471	0.6257
221.837	0.6642
222.203	0.7084
222.569	0.7631
222.935	0.794
223.3	0.8209
223.666	0.8479
224.031	0.888
224.397	0.9099
224.762	0.9389
225.127	0.9826
225.493	1.0021
225.858	1.0261
226.223	1.0444
226.588	1.0745
226.952	1.08
227.317	1.1027
227.682	1.109
228.046	1.1052
228.411	1.1203
228.775	1.1312
229.14	1.1371
229.504	1.1384
229.868	1.1463
230.232	1.1425
230.596	1.1481
230.96	1.1567
231.324	1.1315
231.688	1.1404
232.052	1.1413
232.415	1.1263
232.779	1.1216
233.142	1.1242
233.505	1.1127
233.869	1.1148
234.232	1.1004
234.595	1.0855
234.958	1.0898
235.321	1.0786
235.684	1.0611
236.047	1.0586
236.409	1.0487
236.772	1.0434
237.134	1.0368
237.497	1.0269
237.859	1.0228
238.222	1.0166
238.584	1.0029
238.946	0.9959
239.308	0.9869
239.67	0.988
240.032	0.9761
240.393	0.9688
240.755	0.9575
241.117	0.9595
241.478	0.9482
241.84	0.9413
242.201	0.941
242.562	0.9329
242.924	0.9238
243.285	0.9185
243.646	0.9154
244.007	0.913
244.368	0.9091
244.728	0.9015
245.089	0.9005
245.45	0.8945
245.81	0.8945
246.171	0.8886
246.531	0.8876
246.891	0.8845
247.252	0.8851
247.612	0.8811
247.972	0.8758
248.332	0.8777
248.692	0.8697
249.051	0.8741
249.411	0.8711
249.771	0.8623
250.13	0.8636
250.49	0.8658
250.849	0.8614
251.208	0.8639
251.568	0.8596
251.927	0.862
252.286	0.8574
252.645	0.8594
253.004	0.8605
253.363	0.8568
253.721	0.8567
254.08	0.8569
254.439	0.8555
254.797	0.8528
255.155	0.8524
255.514	0.8509
255.872	0.8551
256.23	0.8533
256.588	0.8521
256.946	0.8501
257.304	0.849
257.662	0.8519
258.02	0.8479
258.377	0.8522
258.735	0.8502
259.093	0.8504
259.45	0.8465
259.807	0.8468
260.165	0.8509
260.522	0.8468
260.879	0.8455
261.236	0.8436
261.593	0.8454
261.95	0.8408
262.306	0.8402
262.663	0.8377
263.02	0.8437
263.376	0.8368
263.733	0.8388
264.089	0.8364
264.445	0.8325
264.802	0.8301
265.158	0.8334
265.514	0.8267
265.87	0.8267
266.226	0.8244
266.581	0.8241
266.937	0.8235
267.293	0.8176
267.648	0.8162
268.004	0.8142
268.359	0.8114
268.714	0.8087
269.07	0.8057
269.425	0.8028
269.78	0.7994
270.135	0.7997
270.49	0.7989
270.844	0.7932
271.199	0.7915
271.554	0.7917
271.908	0.7852
272.263	0.7824
272.617	0.7758
272.972	0.774
273.326	0.7735
273.68	0.7701
274.034	0.7631
274.388	0.7599
274.742	0.7561
275.096	0.7539
275.45	0.7468
275.803	0.7452
276.157	0.7394
276.51	0.7344
276.864	0.7293
277.217	0.7254
277.571	0.7219
277.924	0.7154
278.277	0.7138
278.63	0.7068
278.983	0.7015
279.336	0.6984
279.688	0.6919
280.041	0.6852
280.394	0.6814
280.746	0.6761
281.099	0.6686
281.451	0.6633
281.803	0.6575
282.156	0.6526
282.508	0.6464
282.86	0.6406
283.212	0.6348
283.564	0.6284
283.916	0.6223
284.267	0.6184
284.619	0.6116
284.971	0.6051
285.322	0.599
285.673	0.5926
286.025	0.5868
286.376	0.5816
286.727	0.5738
287.078	0.5659
287.429	0.561
287.78	0.555
288.131	0.5492
288.482	0.5413
288.833	0.5347
289.183	0.5287
289.534	0.5218
289.884	0.5156
290.235	0.5077
290.585	0.5022
290.935	0.4966
291.285	0.4899
291.635	0.484
291.985	0.4775
292.335	0.47
292.685	0.4637
293.035	0.4573
293.384	0.4515
293.734	0.4447
294.083	0.4391
294.433	0.4324
294.782	0.4267
295.131	0.4195
295.48	0.4131
295.829	0.4082
296.179	0.4008
296.527	0.3959
296.876	0.3894
297.225	0.384
297.574	0.3775
297.922	0.3725
298.271	0.3668
298.619	0.3603
298.968	0.3558
299.316	0.3503
299.664	0.3453
300.012	0.3393
300.36	0.3357
300.708	0.3301
301.056	0.3256
301.404	0.3196
301.752	0.3162
302.099	0.3119
302.447	0.3074
302.794	0.3035
303.142	0.2998
303.489	0.2958
303.836	0.2907
304.183	0.2872
304.531	0.2844
304.878	0.281
305.224	0.2775
305.571	0.2739
305.918	0.2706
306.265	0.2676
306.611	0.2648
306.958	0.2627
307.304	0.2596
307.651	0.2569
307.997	0.2549
308.343	0.2526
308.689	0.2503
309.035	0.2492
309.381	0.2471
309.727	0.2462
310.073	0.2437
310.419	0.2419
310.764	0.2405
311.11	0.2389
311.455	0.2378
311.801	0.2371
312.146	0.2364
312.491	0.2353
312.837	0.2344
313.182	0.2339
313.527	0.2338
313.872	0.2329
314.216	0.2331
314.561	0.2332
314.906	0.233
315.251	0.2332
315.595	0.2329
315.94	0.233
316.284	0.2333
316.628	0.2338
316.972	0.234
317.317	0.2349
317.661	0.235
318.005	0.2356
318.348	0.2373
318.692	0.2373
319.036	0.2381
319.38	0.2397
319.723	0.2405
320.067	0.2417
320.41	0.2434
320.754	0.2441
321.097	0.2458
321.44	0.2471
321.783	0.2487
322.126	0.2504
322.469	0.2515
322.812	0.253
323.155	0.2557
323.498	0.2573
323.84	0.2589
324.183	0.2611
324.525	0.2631
324.868	0.264
325.21	0.2664
325.552	0.2687
325.894	0.2705
326.236	0.2725
326.578	0.2751
326.92	0.2769
327.262	0.279
327.604	0.2813
327.946	0.2832
328.287	0.285
328.629	0.2875
328.97	0.29
329.312	0.2928
329.653	0.2944
329.994	0.2971
330.335	0.2997
330.676	0.3019
331.017	0.3049
331.358	0.308
331.699	0.3105
332.04	0.3124
332.38	0.3154
332.721	0.3172
333.061	0.319
333.402	0.3212
333.742	0.3244
334.083	0.3267
334.423	0.3279
334.763	0.3299
335.103	0.3325
335.443	0.3346
335.783	0.3366
336.123	0.3385
336.462	0.3403
336.802	0.3418
337.141	0.3451
337.481	0.347
337.82	0.3488
338.16	0.3505
338.499	0.3523
338.838	0.3548
339.177	0.3567
339.516	0.358
339.855	0.3594
340.194	0.3626
340.533	0.3642
340.872	0.3658
341.21	0.3678
341.549	0.3681
341.887	0.3703
342.226	0.3707
342.564	0.3727
342.902	0.372
343.24	0.3743
343.578	0.3753
343.916	0.3754
344.254	0.3757
344.592	0.3762
344.93	0.3767
345.268	0.3776
345.605	0.3779
345.943	0.3788
346.28	0.3791
346.618	0.3789
346.955	0.3794
347.292	0.3804
347.629	0.3806
347.966	0.3811
348.303	0.3816
348.64	0.3815
348.977	0.3814
349.314	0.3821
349.65	0.3814
349.987	0.3816
350.324	0.3819
350.66	0.3813
350.996	0.3805
351.333	0.3805
351.669	0.3795
352.005	0.3776
352.341	0.3778
352.677	0.377
353.013	0.3743
353.349	0.3737
353.685	0.373
354.02	0.3708
354.356	0.3696
354.691	0.3676
355.027	0.3665
355.362	0.365
355.697	0.3642
356.033	0.3625
356.368	0.3605
356.703	0.3594
357.038	0.3589
357.373	0.3565
357.707	0.3553
358.042	0.3541
358.377	0.353
358.711	0.3512
359.046	0.3492
359.38	0.3478
359.715	0.3468
360.049	0.3453
360.383	0.3427
360.717	0.3406
361.051	0.3386
361.385	0.3358
361.719	0.3342
362.053	0.3306
362.387	0.3281
362.72	0.3258
363.054	0.3241
363.387	0.3215
363.721	0.3173
364.054	0.3155
364.387	0.3122
364.721	0.3099
365.054	0.3076
365.387	0.3041
365.72	0.3009
366.053	0.2995
366.385	0.297
366.718	0.2949
367.051	0.2932
367.383	0.2898
367.716	0.2874
368.048	0.2857
368.381	0.2838
368.713	0.2814
369.045	0.2793
369.377	0.278
369.709	0.275
370.041	0.2733
370.373	0.2707
370.705	0.2685
371.037	0.2658
371.368	0.263
371.7	0.2608
372.031	0.2582
372.363	0.2557
372.694	0.2522
373.025	0.2503
373.356	0.2464
373.688	0.2432
374.019	0.2397
374.35	0.237
374.68	0.2344
375.011	0.231
375.342	0.2278
375.673	0.2254
376.003	0.2223
376.334	0.2187
376.664	0.2167
376.995	0.2147
377.325	0.2118
377.655	0.2091
377.985	0.2065
378.315	0.2048
378.645	0.2029
378.975	0.2003
379.305	0.1982
379.635	0.1961
379.964	0.1947
380.294	0.1923
380.623	0.1901
380.953	0.1874
381.282	0.1863
381.611	0.1841
381.941	0.1822
382.27	0.1799
382.599	0.1776
382.928	0.1752
383.257	0.1733
383.585	0.1708
383.914	0.1683
384.243	0.1656
384.571	0.1625
384.9	0.1608
385.228	0.1576
385.557	0.1552
385.885	0.1531
386.213	0.1499
386.541	0.1484
386.869	0.1457
387.197	0.1438
387.525	0.1394
387.853	0.1382
388.181	0.1362
388.508	0.1339
388.836	0.1306
389.164	0.1295
389.491	0.1279
389.818	0.1265
390.146	0.1241
390.473	0.1218
390.8	0.1209
391.127	0.1186
391.454	0.1172
391.781	0.1153
392.108	0.1136
392.435	0.1122
392.761	0.11
393.088	0.1089
393.415	0.1078
393.741	0.1068
394.067	0.1054
394.394	0.1038
394.72	0.1028
395.046	0.101
395.372	0.1
395.698	0.0983
396.024	0.0971
396.35	0.0957
396.676	0.0939
397.001	0.0929
397.327	0.0906
397.653	0.0905
397.978	0.0883
398.303	0.0866
398.629	0.0864
398.954	0.0848
399.279	0.084
399.604	0.0817
399.929	0.0807
400.254	0.08
400.579	0.0786
400.904	0.0787
401.229	0.0772
401.553	0.0764
401.878	0.0755
402.202	0.0745
402.527	0.0734
402.851	0.0723
403.175	0.0715
403.5	0.0709
403.824	0.0705
404.148	0.0699
404.472	0.0691
404.796	0.0689
405.119	0.0687
405.443	0.0679
405.767	0.0672
406.09	0.0673
406.414	0.0661
406.737	0.0656
407.061	0.0656
407.384	0.0655
407.707	0.0649
408.03	0.0645
408.353	0.0642
408.676	0.0639
408.999	0.0634
409.322	0.063
409.645	0.0633
409.968	0.0625
410.29	0.0629
410.613	0.0623
410.935	0.0623
411.258	0.0621
411.58	0.0619
411.902	0.0616
412.224	0.0618
412.546	0.0615
412.868	0.0617
413.19	0.0617
413.512	0.0612
413.834	0.0617
414.156	0.0605
414.477	0.0609
414.799	0.0603
415.121	0.0616
415.442	0.0607
415.763	0.061
416.085	0.0614
416.406	0.061
416.727	0.0607
417.048	0.0615
417.369	0.061
417.69	0.0615
418.011	0.0607
418.331	0.0611
418.652	0.0612
418.973	0.0613
419.293	0.0613
419.614	0.0619
419.934	0.0623
420.254	0.0618
420.574	0.0616
420.895	0.0612
421.215	0.0612
421.535	0.0616
421.855	0.061
422.174	0.061
422.494	0.0619
422.814	0.0622
423.134	0.062
423.453	0.0623
423.773	0.062
424.092	0.0627
424.411	0.0619
424.731	0.0624
425.05	0.0629
425.369	0.0622
425.688	0.0629
426.007	0.0628
426.326	0.0633
426.644	0.0632
426.963	0.0631
427.282	0.0628
427.6	0.0628
427.919	0.063
428.237	0.0636
428.556	0.064
428.874	0.0636
429.192	0.0646
429.51	0.0635
429.828	0.0641
430.146	0.063
430.464	0.0639
430.782	0.0642
431.1	0.0642
431.418	0.0635
431.735	0.0646
432.053	0.0642
432.37	0.0642
432.688	0.0642
433.005	0.0641
433.322	0.0643
433.639	0.0641
433.957	0.0651
434.274	0.064
434.591	0.0645
434.907	0.0653
435.224	0.0647
435.541	0.0659
435.858	0.0664
436.174	0.0655
436.491	0.0651
436.807	0.0647
437.124	0.0657
437.44	0.0647
437.756	0.0645
438.072	0.0652
438.388	0.0647
438.704	0.0648
439.02	0.0646
439.336	0.0651
439.652	0.0653
439.968	0.0646
440.283	0.065
440.599	0.0647
440.914	0.0644
441.23	0.0651
441.545	0.0639
441.86	0.064
442.175	0.0643
442.491	0.0647
442.806	0.0642
443.121	0.0654
443.435	0.065
443.75	0.0648
444.065	0.0646
444.38	0.0649
444.694	0.0645
445.009	0.0644
445.323	0.0645
445.638	0.0643
445.952	0.0642
446.266	0.0638
446.58	0.064
446.894	0.0632
447.208	0.0639
447.522	0.0629
447.836	0.0629
448.15	0.0628
448.464	0.0626
448.777	0.0628
449.091	0.0625
449.404	0.0626
449.718	0.0623
450.031	0.0626
450.345	0.0617
450.658	0.0624
450.971	0.0621
451.284	0.0613
451.597	0.0627
451.91	0.0622
452.223	0.0616
452.535	0.0609
452.848	0.0622
453.161	0.0616
453.473	0.0612
453.786	0.0618
454.098	0.0608
454.411	0.0613
454.723	0.0611
455.035	0.0603
455.347	0.0599
455.659	0.0595
455.971	0.0595
456.283	0.0592
456.595	0.0589
456.907	0.0593
457.218	0.06
457.53	0.0587
457.841	0.058
458.153	0.0589
458.464	0.0581
458.776	0.0591
459.087	0.0577
459.398	0.0568
459.709	0.0566
460.02	0.0572
460.331	0.057
460.642	0.056
460.953	0.0564
461.263	0.0563
461.574	0.0562
461.885	0.0555
462.195	0.0553
462.506	0.0555
462.816	0.0553
463.126	0.055
463.437	0.0544
463.747	0.0551
464.057	0.0545
464.367	0.0549
464.677	0.0539
464.987	0.0532
465.296	0.0537
465.606	0.0529
465.916	0.0532
466.225	0.052
466.535	0.0518
466.844	0.0517
467.154	0.0516
467.463	0.0511
467.772	0.0505
468.081	0.0512
468.39	0.05
468.699	0.0509
469.008	0.0493
469.317	0.0502
469.626	0.0492
469.935	0.0491
470.243	0.0479
470.552	0.0483
470.86	0.0473
471.169	0.0472
471.477	0.0474
471.785	0.0474
472.093	0.0469
472.402	0.0464
472.71	0.0465
473.018	0.0461
473.326	0.0456
473.633	0.0455
473.941	0.0445
474.249	0.0444
474.556	0.0448
474.864	0.0437
475.171	0.0437
475.479	0.0435
475.786	0.043
476.094	0.0429
476.401	0.0432
476.708	0.0424
477.015	0.0419
477.322	0.0414
477.629	0.0415
477.936	0.0413
478.242	0.0407
478.549	0.0411
478.856	0.0407
479.162	0.0397
479.469	0.0399
479.775	0.0394
480.081	0.0391
480.388	0.0387
480.694	0.0391
481	0.0385
481.306	0.0386
481.612	0.0385
481.918	0.0378
482.224	0.0374
482.53	0.0366
482.835	0.0367
483.141	0.0359
483.446	0.0361
483.752	0.0354
484.057	0.0359
484.363	0.0354
484.668	0.0346
484.973	0.0341
485.278	0.0349
485.583	0.0333
485.888	0.0335
486.193	0.0327
486.498	0.0328
486.803	0.0325
487.107	0.032
487.412	0.0315
487.717	0.0311
488.021	0.0307
488.325	0.0303
488.63	0.0314
488.934	0.0304
489.238	0.03
489.542	0.0295
489.846	0.0291
490.15	0.0291
490.454	0.0284
490.758	0.0288
491.062	0.0287
491.366	0.0278
491.669	0.0275
491.973	0.0268
492.276	0.0273
492.58	0.0275
492.883	0.0267
493.186	0.027
493.489	0.0264
493.792	0.0256
494.096	0.0248
494.399	0.0254
494.701	0.0262
495.004	0.0247
495.307	0.0249
495.61	0.0251
495.912	0.0241
496.215	0.0243
496.517	0.0239
496.82	0.0236
497.122	0.023
497.424	0.0233
497.727	0.0227
498.029	0.0224
498.331	0.0217
498.633	0.0222
498.935	0.0217
499.237	0.0218
499.538	0.0216
499.84	0.0217
500.142	0.0213
500.443	0.021
500.745	0.0204
501.046	0.0207
501.348	0.02
501.649	0.021
501.95	0.0201
502.251	0.0194
502.552	0.0193
502.853	0.0188
503.154	0.0187
503.455	0.0188
503.756	0.0183
504.057	0.0184
504.357	0.0184
504.658	0.0185
504.958	0.0178
505.259	0.0177
505.559	0.0177
505.859	0.0172
506.16	0.0166
506.46	0.017
506.76	0.0165
507.06	0.0156
507.36	0.0166
507.66	0.0163
507.96	0.0149
508.259	0.0148
508.559	0.0154
508.859	0.0152
509.158	0.0152
509.457	0.015
509.757	0.0143
510.056	0.0137
510.355	0.0147
510.655	0.014
510.954	0.0131
511.253	0.0145
511.552	0.0135
511.851	0.0129
512.149	0.0126
512.448	0.0121
512.747	0.0126
513.045	0.0122
513.344	0.0126
513.642	0.013
513.941	0.0119
514.239	0.012
514.537	0.0126
514.836	0.0132
515.134	0.0111
515.432	0.0119
515.73	0.0117
516.028	0.0103
516.326	0.0115
516.623	0.0104
516.921	0.0121
517.219	0.0127
517.516	0.0113
517.814	0.0105
518.111	0.0094
518.409	0.0097
518.706	0.0112
519.003	0.0094
519.3	0.0097
519.597	0.0103
519.894	0.0099
520.191	0.0091
520.488	0.0094
520.785	0.0088
521.082	0.0095
521.378	0.0099
521.675	0.0092
521.971	0.0087
522.268	0.0093
522.564	0.0085
522.861	0.0083
523.157	0.0087
523.453	0.0086
523.749	0.0074
524.045	0.0072
524.341	0.0081
524.637	0.0072
524.933	0.0077
525.229	0.007
525.524	0.0074
525.82	0.0067
526.115	0.0069
526.411	0.0072
526.706	0.0058
527.002	0.0056
527.297	0.0063
527.592	0.0064
527.887	0.0065
528.182	0.0055
528.477	0.006
528.772	0.0061
529.067	0.0062
529.362	0.0057
529.657	0.0056
529.951	0.0058
530.246	0.0055
530.54	0.0057
530.835	0.0059
531.129	0.0069
531.423	0.0052
531.718	0.006
532.012	0.0048
532.306	0.005
532.6	0.0052
532.894	0.0058
533.188	0.0048
533.482	0.006
533.775	0.0049
534.069	0.0046
534.363	0.004
534.656	0.0044
534.95	0.005
535.243	0.0045
535.536	0.0046
535.83	0.0043
536.123	0.0046
536.416	0.0047
536.709	0.0034
537.002	0.0029
537.295	0.0037
537.588	0.0049
537.881	0.0043
538.173	0.0043
538.466	0.0043
538.759	0.0032
539.051	0.0028
539.344	0.004
539.636	0.0039
539.928	0.0037
540.22	0.0035
540.513	0.0033
540.805	0.004
541.097	0.0032
541.389	0.0037
541.681	0.0049
541.972	0.003
542.264	0.0042
542.556	0.0041
542.847	0.0027
543.139	0.0035
543.431	0.0034
543.722	0.0031
544.013	0.0023
544.305	0.0036
544.596	0.0022
544.887	0.0031
545.178	0.0023
545.469	0.0024
545.76	0.0033
546.051	0.0033
546.342	0.0031
546.632	0.0038
546.923	0.0036
547.214	0.0022
547.504	0.0035
547.795	0.0029
548.085	0.0032
548.375	0.0029
548.666	0.0012
548.956	0.0036
549.246	0.0023
549.536	0.0029
549.826	0.0029
550.116	0.0026
550.406	0.003
550.695	0.0034
550.985	0.0031
551.275	0.0017
551.564	0.0024
551.854	0.0025
552.143	0.0023
552.433	0.0026
552.722	0.0009
553.011	0.0019
553.3	0.0022
553.589	0.0023
553.879	0.001
554.167	0.0014
554.456	0.0018
554.745	0.0034
555.034	0.0024
555.323	0.0013
555.611	0.0019
555.9	0.0022
556.188	0.0017
556.477	0.0031
556.765	0.0036
557.053	0.0019
557.342	0.0028
557.63	0.0016
557.918	0.0025
558.206	0.0034
558.494	0.0032
558.782	0.0021
559.069	0.0035
559.357	0.0035
559.645	0.0031
559.932	0.0031
560.22	0.0032
560.507	0.0023
560.795	0.0033
561.082	0.0019
561.37	0.0022
561.657	0.0024
561.944	0.0018
562.231	0.0016
562.518	0.0023
562.805	0.0015
563.092	0.0019
563.379	0.0017
563.665	0.0029
563.952	0.0017
564.239	0.0033
564.525	0.0024
564.811	0.003
565.098	0.0015
565.384	0.0026
565.67	0.0028
565.957	0.0036
566.243	0.0027
566.529	0.004
566.815	0.0016
567.101	0.0021
567.387	0.0022
567.672	0.0017
567.958	0.0023
568.244	0.0025
568.529	0.0018
568.815	0.0023
569.1	0.0025
569.386	0.0024
569.671	0.0028
569.956	0.0022
570.242	0.0023
570.527	0.0027
570.812	0.0025
571.097	0.0031
571.382	0.004
571.666	0.0031
571.951	0.0032
572.236	0.003
572.521	0.0026
572.805	0.0029
573.09	0.0021
573.374	0.0026
573.659	0.0032
573.943	0.0024
574.227	0.003
574.511	0.003
574.795	0.0024
575.079	0.0034
575.363	0.0021
575.647	0.0026
575.931	0.0021
576.215	0.0015
576.499	0.0016
576.782	0.0022
577.066	0.0009
577.349	0.002
577.633	0.0024
577.916	0.0025
578.2	0.0026
578.483	0.0023
578.766	0.0023
579.049	0.0029
579.332	0.0019
579.615	0.0021
579.898	0.0028
580.181	0.0022
580.464	0.0022
580.746	0.0027
581.029	0.0034
581.312	0.0026
581.594	0.0027
581.877	0.0026
582.159	0.002
582.441	0.0025
582.724	0.0019
583.006	0.0019
583.288	0.002
583.57	0.0025
583.852	0.0015
584.134	0.0021
584.416	0.0016
584.697	0.0021
584.979	0.0024
585.261	0.0021
585.542	0.0017
585.824	0.0016
586.105	0.0018
586.387	0.0017
586.668	0.0021
586.949	0.0017
587.231	0.0027
587.512	0.0024
587.793	0.0023
588.074	0.0017
588.355	0.0015
588.636	0.0031
588.916	0.0023
589.197	0.0029
589.478	0.0029
589.758	0.0034
590.039	0.0023
590.319	0.0025
590.6	0.0018
590.88	0.0021
591.16	0.0011
591.441	0.0018
591.721	0.0023
592.001	0.0018
592.281	0.0015
592.561	0.0026
592.841	0.0023
593.12	0.0025
593.4	0.0013
593.68	0.0011
593.959	0.0022
594.239	0.0023
594.518	0.0024
594.798	0.002
595.077	0.0026
595.356	0.0028
595.636	0.0022
595.915	0.0013
596.194	0.0024
596.473	0.0015
596.752	0.0023
597.031	0.0021
597.31	0.002
597.588	0.0022
597.867	0.0022
598.146	0.0014
598.424	0.0024
598.703	0.0013
598.981	0.0016
599.259	0.0012
599.538	0.0016
599.816	0.0021
600.094	0.0017
600.372	0.0018
600.65	0.0007
600.928	0.001
601.206	-0.0005
601.484	0.0003
601.762	-0.0006
602.04	-0.0002
602.317	0.0012
602.595	0.001
602.872	0.0004
603.15	0.0013
603.427	0.0027
603.704	0.0027
603.982	0.002
604.259	0.0011
604.536	0.0031
604.813	0.0011
605.09	0.0014
605.367	0.0017
605.644	0.001
605.921	0.0002
606.197	0.0004
606.474	0.0006
606.751	0.0009
607.027	0.0008
607.304	0.001
607.58	0.0014
607.856	0.0008
608.133	0.0013
608.409	0.0009
608.685	0.0012
608.961	0.0005
609.237	0.0015
609.513	0.0008
609.789	0.0005
610.065	0.001
610.341	0.0006
610.616	0.0008
610.892	0.001
611.167	0.0017
611.443	0.0019
611.718	0.0022
611.994	0.002
612.269	0.0018
612.544	0.0012
612.819	0.0014
613.095	0.0011
613.37	0.0018
613.645	0.0026
613.919	0.0021
614.194	0.0027
614.469	0.0021
614.744	0.0019
615.019	0.0019
615.293	0.0013
615.568	0.001
615.842	0.0008
616.116	0.0008
616.391	0.0001
616.665	0.001
616.939	-0.0003
617.213	0.0017
617.488	0.0012
617.762	0.0004
618.035	0.0006
618.309	0.0004
618.583	0.0008
618.857	0.0011
619.131	0.0008
619.404	0.001
619.678	0.0007
619.951	0.0009
620.225	0.0005
620.498	0.0005
620.771	0.0009
621.045	0.0011
621.318	0.0018
621.591	0.0016
621.864	0.0016
622.137	0.0021
622.41	0.0021
622.683	0.0021
622.956	0.0008
623.228	0.0012
623.501	0.0006
623.774	-0.0001
624.046	0.0003
624.319	0.0013
624.591	-0.0003
624.863	0.0004
625.136	-0.0006
625.408	0.0009
625.68	-0.0005
625.952	0.0007
626.224	0.0002
626.496	-0.0001
626.768	0.0002
627.04	-0.0001
627.311	-0.0006
627.583	-0.0009
627.855	0
628.126	0.0006
628.398	-0
628.669	-0.0013
628.941	0.0006
629.212	0.0003
629.483	0.001
629.755	0.0001
630.026	0.0003
630.297	0.0007
630.568	0.0004
630.839	0.0011
631.11	0.0007
631.38	-0.0009
631.651	-0.0009
631.922	-0.0006
632.192	-0.0005
632.463	0.0011
632.733	0.0012
633.004	0.0007
633.274	0
633.545	0.0008
633.815	0.0005
634.085	0.0007
634.355	0.0017
634.625	0.0015
634.895	0.0014
635.165	0.0026
635.435	0.0014
635.705	0.0002
635.974	-0.0003
636.244	0.0001
636.514	0.0006
636.783	0.0013
637.053	0.0018
637.322	0.0018
637.591	0.001
637.861	0.0003
638.13	0.0016
638.399	0.0016
638.668	0.0014
638.937	0.0008
639.206	0.0025
639.475	0.0013
639.744	0.0021
640.013	0.0021
640.281	0.0018
640.55	0.002
640.819	0.0029
641.087	0.002
641.356	0.0023
641.624	0.0021
641.892	0.001
642.161	0.0008
642.429	0.0013
642.697	0.0016
642.965	0.0031
643.233	0.001
643.501	0.0017
643.769	0.0006
644.037	0.0013
644.305	0.0008
644.572	0.0004
644.84	-0.0008
645.108	-0.0011
645.375	-0.0019
645.643	-0.0026
645.91	-0.0008
646.177	-0.0016
646.445	-0.0012
646.712	-0.0018
646.979	-0.0007
647.246	0.0002
647.513	0.0007
647.78	0.0018
648.047	0.0018
648.314	0.0017
648.58	0.0011
648.847	0.0008
649.114	0.0002
649.38	-0.0004
649.647	-0.0004
649.913	-0.0001
650.18	-0.0013
650.446	-0.0009
650.712	-0.0007
650.978	-0.0016
651.245	-0.0005
651.511	0.0007
651.777	0.0006
652.043	0.0014
652.309	0.0004
652.574	0.0001
652.84	-0.0002
653.106	-0.001
653.371	-0.0012
653.637	-0.002
653.903	0.0001
654.168	0.0006
654.433	0.0008
654.699	0.002
654.964	0.0017
655.229	0.0022
655.494	0.0018
655.759	0.0007
656.024	0.0009
656.289	-0
656.554	-0.0001
656.819	-0.0012
657.084	0.0002
657.349	-0.0002
657.613	0.0003
657.878	0.0006
658.142	-0.0012
658.407	0.0007
658.671	0.0001
658.936	0.0013
659.2	0.0018
659.464	0.0024
659.728	0.0021
659.992	0.001
660.256	0.0013
660.52	-0.0005
660.784	-0
661.048	0.0008
661.312	0.0002
661.575	0
661.839	0
662.103	-0.0008
662.366	0
662.63	0.0009
662.893	0.001
663.156	0.0006
663.42	0.002
663.683	0.0013
663.946	0.0002
664.209	0.0006
664.472	0.001
664.735	0.0014
664.998	0.0011
665.261	0.0019
665.524	0.0002
665.786	0.0013
666.049	0.0018
666.312	0.0026
666.574	0.0029
666.837	0.0019
667.099	0.0019
667.361	0.0011
667.624	-0.0005
667.886	0.0002
668.148	0.0008
668.41	0.0005
668.672	0.0009
668.934	0.0012
669.196	0.0016
669.458	0.0022
669.72	0.0018
669.982	0.0021
670.243	0.0013
670.505	0.0007
670.766	0.0003
671.028	0.0011
671.289	0.001
671.551	-0.0001
671.812	0.0013
672.073	0.0013
672.334	0.0012
672.596	0.0019
672.857	0.0021
673.118	0.0035
673.379	0.0029
673.639	0.0023
673.9	0.0021
674.161	0.0022
674.422	0.0015
674.682	0.0007
674.943	0.002
675.203	0.0018
675.464	0.0026
675.724	0.0022
675.985	0.001
676.245	0.0021
676.505	-0.0001
676.765	0.0002
677.025	-0.0002
677.285	-0.0005
677.545	0.0003
677.805	-0.0004
678.065	-0.0006
678.325	0.0015
678.585	0.0014
678.844	0.0014
679.104	0.0017
679.363	0.001
679.623	0.001
679.882	0.0006
680.142	0.001
680.401	0.0013
680.66	0.0014
680.919	0.0013
681.178	0.0016
681.437	0.0028
681.696	0.0014
681.955	0.0016
682.214	0.0025
682.473	0.0024
682.732	0.0022
682.99	-0.0001
683.249	0.0002
683.508	0.0018
683.766	0.0011
684.024	0.0008
684.283	0.0012
684.541	0.0004
684.799	0.0009
685.058	0.0016
685.316	0.0013
685.574	0.0012
685.832	-0.0004
686.09	-0.0002
686.348	-0.0006
686.606	-0.0005
686.863	-0.0004
687.121	-0.0007
687.379	0
687.636	-0.0007
687.894	-0.0006
688.151	-0.0004
688.409	-0.0004
688.666	0.0002
688.923	-0.001
689.181	0.0004
689.438	0.0008
689.695	0.0018
689.952	0.0023
690.209	0.0021
690.466	0.0023
690.723	0.0007
690.979	0.0009
691.236	-0.0005
691.493	0.0002
691.75	-0
692.006	0.0001
692.263	0.0007
692.519	0.0005
692.775	0.0005
693.032	0.0002
693.288	0.0002
693.544	-0.0004
693.8	-0.0006
694.056	-0.0011
694.313	0
694.568	0.0008
694.824	-0.0004
695.08	-0.0002
695.336	0.0004
695.592	-0.0002
695.847	-0.0004
696.103	-0.0005
696.359	-0.0001
696.614	0.0001
696.869	-0.0003
697.125	-0.0004
697.38	-0.0002
697.635	-0.0004
697.891	-0.0006
698.146	-0.0015
698.401	-0.0018
698.656	-0.0021
698.911	-0.0026
699.166	-0.0028
699.42	-0.0024
699.675	-0.0024
699.93	-0.0018
700.185	-0.0006
700.439	-0.0001
700.694	0.0011
700.948	0.0001
701.203	-0.0006
701.457	-0.0002
701.711	-0.0006
701.965	-0.0005
702.22	0.0004
702.474	0.0009
702.728	0.0018
702.982	0.0013
703.236	0.0005
703.49	0.0013
703.743	0
703.997	-0.0008
704.251	-0
704.504	-0.0005
704.758	0.0006
705.012	-0.001
705.265	-0.0004
705.518	-0.0009
705.772	-0.0004
706.025	-0.0002
706.278	-0.0002
706.531	0
706.785	-0.0006
707.038	-0.0009
707.291	-0.0008
707.543	-0.0011
707.796	-0.0008
708.049	-0.0003
708.302	-0.0003
708.555	-0.0001
708.807	0.0014
709.06	0.0007
709.312	0.0006
709.565	0.0004
709.817	-0.0006
710.069	0.0002
710.322	-0.0017
710.574	-0.0005
710.826	0.0003
711.078	0.0009
711.33	0.0013
711.582	0.0022
711.834	0.0011
712.086	-0.0007
712.338	-0.0007
712.59	-0.001
712.841	-0.0012
713.093	-0.0013
713.344	-0.0022
713.596	-0.0007
713.847	-0.0009
714.099	-0.0002
714.35	-0.0013
714.601	-0.0012
714.853	-0.0018
715.104	-0.0021
715.355	-0.0025
715.606	-0.0007
715.857	-0.0008
716.108	-0.0014
716.359	-0.0017
716.609	-0.0014
716.86	-0.0017
717.111	-0.0017
717.361	-0.0025
717.612	-0.0029
717.863	-0.0023
718.113	-0.0027
718.363	-0.0029
718.614	-0.0031
718.864	-0.0016
719.114	-0.0015
719.364	-0.0018
719.614	-0.0024
719.865	-0.003
720.114	-0.0041
720.364	-0.0025
720.614	-0.002
720.864	-0.0017
721.114	-0.0001
721.364	-0.0013
721.613	-0
721.863	-0
722.112	0.0001
722.362	-0.0007
722.611	-0.0012
722.86	-0.0018
723.11	-0.0025
723.359	-0.0017
723.608	-0.0021
723.857	-0.0015
724.106	-0.0021
724.355	-0.0016
724.604	-0.001
724.853	-0.0014
725.102	-0.0022
725.351	-0.0007
725.599	-0.0008
725.848	-0.0001
726.097	0.0008
726.345	0.0025
726.594	0.002
726.842	0.001
727.09	0.0005
727.339	-0.0005
727.587	-0.0007
727.835	-0.0021
728.083	-0.0018
728.331	-0.0028
728.579	-0.0014
728.827	0.0003
729.075	0.0002
729.323	0.0006
729.571	0.0023
729.818	0.0017
730.066	0.0015
730.314	0.0001
730.561	0.0004
730.809	-0.0011
731.056	-0.0009
731.303	-0.0006
731.551	-0.0006
731.798	-0.0017
732.045	-0.0008
732.292	-0.0002
732.539	-0.0003
732.786	-0.0001
733.033	-0.0006
733.28	-0
733.527	-0.0001
733.774	-0.0004
734.021	-0.0002
734.267	-0.0009
734.514	0.0002
734.76	0
735.007	-0.0006
735.253	-0
735.5	-0.0005
735.746	0.0005
735.992	-0.0004
736.238	-0.0009
736.485	-0.0012
736.731	-0.0027
736.977	-0.0024
737.223	-0.0022
737.469	-0.0026
737.715	-0.0017
737.96	-0.0013
738.206	-0
738.452	0.0018
738.697	0.0023
738.943	0.0016
739.189	0.0012
739.434	0.0006
739.679	0.0005
739.925	0.0003
740.17	0.0002
740.415	0.001
740.66	0.0012
740.906	-0.0003
741.151	0.0008
741.396	0.0008
741.641	-0.0008
741.886	-0.0006
742.13	-0.0002
742.375	-0.0006
742.62	-0.001
742.865	-0.0016
743.109	-0.0016
743.354	-0.0015
743.598	-0.0016
743.843	-0.0014
744.087	-0.0012
744.331	-0.0013
744.576	-0.0003
744.82	-0.0019
745.064	-0.0024
745.308	-0.0016
745.552	-0.0022
745.796	-0.001
746.04	-0.0012
746.284	-0.0016
746.528	-0.0016
746.771	-0.0025
747.015	-0.0023
747.259	-0.003
747.502	-0.0016
747.746	-0.0014
747.989	-0.0021
748.233	-0.0026
748.476	-0.0022
748.719	-0.0023
748.963	-0.0018
749.206	-0.0015
749.449	-0.0013
749.692	-0.0006
749.935	0.0001
750.178	-0.0002
750.421	-0.0014
750.664	-0.003
750.906	-0.0036
751.149	-0.0037
751.392	-0.0031
751.635	-0.0026
751.877	-0.0023
752.12	-0.0025
752.362	-0.0029
752.604	-0.0035
752.847	-0.0026
753.089	-0.0019
753.331	-0.0019
753.573	-0.0015
753.816	-0.0008
754.058	-0.0011
754.3	-0.0012
754.542	-0.001
754.783	-0.0019
755.025	-0.0027
755.267	-0.0037
755.509	-0.0043
755.75	-0.0035
755.992	-0.0042
756.234	-0.0034
756.475	-0.0029
756.716	-0.0008
756.958	-0.0007
757.199	-0.0005
757.44	-0.0025
757.682	-0.0023
757.923	-0.0023
758.164	-0.0025
758.405	-0.0018
758.646	-0.0013
758.887	-0.0008
759.128	-0.0018
759.369	-0.0031
759.609	-0.0021
759.85	-0.0025
760.091	-0.0024
760.331	-0.0023
760.572	-0.0015
760.812	-0.0021
761.053	-0.0011
761.293	-0.0008
761.533	-0.0008
761.774	0.0002
762.014	0.0001
762.254	-0
762.494	-0.0003
762.734	-0.0007
762.974	-0.0012
763.214	-0.0007
763.454	-0.001
763.694	-0.0015
763.933	-0.0004
764.173	0
764.413	0.0003
764.652	-0.0006
764.892	-0.0011
765.131	-0.0021
765.371	-0.0016
765.61	-0.0019
765.849	-0.0027
766.089	-0.0028
766.328	-0.0022
766.567	-0.0014
766.806	-0.002
767.045	-0.0002
767.284	0.0002
767.523	0.0005
767.762	-0.0015
768.001	0
768.239	-0.0011
768.478	-0.0003
768.717	-0.0006
768.955	-0.0011
769.194	-0.0009
769.432	-0.0012
769.671	-0.001
769.909	0.0001
770.148	-0.0001
770.386	0.0012
770.624	-0.0005
770.862	0.0011
771.1	0.0016
771.338	0.0007
771.576	0.0011
771.814	0.0002
772.052	-0.001
772.29	-0.0013
772.528	-0.0003
772.765	0.0001
773.003	0.0004
773.24	0.0006
773.478	0.001
773.716	0.0017
773.953	0.0016
774.19	0.0024
774.428	0.0026
774.665	0.003
774.902	0.003
775.139	0.003
775.376	0.0017
775.613	0.0028
775.85	0.0029
776.087	0.0043
776.324	0.0036
776.561	0.0041
776.798	0.0035
777.034	0.0048
777.271	0.0042
777.508	0.0042
777.744	0.0031
777.981	0.0028
778.217	0.0025
778.454	0.0025
778.69	0.0018
778.926	0.0011
779.162	0.0001
779.399	-0.001
779.635	-0.0018
779.871	-0.0028
780.107	-0.0015
780.343	-0.0013
780.579	-0.0001
780.814	-0
781.05	-0.0004
781.286	-0.0009
781.522	0.0006
781.757	0.0008
781.993	0.0015
782.228	0.0024
782.464	0.0023
782.699	0.0014
782.934	0.0015
783.17	0.0024
783.405	0.0013
783.64	0.0017
783.875	0.001
784.11	0.0019
784.345	0.0027
784.58	0.0021
784.815	0.003
785.05	0.0015
785.285	0.0017
785.52	0.0018
785.754	0.0014
785.989	0.0005
786.223	0.0014
786.458	0.0013
786.692	0.0016
786.927	0.0024
787.161	0.0015
787.396	0.0025
787.63	0.0034
787.864	0.0027
788.098	0.002
788.332	0.002
788.566	0.0013
788.8	0.0022
789.034	0.0016
789.268	0.002
789.502	0.0033
789.736	0.0031
789.969	0.003
790.203	0.0021
790.437	0.0015
790.67	0.0012
790.904	0
791.137	0.0003
791.37	0.0004
791.604	-0.0003
791.837	-0.0003
792.07	-0.0002
792.303	-0.0007
792.537	-0.001
792.77	-0.0018
793.003	-0.0012
793.236	-0.0012
793.469	0.0002
793.701	0.0002
793.934	-0.0008
794.167	-0
794.4	-0.0002
794.632	-0.0005
794.865	-0.0013
795.097	-0.0008
795.33	-0.0002
795.562	-0.0007
795.795	0.0001
796.027	-0.0008
796.259	-0.0015
796.491	-0.0021
796.724	-0.0009
796.956	-0.0008
797.188	-0.0008
797.42	-0.0004
797.652	-0.0001
797.883	-0.0006
798.115	-0.0009
798.347	-0.0019
798.579	-0.0012
798.81	-0.0016
799.042	-0.0015
799.274	-0.0014
799.505	-0.0007
799.737	0.0005
799.968	0.0007
800.199	0.0021
800.431	0.0029
800.662	0.0022
800.893	0.0021
801.124	0.0031
801.355	0.0014
801.586	0.0039
801.817	0.0017
802.048	0.001
802.279	0.0005
802.51	-0.0004
802.741	0.0009
802.971	0.0003
803.202	-0.0008
803.433	-0.0014
803.663	-0.0004
803.894	-0.0003
804.124	-0.0001
804.354	-0.0007
804.585	-0.0011
804.815	-0.0011
805.045	-0.0016
805.275	-0.0004
805.506	-0.0896
805.736	0.0846
805.966	0.4417
806.196	0.2647
