Data from 03 0.5 mM K2Cr2O7 0.2 mM BQDS 1 M H2SO4 5 min_Absorbance_0025.txt Node
Date: Thu Dec 09 17:51:44 EST 2021
User: kwabilab-user
Spectrometer: HDX00518
Trigger mode: 0
Integration Time (sec): 5.000000E-2
Scans to average: 50
Nonlinearity correction enabled: false
Boxcar width: 0
Storing dark spectrum: false
XAxis mode: Wavelengths
Number of Pixels in Spectrum: 2068
>>>>>Begin Spectral Data<<<<<
195.27	0.1549
195.642	0.2197
196.014	0.1761
196.386	0.2894
196.758	0.0378
197.129	0.0363
197.501	0.085
197.872	0.103
198.244	0.1429
198.615	0.1419
198.986	0.1408
199.357	0.1121
199.728	0.1189
200.099	0.1397
200.47	0.1425
200.841	0.1211
201.212	0.1392
201.582	0.1343
201.953	0.126
202.323	0.1157
202.694	0.132
203.064	0.1272
203.434	0.1612
203.804	0.1309
204.174	0.1333
204.544	0.1462
204.914	0.137
205.284	0.1392
205.653	0.153
206.023	0.1615
206.393	0.1593
206.762	0.1359
207.131	0.1543
207.501	0.1508
207.87	0.1651
208.239	0.1233
208.608	0.1662
208.977	0.1235
209.346	0.1657
209.715	0.1622
210.083	0.1714
210.452	0.1655
210.82	0.1535
211.189	0.1574
211.557	0.1567
211.925	0.1545
212.294	0.1632
212.662	0.1735
213.03	0.2
213.398	0.1822
213.766	0.2056
214.133	0.1699
214.501	0.193
214.869	0.1979
215.236	0.1957
215.604	0.2207
215.971	0.2351
216.338	0.2597
216.705	0.2487
217.072	0.2907
217.439	0.2612
217.806	0.302
218.173	0.352
218.54	0.3554
218.907	0.383
219.273	0.4384
219.64	0.4432
220.006	0.4866
220.373	0.5014
220.739	0.5466
221.105	0.5798
221.471	0.6122
221.837	0.6501
222.203	0.7194
222.569	0.7512
222.935	0.7764
223.3	0.7946
223.666	0.8358
224.031	0.8654
224.397	0.8987
224.762	0.9151
225.127	0.9403
225.493	0.9781
225.858	1.0112
226.223	1.0372
226.588	1.0461
226.952	1.0585
227.317	1.0929
227.682	1.0787
228.046	1.0819
228.411	1.1126
228.775	1.1225
229.14	1.1081
229.504	1.1112
229.868	1.1176
230.232	1.1147
230.596	1.1223
230.96	1.1232
231.324	1.1111
231.688	1.1062
232.052	1.1103
232.415	1.0993
232.779	1.1004
233.142	1.0968
233.505	1.0912
233.869	1.0895
234.232	1.071
234.595	1.0525
234.958	1.0527
235.321	1.0482
235.684	1.0311
236.047	1.0337
236.409	1.0152
236.772	1.0158
237.134	1.0077
237.497	0.9997
237.859	0.9962
238.222	0.9886
238.584	0.9764
238.946	0.9678
239.308	0.967
239.67	0.9567
240.032	0.9434
240.393	0.9418
240.755	0.9344
241.117	0.9329
241.478	0.9276
241.84	0.9154
242.201	0.9123
242.562	0.907
242.924	0.9061
243.285	0.8982
243.646	0.894
244.007	0.8911
244.368	0.8886
244.728	0.8808
245.089	0.8779
245.45	0.8733
245.81	0.8701
246.171	0.8666
246.531	0.8621
246.891	0.8655
247.252	0.8574
247.612	0.8573
247.972	0.8498
248.332	0.8504
248.692	0.8496
249.051	0.8481
249.411	0.8471
249.771	0.8446
250.13	0.8422
250.49	0.8393
250.849	0.841
251.208	0.8401
251.568	0.8363
251.927	0.8342
252.286	0.8355
252.645	0.8344
253.004	0.8338
253.363	0.8318
253.721	0.8318
254.08	0.8326
254.439	0.8286
254.797	0.8294
255.155	0.8296
255.514	0.8295
255.872	0.8306
256.23	0.8318
256.588	0.83
256.946	0.8283
257.304	0.8271
257.662	0.8279
258.02	0.8271
258.377	0.825
258.735	0.8273
259.093	0.8214
259.45	0.8249
259.807	0.8245
260.165	0.8231
260.522	0.8223
260.879	0.8223
261.236	0.819
261.593	0.8182
261.95	0.8183
262.306	0.814
262.663	0.8137
263.02	0.8165
263.376	0.8124
263.733	0.8115
264.089	0.8111
264.445	0.8044
264.802	0.8058
265.158	0.8057
265.514	0.8034
265.87	0.8019
266.226	0.7983
266.581	0.7985
266.937	0.7961
267.293	0.7906
267.648	0.7889
268.004	0.7894
268.359	0.787
268.714	0.7828
269.07	0.781
269.425	0.7769
269.78	0.7718
270.135	0.7714
270.49	0.7706
270.844	0.7675
271.199	0.7649
271.554	0.7597
271.908	0.7581
272.263	0.7548
272.617	0.7521
272.972	0.7458
273.326	0.7433
273.68	0.7388
274.034	0.7371
274.388	0.7306
274.742	0.7297
275.096	0.7256
275.45	0.7198
275.803	0.7162
276.157	0.7096
276.51	0.7076
276.864	0.703
277.217	0.6953
277.571	0.695
277.924	0.6844
278.277	0.6855
278.63	0.6767
278.983	0.6722
279.336	0.6669
279.688	0.6631
280.041	0.6565
280.394	0.653
280.746	0.6452
281.099	0.6417
281.451	0.6353
281.803	0.629
282.156	0.6245
282.508	0.6188
282.86	0.6134
283.212	0.6078
283.564	0.6009
283.916	0.5952
284.267	0.5889
284.619	0.5839
284.971	0.5785
285.322	0.5718
285.673	0.566
286.025	0.5597
286.376	0.5556
286.727	0.5479
287.078	0.5412
287.429	0.5354
287.78	0.5287
288.131	0.5234
288.482	0.5166
288.833	0.5088
289.183	0.5039
289.534	0.4979
289.884	0.4935
290.235	0.4848
290.585	0.4788
290.935	0.4722
291.285	0.4666
291.635	0.4605
291.985	0.4546
292.335	0.4481
292.685	0.4413
293.035	0.4354
293.384	0.4287
293.734	0.4226
294.083	0.418
294.433	0.4116
294.782	0.4046
295.131	0.3989
295.48	0.393
295.829	0.3868
296.179	0.3812
296.527	0.3757
296.876	0.3698
297.225	0.364
297.574	0.3587
297.922	0.3531
298.271	0.3469
298.619	0.3421
298.968	0.337
299.316	0.3313
299.664	0.3267
300.012	0.3221
300.36	0.3173
300.708	0.3123
301.056	0.3074
301.404	0.3019
301.752	0.2984
302.099	0.2948
302.447	0.2903
302.794	0.2856
303.142	0.2815
303.489	0.2779
303.836	0.2743
304.183	0.2708
304.531	0.2672
304.878	0.264
305.224	0.2602
305.571	0.2577
305.918	0.2549
306.265	0.2513
306.611	0.2487
306.958	0.2465
307.304	0.2437
307.651	0.2404
307.997	0.2386
308.343	0.2367
308.689	0.2342
309.035	0.2323
309.381	0.2313
309.727	0.2293
310.073	0.2281
310.419	0.2261
310.764	0.2246
311.11	0.2232
311.455	0.223
311.801	0.2217
312.146	0.2213
312.491	0.2201
312.837	0.2194
313.182	0.2193
313.527	0.2187
313.872	0.2181
314.216	0.218
314.561	0.2173
314.906	0.2177
315.251	0.2179
315.595	0.2177
315.94	0.2181
316.284	0.2185
316.628	0.2187
316.972	0.2194
317.317	0.2196
317.661	0.2212
318.005	0.221
318.348	0.2224
318.692	0.2227
319.036	0.2236
319.38	0.2243
319.723	0.2257
320.067	0.2265
320.41	0.2285
320.754	0.229
321.097	0.2311
321.44	0.2316
321.783	0.2339
322.126	0.2348
322.469	0.2365
322.812	0.2384
323.155	0.2407
323.498	0.2418
323.84	0.2441
324.183	0.2456
324.525	0.2479
324.868	0.249
325.21	0.2512
325.552	0.2529
325.894	0.2555
326.236	0.257
326.578	0.2595
326.92	0.2616
327.262	0.2635
327.604	0.265
327.946	0.2677
328.287	0.2702
328.629	0.2724
328.97	0.2739
329.312	0.277
329.653	0.2794
329.994	0.281
330.335	0.2838
330.676	0.2866
331.017	0.2895
331.358	0.2913
331.699	0.2939
332.04	0.2962
332.38	0.2989
332.721	0.301
333.061	0.3034
333.402	0.3056
333.742	0.3082
334.083	0.31
334.423	0.3117
334.763	0.3141
335.103	0.3156
335.443	0.3184
335.783	0.32
336.123	0.3221
336.462	0.3237
336.802	0.3257
337.141	0.328
337.481	0.3294
337.82	0.3325
338.16	0.3331
338.499	0.3354
338.838	0.3386
339.177	0.3405
339.516	0.3416
339.855	0.3437
340.194	0.3446
340.533	0.347
340.872	0.3489
341.21	0.3503
341.549	0.3514
341.887	0.3531
342.226	0.354
342.564	0.3551
342.902	0.3558
343.24	0.3561
343.578	0.3577
343.916	0.3579
344.254	0.3585
344.592	0.3587
344.93	0.3603
345.268	0.3603
345.605	0.3602
345.943	0.3608
346.28	0.3622
346.618	0.3622
346.955	0.3622
347.292	0.3632
347.629	0.363
347.966	0.3636
348.303	0.3641
348.64	0.364
348.977	0.3641
349.314	0.3642
349.65	0.3638
349.987	0.3653
350.324	0.3636
350.66	0.3634
350.996	0.363
351.333	0.3625
351.669	0.3618
352.005	0.3606
352.341	0.3594
352.677	0.3589
353.013	0.357
353.349	0.3565
353.685	0.3551
354.02	0.3541
354.356	0.3516
354.691	0.3506
355.027	0.3488
355.362	0.3483
355.697	0.3466
356.033	0.3456
356.368	0.3436
356.703	0.3424
357.038	0.3417
357.373	0.3398
357.707	0.3389
358.042	0.3371
358.377	0.3354
358.711	0.3342
359.046	0.3322
359.38	0.3314
359.715	0.3303
360.049	0.328
360.383	0.326
360.717	0.3243
361.051	0.3215
361.385	0.32
361.719	0.3179
362.053	0.3148
362.387	0.3118
362.72	0.3099
363.054	0.308
363.387	0.3043
363.721	0.3021
364.054	0.3
364.387	0.2966
364.721	0.2945
365.054	0.2923
365.387	0.2891
365.72	0.2861
366.053	0.2844
366.385	0.2822
366.718	0.28
367.051	0.2777
367.383	0.2754
367.716	0.273
368.048	0.2715
368.381	0.2693
368.713	0.2672
369.045	0.2645
369.377	0.2629
369.709	0.2609
370.041	0.2589
370.373	0.2575
370.705	0.2541
371.037	0.2523
371.368	0.2499
371.7	0.2474
372.031	0.2434
372.363	0.2422
372.694	0.2402
373.025	0.2366
373.356	0.2326
373.688	0.2307
374.019	0.2269
374.35	0.2245
374.68	0.2215
375.011	0.2182
375.342	0.2154
375.673	0.2124
376.003	0.2105
376.334	0.2068
376.664	0.2042
376.995	0.2019
377.325	0.2
377.655	0.198
377.985	0.1946
378.315	0.1928
378.645	0.1908
378.975	0.1892
379.305	0.1868
379.635	0.1843
379.964	0.1839
380.294	0.1808
380.623	0.1794
380.953	0.1772
381.282	0.1745
381.611	0.1725
381.941	0.1713
382.27	0.1695
382.599	0.1669
382.928	0.1644
383.257	0.1625
383.585	0.1604
383.914	0.1586
384.243	0.1558
384.571	0.1535
384.9	0.1514
385.228	0.1485
385.557	0.146
385.885	0.144
386.213	0.1418
386.541	0.1387
386.869	0.1364
387.197	0.1347
387.525	0.1306
387.853	0.1295
388.181	0.1278
388.508	0.1249
388.836	0.1231
389.164	0.1214
389.491	0.12
389.818	0.1183
390.146	0.1161
390.473	0.1134
390.8	0.1123
391.127	0.1104
391.454	0.1094
391.781	0.1077
392.108	0.1063
392.435	0.1049
392.761	0.1029
393.088	0.102
393.415	0.1006
393.741	0.0985
394.067	0.0982
394.394	0.0967
394.72	0.0956
395.046	0.0942
395.372	0.093
395.698	0.0914
396.024	0.0904
396.35	0.0891
396.676	0.0875
397.001	0.0864
397.327	0.0846
397.653	0.0842
397.978	0.0819
398.303	0.0811
398.629	0.0798
398.954	0.0789
399.279	0.0784
399.604	0.0758
399.929	0.0755
400.254	0.0749
400.579	0.0741
400.904	0.0727
401.229	0.0712
401.553	0.071
401.878	0.0697
402.202	0.0691
402.527	0.0682
402.851	0.0672
403.175	0.0665
403.5	0.066
403.824	0.065
404.148	0.0646
404.472	0.0641
404.796	0.0639
405.119	0.0637
405.443	0.0626
405.767	0.0624
406.09	0.0622
406.414	0.0619
406.737	0.0605
407.061	0.0607
407.384	0.0612
407.707	0.0612
408.03	0.0599
408.353	0.0601
408.676	0.06
408.999	0.0592
409.322	0.0589
409.645	0.0592
409.968	0.0591
410.29	0.0589
410.613	0.0589
410.935	0.0584
411.258	0.0584
411.58	0.058
411.902	0.058
412.224	0.0584
412.546	0.058
412.868	0.0583
413.19	0.0576
413.512	0.0575
413.834	0.0577
414.156	0.0573
414.477	0.0575
414.799	0.0569
415.121	0.0576
415.442	0.0573
415.763	0.0572
416.085	0.0579
416.406	0.0573
416.727	0.057
417.048	0.0574
417.369	0.0572
417.69	0.0578
418.011	0.0577
418.331	0.0587
418.652	0.0582
418.973	0.058
419.293	0.0579
419.614	0.0584
419.934	0.0588
420.254	0.0587
420.574	0.059
420.895	0.0581
421.215	0.0582
421.535	0.0576
421.855	0.0583
422.174	0.0586
422.494	0.0581
422.814	0.0588
423.134	0.0589
423.453	0.0593
423.773	0.0594
424.092	0.0595
424.411	0.0585
424.731	0.0594
425.05	0.0594
425.369	0.059
425.688	0.06
426.007	0.0601
426.326	0.06
426.644	0.0601
426.963	0.0604
427.282	0.0603
427.6	0.0604
427.919	0.0601
428.237	0.0611
428.556	0.0611
428.874	0.0608
429.192	0.0614
429.51	0.0603
429.828	0.0611
430.146	0.0607
430.464	0.0611
430.782	0.0614
431.1	0.0613
431.418	0.0613
431.735	0.0612
432.053	0.0617
432.37	0.062
432.688	0.0614
433.005	0.062
433.322	0.0619
433.639	0.0617
433.957	0.0621
434.274	0.0618
434.591	0.0624
434.907	0.0627
435.224	0.0622
435.541	0.063
435.858	0.0643
436.174	0.0629
436.491	0.0633
436.807	0.0625
437.124	0.0633
437.44	0.0622
437.756	0.0616
438.072	0.0623
438.388	0.0626
438.704	0.0625
439.02	0.0618
439.336	0.0625
439.652	0.0629
439.968	0.0629
440.283	0.063
440.599	0.0627
440.914	0.0626
441.23	0.0616
441.545	0.0622
441.86	0.0627
442.175	0.0625
442.491	0.0625
442.806	0.062
443.121	0.0633
443.435	0.0625
443.75	0.0625
444.065	0.0624
444.38	0.0619
444.694	0.0624
445.009	0.0619
445.323	0.063
445.638	0.0617
445.952	0.0617
446.266	0.0618
446.58	0.0619
446.894	0.0613
447.208	0.0614
447.522	0.0612
447.836	0.0615
448.15	0.0607
448.464	0.0603
448.777	0.061
449.091	0.0601
449.404	0.0597
449.718	0.0603
450.031	0.0603
450.345	0.0598
450.658	0.0596
450.971	0.06
451.284	0.06
451.597	0.0597
451.91	0.0593
452.223	0.0596
452.535	0.0594
452.848	0.0604
453.161	0.0594
453.473	0.0586
453.786	0.0597
454.098	0.0586
454.411	0.0588
454.723	0.0586
455.035	0.059
455.347	0.0582
455.659	0.057
455.971	0.0566
456.283	0.0574
456.595	0.0571
456.907	0.0574
457.218	0.0573
457.53	0.0569
457.841	0.056
458.153	0.0571
458.464	0.0556
458.776	0.0566
459.087	0.055
459.398	0.0551
459.709	0.0549
460.02	0.0551
460.331	0.0548
460.642	0.0542
460.953	0.0547
461.263	0.0543
461.574	0.0544
461.885	0.0548
462.195	0.0538
462.506	0.0536
462.816	0.0535
463.126	0.0532
463.437	0.0529
463.747	0.053
464.057	0.0525
464.367	0.0522
464.677	0.0519
464.987	0.0518
465.296	0.0516
465.606	0.0512
465.916	0.0511
466.225	0.0512
466.535	0.05
466.844	0.0497
467.154	0.0499
467.463	0.0491
467.772	0.0486
468.081	0.049
468.39	0.0487
468.699	0.0486
469.008	0.0482
469.317	0.0484
469.626	0.0481
469.935	0.0472
470.243	0.0471
470.552	0.0466
470.86	0.0459
471.169	0.0453
471.477	0.0461
471.785	0.0452
472.093	0.0459
472.402	0.0449
472.71	0.0446
473.018	0.0447
473.326	0.0439
473.633	0.0436
473.941	0.0432
474.249	0.0428
474.556	0.0428
474.864	0.0425
475.171	0.0425
475.479	0.0413
475.786	0.0418
476.094	0.0417
476.401	0.0424
476.708	0.0404
477.015	0.0408
477.322	0.0402
477.629	0.0398
477.936	0.0394
478.242	0.0398
478.549	0.0401
478.856	0.0388
479.162	0.039
479.469	0.0383
479.775	0.0376
480.081	0.038
480.388	0.0375
480.694	0.0375
481	0.0364
481.306	0.0376
481.612	0.0367
481.918	0.0365
482.224	0.036
482.53	0.0352
482.835	0.036
483.141	0.0351
483.446	0.0351
483.752	0.0351
484.057	0.0339
484.363	0.0338
484.668	0.0335
484.973	0.0334
485.278	0.0336
485.583	0.0328
485.888	0.0314
486.193	0.0312
486.498	0.0324
486.803	0.0321
487.107	0.0304
487.412	0.0304
487.717	0.0305
488.021	0.0294
488.325	0.0293
488.63	0.0303
488.934	0.0297
489.238	0.0294
489.542	0.0284
489.846	0.0285
490.15	0.0275
490.454	0.0273
490.758	0.0273
491.062	0.0273
491.366	0.0275
491.669	0.0267
491.973	0.027
492.276	0.0268
492.58	0.0271
492.883	0.0268
493.186	0.0249
493.489	0.0261
493.792	0.0252
494.096	0.0245
494.399	0.0242
494.701	0.0249
495.004	0.0246
495.307	0.0238
495.61	0.0248
495.912	0.0232
496.215	0.0228
496.517	0.0228
496.82	0.0228
497.122	0.0224
497.424	0.0223
497.727	0.0215
498.029	0.0219
498.331	0.0209
498.633	0.022
498.935	0.0214
499.237	0.0208
499.538	0.0205
499.84	0.0208
500.142	0.0202
500.443	0.0203
500.745	0.0196
501.046	0.0193
501.348	0.0198
501.649	0.0203
501.95	0.0191
502.251	0.0187
502.552	0.0189
502.853	0.0184
503.154	0.0179
503.455	0.0186
503.756	0.0176
504.057	0.018
504.357	0.0174
504.658	0.0177
504.958	0.0169
505.259	0.0167
505.559	0.0165
505.859	0.0166
506.16	0.0163
506.46	0.0164
506.76	0.015
507.06	0.016
507.36	0.0167
507.66	0.0156
507.96	0.0144
508.259	0.0146
508.559	0.0158
508.859	0.0145
509.158	0.015
509.457	0.0148
509.757	0.0128
510.056	0.0133
510.355	0.013
510.655	0.015
510.954	0.0126
511.253	0.0134
511.552	0.0128
511.851	0.0123
512.149	0.0116
512.448	0.0122
512.747	0.0118
513.045	0.0112
513.344	0.0111
513.642	0.0121
513.941	0.0118
514.239	0.0112
514.537	0.0114
514.836	0.0116
515.134	0.0109
515.432	0.0119
515.73	0.0114
516.028	0.0104
516.326	0.0108
516.623	0.0117
516.921	0.0109
517.219	0.0122
517.516	0.0112
517.814	0.0106
518.111	0.0095
518.409	0.009
518.706	0.0103
519.003	0.0084
519.3	0.0103
519.597	0.0096
519.894	0.0097
520.191	0.0097
520.488	0.0097
520.785	0.0097
521.082	0.0096
521.378	0.0085
521.675	0.0081
521.971	0.0091
522.268	0.0093
522.564	0.008
522.861	0.0076
523.157	0.0081
523.453	0.0087
523.749	0.007
524.045	0.0066
524.341	0.0082
524.637	0.0073
524.933	0.0067
525.229	0.0079
525.524	0.0071
525.82	0.0069
526.115	0.0063
526.411	0.006
526.706	0.0057
527.002	0.005
527.297	0.0053
527.592	0.0071
527.887	0.006
528.182	0.0059
528.477	0.0054
528.772	0.0059
529.067	0.0056
529.362	0.0053
529.657	0.0054
529.951	0.006
530.246	0.0058
530.54	0.0056
530.835	0.0053
531.129	0.0067
531.423	0.0053
531.718	0.0056
532.012	0.0049
532.306	0.0047
532.6	0.0054
532.894	0.0057
533.188	0.0046
533.482	0.0062
533.775	0.0048
534.069	0.0043
534.363	0.0039
534.656	0.0046
534.95	0.0035
535.243	0.0041
535.536	0.0048
535.83	0.0044
536.123	0.0039
536.416	0.0042
536.709	0.0042
537.002	0.0041
537.295	0.0033
537.588	0.0032
537.881	0.0043
538.173	0.004
538.466	0.0042
538.759	0.0027
539.051	0.0039
539.344	0.0035
539.636	0.0028
539.928	0.0042
540.22	0.003
540.513	0.0041
540.805	0.0034
541.097	0.0032
541.389	0.0027
541.681	0.0042
541.972	0.0036
542.264	0.0046
542.556	0.0038
542.847	0.0027
543.139	0.0029
543.431	0.0036
543.722	0.0031
544.013	0.0023
544.305	0.0041
544.596	0.0018
544.887	0.0024
545.178	0.0031
545.469	0.0019
545.76	0.0027
546.051	0.0037
546.342	0.0028
546.632	0.0039
546.923	0.0021
547.214	0.0027
547.504	0.0016
547.795	0.0014
548.085	0.0025
548.375	0.0021
548.666	0.0016
548.956	0.0042
549.246	0.0023
549.536	0.0027
549.826	0.0022
550.116	0.0025
550.406	0.0027
550.695	0.0041
550.985	0.0023
551.275	0.0026
551.564	0.0018
551.854	0.0036
552.143	0.0035
552.433	0.0016
552.722	0.002
553.011	0.0028
553.3	0.0022
553.589	0.0027
553.879	0.0014
554.167	0.003
554.456	0.001
554.745	0.0034
555.034	0.0034
555.323	0.0005
555.611	0.0013
555.9	0.0024
556.188	0.0017
556.477	0.0015
556.765	0.0029
557.053	0.0027
557.342	0.0021
557.63	0.002
557.918	0.0028
558.206	0.0038
558.494	0.003
558.782	0.0025
559.069	0.003
559.357	0.0032
559.645	0.0034
559.932	0.0018
560.22	0.0041
560.507	0.0024
560.795	0.0027
561.082	0.0012
561.37	0.002
561.657	0.003
561.944	0.0012
562.231	0.0016
562.518	0.0022
562.805	0.0015
563.092	0.0021
563.379	0.0021
563.665	0.0025
563.952	0.0018
564.239	0.0038
564.525	0.0023
564.811	0.0028
565.098	0.002
565.384	0.0025
565.67	0.0035
565.957	0.0032
566.243	0.0026
566.529	0.0038
566.815	0.0025
567.101	0.0023
567.387	0.0029
567.672	0.0016
567.958	0.0027
568.244	0.0026
568.529	0.0022
568.815	0.0022
569.1	0.0023
569.386	0.003
569.671	0.0041
569.956	0.0028
570.242	0.0022
570.527	0.0031
570.812	0.003
571.097	0.0035
571.382	0.0031
571.666	0.0032
571.951	0.0027
572.236	0.003
572.521	0.0032
572.805	0.0028
573.09	0.0024
573.374	0.0018
573.659	0.0036
573.943	0.0031
574.227	0.0027
574.511	0.003
574.795	0.0026
575.079	0.0032
575.363	0.0021
575.647	0.0031
575.931	0.0027
576.215	0.0013
576.499	0.0012
576.782	0.003
577.066	0.0013
577.349	0.0025
577.633	0.002
577.916	0.0016
578.2	0.0024
578.483	0.0037
578.766	0.0034
579.049	0.0035
579.332	0.0028
579.615	0.0027
579.898	0.0024
580.181	0.0028
580.464	0.0021
580.746	0.0025
581.029	0.0038
581.312	0.002
581.594	0.0011
581.877	0.0033
582.159	0.0027
582.441	0.0027
582.724	0.0022
583.006	0.0025
583.288	0.0019
583.57	0.0036
583.852	0.0022
584.134	0.0021
584.416	0.0012
584.697	0.0023
584.979	0.0017
585.261	0.0019
585.542	0.0031
585.824	0.0025
586.105	0.0022
586.387	0.0031
586.668	0.0024
586.949	0.0018
587.231	0.0022
587.512	0.0024
587.793	0.0028
588.074	0.0025
588.355	0.0022
588.636	0.0024
588.916	0.0025
589.197	0.0033
589.478	0.003
589.758	0.0028
590.039	0.0019
590.319	0.003
590.6	0.0021
590.88	0.0026
591.16	0.002
591.441	0.0018
591.721	0.0024
592.001	0.0014
592.281	0.0011
592.561	0.0016
592.841	0.0012
593.12	0.0024
593.4	0.0018
593.68	0.0021
593.959	0.0022
594.239	0.0029
594.518	0.0035
594.798	0.0023
595.077	0.0032
595.356	0.0021
595.636	0.0019
595.915	0.0023
596.194	0.0025
596.473	0.0019
596.752	0.0016
597.031	0.0013
597.31	0.0016
597.588	0.0024
597.867	0.0012
598.146	0.0022
598.424	0.0019
598.703	0.0009
598.981	0.0013
599.259	0.0023
599.538	0.002
599.816	0.0017
600.094	0.0009
600.372	0.0016
600.65	0.0019
600.928	0.0011
601.206	-0.0005
601.484	0.0014
601.762	0.0007
602.04	-0.0005
602.317	0.0008
602.595	0.0015
602.872	0.0015
603.15	0.0019
603.427	0.0014
603.704	0.0027
603.982	0.003
604.259	0.002
604.536	0.0023
604.813	0.0019
605.09	0.0011
605.367	0.0011
605.644	0.0008
605.921	0.0004
606.197	-0.0001
606.474	0.0015
606.751	0.0003
607.027	0.0008
607.304	0.001
607.58	0.0012
607.856	0.0009
608.133	0.0019
608.409	0.0012
608.685	0.0013
608.961	0.0007
609.237	0.0011
609.513	0.0009
609.789	0.001
610.065	0.0011
610.341	0.0013
610.616	0.0022
610.892	0.0021
611.167	0.002
611.443	0.0031
611.718	0.0023
611.994	0.0018
612.269	0.0028
612.544	0.0018
612.819	0.0016
613.095	0.0016
613.37	0.0017
613.645	0.0023
613.919	0.0034
614.194	0.0035
614.469	0.0031
614.744	0.0019
615.019	0.0025
615.293	0.0012
615.568	0.0017
615.842	0.0009
616.116	0.0014
616.391	0.0015
616.665	0.0008
616.939	0.0008
617.213	0.0019
617.488	0.0017
617.762	0.0009
618.035	0.0015
618.309	0.0007
618.583	0.0013
618.857	0.0017
619.131	0.0008
619.404	0.0009
619.678	0.0016
619.951	0.0002
620.225	0.0008
620.498	0.0017
620.771	0.0014
621.045	0.0025
621.318	0.0017
621.591	0.0006
621.864	0.0016
622.137	0.0026
622.41	0.002
622.683	0.0022
622.956	0.0011
623.228	0.0014
623.501	0.0013
623.774	0.0013
624.046	0.0003
624.319	0.0009
624.591	-0.0002
624.863	0.0005
625.136	0.0004
625.408	0.0016
625.68	0.0009
625.952	0.0014
626.224	0.0001
626.496	-0.0001
626.768	0.001
627.04	0
627.311	0.0002
627.583	-0
627.855	0.001
628.126	0.0007
628.398	0.0012
628.669	-0.0008
628.941	-0
629.212	0.0005
629.483	0.0012
629.755	0
630.026	0.0004
630.297	0.0016
630.568	0.0006
630.839	0.0013
631.11	-0.0008
631.38	0.0006
631.651	0
631.922	-0.0002
632.192	0.0006
632.463	0.0003
632.733	0.0001
633.004	-0.0001
633.274	-0.0002
633.545	-0.0001
633.815	0.0008
634.085	0.0006
634.355	0.0011
634.625	0.0007
634.895	0.002
635.165	0.0017
635.435	0.0019
635.705	0.0001
635.974	0.0003
636.244	-0.001
636.514	0.0014
636.783	0.0001
637.053	0.002
637.322	0.0017
637.591	0.0009
637.861	-0.0005
638.13	0.0014
638.399	0.0005
638.668	0.0012
638.937	0.001
639.206	0.0015
639.475	0.0011
639.744	0.0012
640.013	0.0021
640.281	0.0018
640.55	0.002
640.819	0.0026
641.087	0.0023
641.356	0.0025
641.624	0.0025
641.892	0.0014
642.161	0.0014
642.429	0.0017
642.697	0.0011
642.965	0.0013
643.233	0.0008
643.501	0.0016
643.769	-0.0006
644.037	0.0008
644.305	0.0002
644.572	0.0002
644.84	-0.0003
645.108	-0.0003
645.375	-0.0024
645.643	-0.0022
645.91	-0.0023
646.177	-0.0019
646.445	-0.003
646.712	-0.0028
646.979	-0.0023
647.246	-0.0005
647.513	0.0004
647.78	0.0012
648.047	0.0006
648.314	0.0016
648.58	0.0012
648.847	0.0005
649.114	0.0007
649.38	-0.0004
649.647	-0.0002
649.913	-0.0005
650.18	-0.0008
650.446	-0.0025
650.712	-0.0016
650.978	-0.0012
651.245	-0.0019
651.511	0.0008
651.777	0.0003
652.043	0.0007
652.309	0.0007
652.574	0.0002
652.84	-0.0008
653.106	-0.0014
653.371	-0.0015
653.637	-0.0022
653.903	-0.0012
654.168	0
654.433	0.0011
654.699	0.0015
654.964	0.002
655.229	0.0017
655.494	0.0006
655.759	-0.0029
656.024	0.0008
656.289	-0
656.554	0.0049
656.819	0.002
657.084	0.0008
657.349	-0.0002
657.613	0.0003
657.878	-0.0003
658.142	-0.001
658.407	0.0005
658.671	0.0003
658.936	0.0021
659.2	0.0013
659.464	0.0015
659.728	0.0015
659.992	-0
660.256	-0
660.52	-0.0009
660.784	-0.0003
661.048	-0.0001
661.312	-0.0004
661.575	-0.0003
661.839	-0.0009
662.103	-0.0006
662.366	-0.0007
662.63	-0.0005
662.893	0.0015
663.156	0.0011
663.42	0.0009
663.683	0.0005
663.946	-0.0001
664.209	-0.0002
664.472	0.0015
664.735	0.0009
664.998	0.0013
665.261	0.0003
665.524	0.0004
665.786	0.0007
666.049	0.0011
666.312	0.0021
666.574	0.0032
666.837	0.002
667.099	0.001
667.361	0.0008
667.624	-0.0006
667.886	0.0006
668.148	0.001
668.41	0.0009
668.672	0.0008
668.934	0.0009
669.196	0.0014
669.458	0.0018
669.72	0.002
669.982	0.0018
670.243	0.0008
670.505	0.0014
670.766	-0.0005
671.028	0.001
671.289	0.0002
671.551	-0.0015
671.812	0.0004
672.073	0.0009
672.334	0.0008
672.596	0.0015
672.857	0.0019
673.118	0.0029
673.379	0.0023
673.639	0.0013
673.9	0.0003
674.161	0.0009
674.422	0.0008
674.682	-0.0004
674.943	-0
675.203	0.0009
675.464	0.0005
675.724	0.001
675.985	0.0011
676.245	0.0019
676.505	0.0001
676.765	0.0001
677.025	0.0005
677.285	0.0003
677.545	0.0006
677.805	-0.0003
678.065	0.0003
678.325	0.0021
678.585	0.0005
678.844	0.0012
679.104	0.0019
679.363	0.0005
679.623	0.0006
679.882	0.0003
680.142	0.0015
680.401	0.0015
680.66	0.0009
680.919	0.0012
681.178	0.0017
681.437	0.0013
681.696	0.0013
681.955	0.0024
682.214	0.0029
682.473	0.0022
682.732	0.0029
682.99	-0.0001
683.249	0.0003
683.508	0.0009
683.766	0.0008
684.024	0.0009
684.283	0.0006
684.541	0.0007
684.799	0.0012
685.058	0.0004
685.316	0.0006
685.574	0.0009
685.832	-0
686.09	0.0009
686.348	0.0001
686.606	-0.0007
686.863	-0.0008
687.121	-0.0009
687.379	-0.001
687.636	-0.0015
687.894	0.0001
688.151	-0.001
688.409	-0.0006
688.666	-0.0013
688.923	-0.0017
689.181	-0.001
689.438	0.0005
689.695	0.0007
689.952	0.0025
690.209	0.001
690.466	0.0013
690.723	-0.0002
690.979	-0.0008
691.236	-0.0005
691.493	0.0001
691.75	-0.0006
692.006	0.0008
692.263	0.0001
692.519	0
692.775	-0.0007
693.032	-0.0002
693.288	-0.0003
693.544	-0.0004
693.8	-0.0005
694.056	-0.0013
694.313	-0.001
694.568	-0.0004
694.824	-0.0011
695.08	-0.0009
695.336	-0.0004
695.592	-0.0016
695.847	-0.0002
696.103	-0.0017
696.359	-0.0004
696.614	-0.0006
696.869	-0.0012
697.125	-0.0021
697.38	0.0003
697.635	0.0003
697.891	-0.001
698.146	-0.0016
698.401	-0.0018
698.656	-0.0017
698.911	-0.002
699.166	-0.0026
699.42	-0.003
699.675	-0.003
699.93	-0.0013
700.185	-0.0008
700.439	0.0004
700.694	0.0011
700.948	-0.0003
701.203	-0.0004
701.457	-0.0001
701.711	-0.0005
701.965	-0.0004
702.22	0.0001
702.474	0.0007
702.728	0.001
702.982	0.0014
703.236	0.0006
703.49	0.0012
703.743	-0.0006
703.997	-0.0007
704.251	-0.0003
704.504	-0.0014
704.758	0.0003
705.012	-0.0005
705.265	-0.0007
705.518	-0.0013
705.772	-0.0008
706.025	-0.0004
706.278	-0.0009
706.531	-0.0007
706.785	-0.0019
707.038	-0.0015
707.291	-0.0009
707.543	-0.0021
707.796	-0.0006
708.049	-0.0011
708.302	-0.0009
708.555	0.0002
708.807	0.0024
709.06	-0.0001
709.312	0.001
709.565	-0.0001
709.817	-0.0008
710.069	0.0001
710.322	-0.0009
710.574	0.0002
710.826	0.0005
711.078	0.0019
711.33	0.003
711.582	0.0026
711.834	0.0012
712.086	0.0008
712.338	0
712.59	-0.0009
712.841	-0.0016
713.093	-0.0006
713.344	-0.0017
713.596	-0.0011
713.847	-0.0001
714.099	-0
714.35	-0.0005
714.601	-0.002
714.853	-0.0017
715.104	-0.0018
715.355	-0.002
715.606	0.0002
715.857	-0.0007
716.108	-0.001
716.359	-0.0014
716.609	-0.0015
716.86	-0.0014
717.111	-0.0016
717.361	-0.0028
717.612	-0.0032
717.863	-0.0028
718.113	-0.0036
718.363	-0.0043
718.614	-0.0034
718.864	-0.003
719.114	-0.0029
719.364	-0.0035
719.614	-0.0041
719.865	-0.0031
720.114	-0.004
720.364	-0.0036
720.614	-0.0028
720.864	-0.0023
721.114	-0.001
721.364	-0.0018
721.613	-0.0011
721.863	-0.0002
722.112	0.0001
722.362	-0.0008
722.611	-0.0008
722.86	-0.0018
723.11	-0.003
723.359	-0.0018
723.608	-0.0021
723.857	-0.0017
724.106	-0.0012
724.355	-0.0007
724.604	-0.0015
724.853	-0.0019
725.102	-0.0023
725.351	-0.0014
725.599	-0.0016
725.848	-0.0006
726.097	0.0004
726.345	0.0011
726.594	0.0024
726.842	0.0017
727.09	0.0004
727.339	-0.0006
727.587	-0.0005
727.835	-0.0027
728.083	-0.0019
728.331	-0.0029
728.579	-0.0016
728.827	0.0006
729.075	0.0008
729.323	0.0018
729.571	0.0021
729.818	0.0014
730.066	0.0013
730.314	0.0003
730.561	0.0001
730.809	-0.0026
731.056	-0.0014
731.303	0
731.551	-0.0004
731.798	-0.0017
732.045	-0.0005
732.292	-0.0002
732.539	-0.0015
732.786	-0.0014
733.033	-0.0015
733.28	-0.0003
733.527	-0.0006
733.774	-0.0012
734.021	-0.0002
734.267	-0.0001
734.514	-0.0007
734.76	0
735.007	-0.0003
735.253	-0.0014
735.5	-0.0014
735.746	-0.0011
735.992	0.0002
736.238	-0.0002
736.485	-0.0016
736.731	-0.0017
736.977	-0.0035
737.223	-0.0023
737.469	-0.0027
737.715	-0.0011
737.96	-0.0009
738.206	0.0009
738.452	0.0028
738.697	0.0022
738.943	0.002
739.189	0.0005
739.434	0.0011
739.679	0.0011
739.925	0.0018
740.17	0.0009
740.415	0.0013
740.66	0.0013
740.906	0.0005
741.151	0.0007
741.396	-0.0002
741.641	0.0005
741.886	-0.0004
742.13	0.0003
742.375	0.0001
742.62	-0.0007
742.865	0.0002
743.109	0.0001
743.354	-0.0004
743.598	0.0003
743.843	0.0005
744.087	0.0003
744.331	0.0005
744.576	0.0005
744.82	-0.0007
745.064	-0.0011
745.308	-0.0012
745.552	-0.001
745.796	-0.0012
746.04	-0.0003
746.284	-0.0005
746.528	-0.0006
746.771	-0.0015
747.015	-0.0011
747.259	-0.002
747.502	0.0003
747.746	-0.0002
747.989	-0.0011
748.233	-0.0021
748.476	-0.0018
748.719	-0.0022
748.963	-0.002
749.206	-0.0008
749.449	-0.0013
749.692	0.0001
749.935	0.0002
750.178	-0.0006
750.421	-0.0013
750.664	-0.0037
750.906	-0.0041
751.149	-0.0045
751.392	-0.0047
751.635	-0.0041
751.877	-0.0025
752.12	-0.003
752.362	-0.0027
752.604	-0.0033
752.847	-0.0026
753.089	-0.0016
753.331	-0.002
753.573	-0.0019
753.816	-0.0004
754.058	-0.0009
754.3	-0.0004
754.542	-0.0003
754.783	-0.0007
755.025	-0.0018
755.267	-0.0027
755.509	-0.0028
755.75	-0.0031
755.992	-0.0026
756.234	-0.0023
756.475	-0.0018
756.716	-0.0012
756.958	-0.0008
757.199	0.0001
757.44	-0.0026
757.682	-0.002
757.923	-0.0008
758.164	-0.0016
758.405	-0.0016
758.646	-0.0007
758.887	-0.0002
759.128	-0.0017
759.369	-0.0028
759.609	-0.0022
759.85	-0.003
760.091	-0.0016
760.331	-0.0023
760.572	-0.0014
760.812	-0.0025
761.053	-0.0008
761.293	-0.0003
761.533	-0.0007
761.774	0.0014
762.014	0.0009
762.254	0
762.494	0.0003
762.734	-0.0009
762.974	-0.0014
763.214	-0.0005
763.454	-0.0017
763.694	-0.001
763.933	-0.0001
764.173	0.0002
764.413	-0.0002
764.652	-0.0015
764.892	-0.0003
765.131	-0.0014
765.371	-0.0012
765.61	-0.0006
765.849	-0.0025
766.089	-0.0015
766.328	-0.0013
766.567	-0.0004
766.806	-0.0014
767.045	0.0003
767.284	0.0005
767.523	0.0005
767.762	-0.0009
768.001	-0.0008
768.239	-0.0007
768.478	-0.0006
768.717	-0.0006
768.955	-0.0012
769.194	-0.0008
769.432	0.0001
769.671	-0.0002
769.909	0.0008
770.148	0
770.386	0.0002
770.624	0.0004
770.862	0.0015
771.1	0.0011
771.338	0.0007
771.576	0.0021
771.814	0.0012
772.052	-0.0002
772.29	-0.0005
772.528	-0.0005
772.765	0.0006
773.003	0.0006
773.24	0.0008
773.478	0.0014
773.716	0.0014
773.953	0.0024
774.19	0.0031
774.428	0.0026
774.665	0.0037
774.902	0.0037
775.139	0.0033
775.376	0.0023
775.613	0.003
775.85	0.004
776.087	0.0034
776.324	0.0032
776.561	0.0041
776.798	0.0046
777.034	0.0062
777.271	0.0044
777.508	0.005
777.744	0.0039
777.981	0.0031
778.217	0.0023
778.454	0.0023
778.69	0.0009
778.926	0.0004
779.162	-0.0005
779.399	-0.0021
779.635	-0.0027
779.871	-0.0035
780.107	-0.002
780.343	-0.0022
780.579	-0.0003
780.814	-0.001
781.05	-0.0009
781.286	-0.0013
781.522	0.0008
781.757	0.0011
781.993	0.0012
782.228	0.0018
782.464	0.0019
782.699	0.0015
782.934	0.0002
783.17	0.0021
783.405	0.0019
783.64	0.0012
783.875	0.002
784.11	0.003
784.345	0.0029
784.58	0.0019
784.815	0.0026
785.05	0.0011
785.285	0.0011
785.52	0.001
785.754	0.0011
785.989	0.0005
786.223	0.0007
786.458	0.0009
786.692	0.0006
786.927	0.0021
787.161	0.0014
787.396	0.0019
787.63	0.0028
787.864	0.0024
788.098	0.0019
788.332	0.0021
788.566	0.0013
788.8	0.0022
789.034	0.0021
789.268	0.0028
789.502	0.0036
789.736	0.0036
789.969	0.0034
790.203	0.0028
790.437	0.0015
790.67	0.0016
790.904	0.0005
791.137	0.001
791.37	0.0002
791.604	-0.0004
791.837	-0.0004
792.07	0.0003
792.303	-0.0004
792.537	-0.0005
792.77	-0.0013
793.003	-0.0013
793.236	-0.0011
793.469	0.0005
793.701	0.0009
793.934	-0.0007
794.167	-0.0008
794.4	-0.0002
794.632	0.0008
794.865	0.0001
795.097	0.0008
795.33	-0
795.562	0.0001
795.795	0.001
796.027	-0.0005
796.259	-0.0015
796.491	-0.0017
796.724	-0.0008
796.956	0.0001
797.188	-0.0002
797.42	-0.0001
797.652	0.0004
797.883	0
798.115	-0.0006
798.347	-0.0007
798.579	-0.0015
798.81	-0.0026
799.042	-0.0024
799.274	-0.0013
799.505	-0.0012
799.737	0.0002
799.968	0.0008
800.199	0.001
800.431	0.0025
800.662	0.0025
800.893	0.0026
801.124	0.0023
801.355	0.0023
801.586	0.0034
801.817	0.0013
802.048	0.001
802.279	-0.0003
802.51	-0.0013
802.741	-0.0001
802.971	-0.0008
803.202	-0.0019
803.433	-0.0018
803.663	-0.0018
803.894	-0.0019
804.124	-0.0006
804.354	-0.0015
804.585	-0.0011
804.815	-0.0002
805.045	-0.0021
805.275	-0.0008
805.506	-0.0555
805.736	0.0374
805.966	0.3596
806.196	0.1751
