Data from 05 0.5 mM K2Cr2O7 0.2 mM BQDS 1 M H2SO4 21 h_Absorbance_0001.txt Node
Date: Fri Dec 10 12:46:15 EST 2021
User: kwabilab-user
Spectrometer: HDX00518
Trigger mode: 0
Integration Time (sec): 5.000000E-2
Scans to average: 50
Nonlinearity correction enabled: false
Boxcar width: 0
Storing dark spectrum: false
XAxis mode: Wavelengths
Number of Pixels in Spectrum: 2068
>>>>>Begin Spectral Data<<<<<
195.27	0.4158
195.642	0.3627
196.014	0.3867
196.386	0.4724
196.758	0.1203
197.129	0.076
197.501	0.1165
197.872	0.1308
198.244	0.162
198.615	0.1245
198.986	0.1461
199.357	0.1371
199.728	0.14
200.099	0.1406
200.47	0.1594
200.841	0.1522
201.212	0.1398
201.582	0.1521
201.953	0.1449
202.323	0.1515
202.694	0.1519
203.064	0.1418
203.434	0.1556
203.804	0.1502
204.174	0.1454
204.544	0.1518
204.914	0.1769
205.284	0.1661
205.653	0.1738
206.023	0.1777
206.393	0.1694
206.762	0.1557
207.131	0.1685
207.501	0.1496
207.87	0.1731
208.239	0.1504
208.608	0.1854
208.977	0.1567
209.346	0.181
209.715	0.1849
210.083	0.1818
210.452	0.1803
210.82	0.185
211.189	0.1966
211.557	0.192
211.925	0.1883
212.294	0.1893
212.662	0.1929
213.03	0.2047
213.398	0.2156
213.766	0.2076
214.133	0.2155
214.501	0.2273
214.869	0.2335
215.236	0.244
215.604	0.2431
215.971	0.279
216.338	0.2822
216.705	0.278
217.072	0.2994
217.439	0.299
217.806	0.3457
218.173	0.3693
218.54	0.3684
218.907	0.4134
219.273	0.4463
219.64	0.4858
220.006	0.5086
220.373	0.5145
220.739	0.5579
221.105	0.6086
221.471	0.6258
221.837	0.6803
222.203	0.7152
222.569	0.7552
222.935	0.7869
223.3	0.8187
223.666	0.8663
224.031	0.9046
224.397	0.9147
224.762	0.9461
225.127	0.9714
225.493	0.9881
225.858	1.0339
226.223	1.0536
226.588	1.0489
226.952	1.0583
227.317	1.0997
227.682	1.0903
228.046	1.0916
228.411	1.1051
228.775	1.1081
229.14	1.1094
229.504	1.1191
229.868	1.1244
230.232	1.1205
230.596	1.1081
230.96	1.118
231.324	1.1065
231.688	1.0972
232.052	1.1038
232.415	1.0873
232.779	1.0876
233.142	1.0726
233.505	1.0699
233.869	1.0639
234.232	1.0593
234.595	1.0412
234.958	1.0332
235.321	1.0278
235.684	1.017
236.047	1.0079
236.409	0.9909
236.772	0.9898
237.134	0.9775
237.497	0.967
237.859	0.9652
238.222	0.9552
238.584	0.9514
238.946	0.9409
239.308	0.929
239.67	0.9222
240.032	0.9132
240.393	0.906
240.755	0.9052
241.117	0.8947
241.478	0.8837
241.84	0.8785
242.201	0.8721
242.562	0.8643
242.924	0.8607
243.285	0.8528
243.646	0.8505
244.007	0.8428
244.368	0.8384
244.728	0.8299
245.089	0.8246
245.45	0.8214
245.81	0.8147
246.171	0.8159
246.531	0.8103
246.891	0.8077
247.252	0.8002
247.612	0.7963
247.972	0.7936
248.332	0.7923
248.692	0.7909
249.051	0.7849
249.411	0.785
249.771	0.779
250.13	0.7796
250.49	0.7756
250.849	0.7745
251.208	0.7723
251.568	0.7646
251.927	0.765
252.286	0.765
252.645	0.7633
253.004	0.7625
253.363	0.7584
253.721	0.7593
254.08	0.7571
254.439	0.7561
254.797	0.7535
255.155	0.7525
255.514	0.7511
255.872	0.7506
256.23	0.7503
256.588	0.7473
256.946	0.7461
257.304	0.7444
257.662	0.7458
258.02	0.7425
258.377	0.7416
258.735	0.7414
259.093	0.7367
259.45	0.7344
259.807	0.7372
260.165	0.7369
260.522	0.735
260.879	0.7319
261.236	0.7295
261.593	0.7309
261.95	0.7262
262.306	0.7267
262.663	0.7247
263.02	0.7235
263.376	0.7237
263.733	0.7206
264.089	0.7202
264.445	0.7154
264.802	0.7162
265.158	0.7166
265.514	0.7148
265.87	0.711
266.226	0.7095
266.581	0.7072
266.937	0.7057
267.293	0.7028
267.648	0.7038
268.004	0.7009
268.359	0.6972
268.714	0.6957
269.07	0.6926
269.425	0.691
269.78	0.6895
270.135	0.6873
270.49	0.6849
270.844	0.6836
271.199	0.6808
271.554	0.6804
271.908	0.6768
272.263	0.6741
272.617	0.6704
272.972	0.6683
273.326	0.6647
273.68	0.6639
274.034	0.6585
274.388	0.6558
274.742	0.6519
275.096	0.651
275.45	0.6475
275.803	0.6407
276.157	0.6394
276.51	0.6376
276.864	0.6327
277.217	0.6294
277.571	0.6237
277.924	0.6199
278.277	0.6195
278.63	0.6148
278.983	0.6108
279.336	0.6059
279.688	0.6017
280.041	0.5959
280.394	0.593
280.746	0.5873
281.099	0.5839
281.451	0.5792
281.803	0.5745
282.156	0.5683
282.508	0.5644
282.86	0.5596
283.212	0.5556
283.564	0.5504
283.916	0.5426
284.267	0.54
284.619	0.5322
284.971	0.5282
285.322	0.5231
285.673	0.5191
286.025	0.5122
286.376	0.5083
286.727	0.5018
287.078	0.4955
287.429	0.4892
287.78	0.4846
288.131	0.4792
288.482	0.4716
288.833	0.466
289.183	0.4612
289.534	0.4546
289.884	0.4501
290.235	0.4417
290.585	0.4369
290.935	0.4315
291.285	0.4261
291.635	0.4186
291.985	0.4135
292.335	0.407
292.685	0.4012
293.035	0.3952
293.384	0.389
293.734	0.3823
294.083	0.3776
294.433	0.3708
294.782	0.3656
295.131	0.3596
295.48	0.3545
295.829	0.3489
296.179	0.343
296.527	0.3366
296.876	0.3315
297.225	0.3256
297.574	0.3212
297.922	0.3149
298.271	0.3096
298.619	0.3043
298.968	0.2993
299.316	0.2945
299.664	0.2896
300.012	0.284
300.36	0.2803
300.708	0.2755
301.056	0.2714
301.404	0.2654
301.752	0.2619
302.099	0.258
302.447	0.2536
302.794	0.2499
303.142	0.2455
303.489	0.2419
303.836	0.2383
304.183	0.2349
304.531	0.2314
304.878	0.2284
305.224	0.2254
305.571	0.2218
305.918	0.2188
306.265	0.2159
306.611	0.2137
306.958	0.2111
307.304	0.2085
307.651	0.2059
307.997	0.2036
308.343	0.202
308.689	0.1994
309.035	0.1978
309.381	0.1962
309.727	0.195
310.073	0.1927
310.419	0.192
310.764	0.19
311.11	0.1891
311.455	0.1875
311.801	0.1869
312.146	0.1869
312.491	0.1853
312.837	0.1853
313.182	0.1837
313.527	0.184
313.872	0.1837
314.216	0.1833
314.561	0.183
314.906	0.1827
315.251	0.1827
315.595	0.1825
315.94	0.1829
316.284	0.1839
316.628	0.1835
316.972	0.1841
317.317	0.1844
317.661	0.1859
318.005	0.1856
318.348	0.1862
318.692	0.1869
319.036	0.1877
319.38	0.189
319.723	0.1901
320.067	0.1907
320.41	0.1918
320.754	0.1928
321.097	0.1943
321.44	0.1952
321.783	0.1976
322.126	0.1982
322.469	0.1999
322.812	0.2016
323.155	0.2031
323.498	0.2046
323.84	0.2072
324.183	0.2084
324.525	0.21
324.868	0.2113
325.21	0.2139
325.552	0.215
325.894	0.2171
326.236	0.2189
326.578	0.2212
326.92	0.223
327.262	0.2245
327.604	0.2261
327.946	0.2288
328.287	0.2301
328.629	0.2327
328.97	0.2348
329.312	0.2373
329.653	0.2389
329.994	0.2416
330.335	0.2428
330.676	0.2459
331.017	0.2481
331.358	0.2502
331.699	0.2526
332.04	0.2543
332.38	0.2573
332.721	0.2584
333.061	0.2614
333.402	0.2629
333.742	0.2654
334.083	0.2673
334.423	0.2691
334.763	0.271
335.103	0.2726
335.443	0.2745
335.783	0.2765
336.123	0.2781
336.462	0.2801
336.802	0.2825
337.141	0.2834
337.481	0.2854
337.82	0.2874
338.16	0.2888
338.499	0.2907
338.838	0.2932
339.177	0.2955
339.516	0.2963
339.855	0.2971
340.194	0.2995
340.533	0.3005
340.872	0.3027
341.21	0.3042
341.549	0.3052
341.887	0.3067
342.226	0.3077
342.564	0.3091
342.902	0.3092
343.24	0.3106
343.578	0.3112
343.916	0.3115
344.254	0.3129
344.592	0.3125
344.93	0.314
345.268	0.3137
345.605	0.3141
345.943	0.3148
346.28	0.3153
346.618	0.3162
346.955	0.3156
347.292	0.3161
347.629	0.3169
347.966	0.3179
348.303	0.3175
348.64	0.3182
348.977	0.3179
349.314	0.3179
349.65	0.3182
349.987	0.3185
350.324	0.3181
350.66	0.3178
350.996	0.3171
351.333	0.3169
351.669	0.3167
352.005	0.3154
352.341	0.3143
352.677	0.3134
353.013	0.312
353.349	0.3113
353.685	0.31
354.02	0.3086
354.356	0.307
354.691	0.3062
355.027	0.3048
355.362	0.3044
355.697	0.3026
356.033	0.3014
356.368	0.3004
356.703	0.2985
357.038	0.2975
357.373	0.297
357.707	0.2959
358.042	0.2946
358.377	0.2931
358.711	0.2917
359.046	0.2903
359.38	0.2889
359.715	0.288
360.049	0.2862
360.383	0.2842
360.717	0.2826
361.051	0.2806
361.385	0.2788
361.719	0.2772
362.053	0.2739
362.387	0.272
362.72	0.2712
363.054	0.2676
363.387	0.2657
363.721	0.2632
364.054	0.2611
364.387	0.2582
364.721	0.256
365.054	0.2528
365.387	0.251
365.72	0.2487
366.053	0.247
366.385	0.2453
366.718	0.2427
367.051	0.2408
367.383	0.2385
367.716	0.2367
368.048	0.2351
368.381	0.2329
368.713	0.2311
369.045	0.2291
369.377	0.228
369.709	0.2259
370.041	0.2241
370.373	0.2218
370.705	0.2195
371.037	0.2172
371.368	0.2159
371.7	0.2133
372.031	0.2107
372.363	0.2089
372.694	0.2059
373.025	0.2039
373.356	0.2008
373.688	0.1976
374.019	0.1949
374.35	0.1923
374.68	0.1903
375.011	0.1867
375.342	0.1844
375.673	0.1823
376.003	0.1798
376.334	0.1771
376.664	0.1755
376.995	0.173
377.325	0.1708
377.655	0.1687
377.985	0.1665
378.315	0.1641
378.645	0.1632
378.975	0.1608
379.305	0.1586
379.635	0.1572
379.964	0.1557
380.294	0.1537
380.623	0.1524
380.953	0.1495
381.282	0.1481
381.611	0.1468
381.941	0.1446
382.27	0.1434
382.599	0.141
382.928	0.1392
383.257	0.1374
383.585	0.1353
383.914	0.1329
384.243	0.1312
384.571	0.1291
384.9	0.1271
385.228	0.1247
385.557	0.1224
385.885	0.1203
386.213	0.1183
386.541	0.116
386.869	0.1138
387.197	0.1121
387.525	0.1089
387.853	0.1077
388.181	0.1059
388.508	0.1043
388.836	0.1017
389.164	0.1002
389.491	0.1004
389.818	0.0977
390.146	0.0955
390.473	0.0934
390.8	0.0927
391.127	0.0911
391.454	0.0902
391.781	0.0888
392.108	0.0875
392.435	0.0857
392.761	0.0849
393.088	0.0836
393.415	0.082
393.741	0.0815
394.067	0.0803
394.394	0.0787
394.72	0.0781
395.046	0.0769
395.372	0.0765
395.698	0.0749
396.024	0.0736
396.35	0.0726
396.676	0.0708
397.001	0.0703
397.327	0.0684
397.653	0.0681
397.978	0.0663
398.303	0.0658
398.629	0.0645
398.954	0.064
399.279	0.0627
399.604	0.0616
399.929	0.0605
400.254	0.0599
400.579	0.0599
400.904	0.0582
401.229	0.0578
401.553	0.0568
401.878	0.0564
402.202	0.0557
402.527	0.0545
402.851	0.0539
403.175	0.0534
403.5	0.0526
403.824	0.0523
404.148	0.0514
404.472	0.052
404.796	0.0509
405.119	0.0508
405.443	0.0504
405.767	0.0501
406.09	0.0509
406.414	0.0499
406.737	0.0492
407.061	0.0495
407.384	0.0486
407.707	0.049
408.03	0.0484
408.353	0.0483
408.676	0.0482
408.999	0.0479
409.322	0.0476
409.645	0.0481
409.968	0.0476
410.29	0.0475
410.613	0.0467
410.935	0.0475
411.258	0.0473
411.58	0.0471
411.902	0.0469
412.224	0.0473
412.546	0.0466
412.868	0.0473
413.19	0.0465
413.512	0.047
413.834	0.0463
414.156	0.0462
414.477	0.0465
414.799	0.0463
415.121	0.0477
415.442	0.0469
415.763	0.0472
416.085	0.0483
416.406	0.0468
416.727	0.0463
417.048	0.0472
417.369	0.0465
417.69	0.0476
418.011	0.0476
418.331	0.0476
418.652	0.0477
418.973	0.0477
419.293	0.048
419.614	0.0483
419.934	0.0491
420.254	0.0483
420.574	0.0483
420.895	0.048
421.215	0.0481
421.535	0.0478
421.855	0.0475
422.174	0.0482
422.494	0.0476
422.814	0.049
423.134	0.0483
423.453	0.0487
423.773	0.0487
424.092	0.0493
424.411	0.0485
424.731	0.0491
425.05	0.0498
425.369	0.0493
425.688	0.0497
426.007	0.0504
426.326	0.0504
426.644	0.0499
426.963	0.05
427.282	0.0503
427.6	0.0494
427.919	0.0502
428.237	0.0502
428.556	0.0511
428.874	0.0506
429.192	0.051
429.51	0.05
429.828	0.0512
430.146	0.0506
430.464	0.0511
430.782	0.0508
431.1	0.0506
431.418	0.0512
431.735	0.0512
432.053	0.0521
432.37	0.0517
432.688	0.0508
433.005	0.0523
433.322	0.052
433.639	0.0519
433.957	0.0527
434.274	0.0525
434.591	0.053
434.907	0.0528
435.224	0.0528
435.541	0.0529
435.858	0.0535
436.174	0.0531
436.491	0.0529
436.807	0.0523
437.124	0.0535
437.44	0.0531
437.756	0.0535
438.072	0.0528
438.388	0.0527
438.704	0.0526
439.02	0.0523
439.336	0.053
439.652	0.0535
439.968	0.0533
440.283	0.0529
440.599	0.0529
440.914	0.0528
441.23	0.0524
441.545	0.0525
441.86	0.0527
442.175	0.0529
442.491	0.0526
442.806	0.0528
443.121	0.0527
443.435	0.0526
443.75	0.0523
444.065	0.0523
444.38	0.0525
444.694	0.0528
445.009	0.0524
445.323	0.0521
445.638	0.0519
445.952	0.0521
446.266	0.0522
446.58	0.0521
446.894	0.0518
447.208	0.0519
447.522	0.0518
447.836	0.0515
448.15	0.0514
448.464	0.0513
448.777	0.0517
449.091	0.0515
449.404	0.0512
449.718	0.0509
450.031	0.0507
450.345	0.0499
450.658	0.0518
450.971	0.0508
451.284	0.0513
451.597	0.0515
451.91	0.0511
452.223	0.0508
452.535	0.0503
452.848	0.0509
453.161	0.0502
453.473	0.0496
453.786	0.0506
454.098	0.0497
454.411	0.0506
454.723	0.05
455.035	0.05
455.347	0.0494
455.659	0.0492
455.971	0.0483
456.283	0.0486
456.595	0.0484
456.907	0.0485
457.218	0.0485
457.53	0.0483
457.841	0.0474
458.153	0.0481
458.464	0.0476
458.776	0.0482
459.087	0.0473
459.398	0.0469
459.709	0.0465
460.02	0.0463
460.331	0.0466
460.642	0.0458
460.953	0.046
461.263	0.046
461.574	0.0457
461.885	0.0463
462.195	0.0451
462.506	0.0451
462.816	0.0448
463.126	0.0454
463.437	0.0447
463.747	0.0451
464.057	0.0447
464.367	0.0444
464.677	0.0432
464.987	0.044
465.296	0.043
465.606	0.0429
465.916	0.0422
466.225	0.0422
466.535	0.0428
466.844	0.0426
467.154	0.0413
467.463	0.0411
467.772	0.0406
468.081	0.0418
468.39	0.0401
468.699	0.0408
469.008	0.0409
469.317	0.0403
469.626	0.0402
469.935	0.0407
470.243	0.0394
470.552	0.0393
470.86	0.0386
471.169	0.0383
471.477	0.0392
471.785	0.0387
472.093	0.0388
472.402	0.0381
472.71	0.0382
473.018	0.0384
473.326	0.0375
473.633	0.0366
473.941	0.0372
474.249	0.0368
474.556	0.0359
474.864	0.0357
475.171	0.0355
475.479	0.0348
475.786	0.0354
476.094	0.0351
476.401	0.0353
476.708	0.0343
477.015	0.0345
477.322	0.0328
477.629	0.0336
477.936	0.0338
478.242	0.0337
478.549	0.033
478.856	0.0328
479.162	0.0322
479.469	0.0327
479.775	0.0325
480.081	0.0325
480.388	0.0306
480.694	0.0314
481	0.0304
481.306	0.0312
481.612	0.0303
481.918	0.0308
482.224	0.0308
482.53	0.0294
482.835	0.029
483.141	0.0293
483.446	0.0295
483.752	0.0288
484.057	0.0285
484.363	0.0286
484.668	0.0272
484.973	0.0266
485.278	0.0271
485.583	0.0257
485.888	0.0244
486.193	0.0241
486.498	0.0265
486.803	0.0268
487.107	0.0252
487.412	0.0251
487.717	0.0249
488.021	0.0252
488.325	0.0243
488.63	0.0247
488.934	0.0245
489.238	0.0228
489.542	0.023
489.846	0.0232
490.15	0.0219
490.454	0.0221
490.758	0.0224
491.062	0.0229
491.366	0.0225
491.669	0.0206
491.973	0.0221
492.276	0.022
492.58	0.0214
492.883	0.0213
493.186	0.0206
493.489	0.02
493.792	0.0199
494.096	0.0197
494.399	0.0195
494.701	0.0195
495.004	0.0196
495.307	0.0196
495.61	0.0206
495.912	0.0187
496.215	0.0179
496.517	0.017
496.82	0.0172
497.122	0.0181
497.424	0.0189
497.727	0.0173
498.029	0.0175
498.331	0.0165
498.633	0.0174
498.935	0.017
499.237	0.0167
499.538	0.0161
499.84	0.0163
500.142	0.016
500.443	0.0162
500.745	0.0155
501.046	0.0149
501.348	0.0143
501.649	0.0157
501.95	0.0156
502.251	0.014
502.552	0.0144
502.853	0.0144
503.154	0.0141
503.455	0.0144
503.756	0.0142
504.057	0.0137
504.357	0.0135
504.658	0.0139
504.958	0.013
505.259	0.0127
505.559	0.0128
505.859	0.0124
506.16	0.0127
506.46	0.012
506.76	0.0128
507.06	0.0114
507.36	0.0131
507.66	0.0117
507.96	0.0101
508.259	0.0098
508.559	0.0121
508.859	0.0116
509.158	0.0111
509.457	0.011
509.757	0.0103
510.056	0.0096
510.355	0.0101
510.655	0.0091
510.954	0.0087
511.253	0.0095
511.552	0.0083
511.851	0.0083
512.149	0.0079
512.448	0.0092
512.747	0.0087
513.045	0.0076
513.344	0.0086
513.642	0.0089
513.941	0.0084
514.239	0.0085
514.537	0.0085
514.836	0.0088
515.134	0.0079
515.432	0.0091
515.73	0.0081
516.028	0.0068
516.326	0.0076
516.623	0.0084
516.921	0.0078
517.219	0.0104
517.516	0.0082
517.814	0.0082
518.111	0.0065
518.409	0.0069
518.706	0.0075
519.003	0.0058
519.3	0.0062
519.597	0.0061
519.894	0.0064
520.191	0.0058
520.488	0.0064
520.785	0.0048
521.082	0.0048
521.378	0.0055
521.675	0.0051
521.971	0.0061
522.268	0.0067
522.564	0.0055
522.861	0.0055
523.157	0.0057
523.453	0.0064
523.749	0.0052
524.045	0.0038
524.341	0.0039
524.637	0.0039
524.933	0.0046
525.229	0.0051
525.524	0.004
525.82	0.0042
526.115	0.0039
526.411	0.0043
526.706	0.0036
527.002	0.0032
527.297	0.0038
527.592	0.0046
527.887	0.0035
528.182	0.003
528.477	0.0033
528.772	0.0034
529.067	0.0029
529.362	0.0029
529.657	0.0029
529.951	0.0033
530.246	0.0039
530.54	0.0033
530.835	0.0032
531.129	0.005
531.423	0.0031
531.718	0.0035
532.012	0.0021
532.306	0.0026
532.6	0.0032
532.894	0.0035
533.188	0.0024
533.482	0.0038
533.775	0.0028
534.069	0.0025
534.363	0.0017
534.656	0.0024
534.95	0.0022
535.243	0.0024
535.536	0.0024
535.83	0.0019
536.123	0.001
536.416	0.0031
536.709	0.0011
537.002	0.0007
537.295	0.0015
537.588	0.0021
537.881	0.0023
538.173	0.0018
538.466	0.0018
538.759	0.0009
539.051	0.0006
539.344	0.001
539.636	0.0012
539.928	0.0016
540.22	0.0019
540.513	0.0011
540.805	0.0013
541.097	0.0005
541.389	0.0012
541.681	0.0014
541.972	0.0011
542.264	0.0011
542.556	0.0018
542.847	0.0013
543.139	0.0009
543.431	0.0015
543.722	0.0007
544.013	0.0001
544.305	0.0013
544.596	0.0009
544.887	0.0006
545.178	0.0007
545.469	0.0003
545.76	0.0014
546.051	0.0007
546.342	0.0004
546.632	0.0013
546.923	0.0009
547.214	-0.0002
547.504	0.0005
547.795	0.0006
548.085	0.0018
548.375	0.0013
548.666	0.0009
548.956	0.0028
549.246	0.0013
549.536	0.0032
549.826	0.0017
550.116	0.0018
550.406	0.0017
550.695	0.002
550.985	0.0014
551.275	0.001
551.564	0.0008
551.854	0.0012
552.143	0.0013
552.433	0.0025
552.722	0.0007
553.011	0.0014
553.3	0.0017
553.589	0.0019
553.879	0.0003
554.167	0.0014
554.456	0.0014
554.745	0.0024
555.034	-0.0002
555.323	-0.0001
555.611	-0.0002
555.9	0.0015
556.188	0.0018
556.477	0.002
556.765	0.0031
557.053	0.0015
557.342	0.0012
557.63	0.0004
557.918	0.0005
558.206	0.0025
558.494	0.0028
558.782	0.0015
559.069	0.0033
559.357	0.0028
559.645	0.0025
559.932	0.0007
560.22	0.0019
560.507	0.001
560.795	0.0017
561.082	0.0005
561.37	0.0005
561.657	0.0016
561.944	-0.0001
562.231	0.0004
562.518	0.0009
562.805	0.0004
563.092	0
563.379	-0.0001
563.665	0.0002
563.952	0.001
564.239	0.0025
564.525	0.0011
564.811	0.0023
565.098	0.0014
565.384	0.0025
565.67	0.003
565.957	0.0024
566.243	0.002
566.529	0.0033
566.815	0.0023
567.101	0.001
567.387	0.0014
567.672	0.0009
567.958	0.0015
568.244	0.0013
568.529	0.0015
568.815	0.001
569.1	0.001
569.386	0.0015
569.671	0.0024
569.956	0.0016
570.242	0.0015
570.527	0.0027
570.812	0.0018
571.097	0.0014
571.382	0.0021
571.666	0.0022
571.951	0.0016
572.236	0.0015
572.521	0.0024
572.805	0.0022
573.09	-0.0001
573.374	-0.0018
573.659	0.0006
573.943	0.0018
574.227	0.0009
574.511	-0.0002
574.795	0.0012
575.079	0.0013
575.363	-0.0001
575.647	0.0019
575.931	0.0013
576.215	-0.0001
576.499	-0.0022
576.782	-0
577.066	-0.0003
577.349	0.0003
577.633	-0.0014
577.916	-0.0015
578.2	-0.0006
578.483	0.0011
578.766	0.0009
579.049	0.0021
579.332	0.0015
579.615	0.0001
579.898	0.0006
580.181	0.0012
580.464	0.0014
580.746	0.0006
581.029	0.0015
581.312	-0.0014
581.594	-0.0025
581.877	0.0018
582.159	0.002
582.441	0.0008
582.724	0.0015
583.006	0.0018
583.288	0.0007
583.57	0.0018
583.852	0.0005
584.134	-0.0009
584.416	-0.0009
584.697	-0.0011
584.979	-0.0013
585.261	-0.0021
585.542	0.0006
585.824	-0.0005
586.105	-0.0003
586.387	0.0001
586.668	-0.0012
586.949	-0.0008
587.231	-0.0002
587.512	0.0001
587.793	0.0003
588.074	0.0011
588.355	0.0002
588.636	-0.0001
588.916	0.0011
589.197	0.0013
589.478	0.0006
589.758	0.0002
590.039	0.0001
590.319	0.0006
590.6	0.0005
590.88	-0.0002
591.16	0.0004
591.441	-0.0008
591.721	0.0006
592.001	0
592.281	0.0007
592.561	-0.0003
592.841	-0.0021
593.12	0.0005
593.4	0.0011
593.68	0.0006
593.959	0.0016
594.239	0.0016
594.518	0.0026
594.798	0
595.077	0.0003
595.356	0.0003
595.636	-0.0001
595.915	0.001
596.194	0.0009
596.473	0
596.752	0
597.031	-0.0015
597.31	-0.0019
597.588	0.0009
597.867	-0.0003
598.146	0.0013
598.424	0.0006
598.703	-0.0014
598.981	-0.0021
599.259	-0.0002
599.538	0.0022
599.816	0.0005
600.094	-0.0012
600.372	-0.0001
600.65	0.0008
600.928	0.001
601.206	-0.0015
601.484	0.0006
601.762	0.0008
602.04	-0.0008
602.317	0.0005
602.595	0.001
602.872	0.0003
603.15	0.0002
603.427	-0.0009
603.704	0.0013
603.982	0.0009
604.259	-0.0002
604.536	0.0005
604.813	0.0012
605.09	-0.0007
605.367	-0.0024
605.644	-0.0011
605.921	-0.0012
606.197	-0.0019
606.474	0.0016
606.751	-0.0016
607.027	-0.0009
607.304	-0.001
607.58	-0.0002
607.856	0.0003
608.133	0.0015
608.409	0
608.685	-0.0003
608.961	-0.0004
609.237	0.0003
609.513	0.0002
609.789	-0.001
610.065	-0.0014
610.341	0.0003
610.616	0.002
610.892	0.0004
611.167	0.0001
611.443	0.0002
611.718	-0.0004
611.994	-0
612.269	0.0014
612.544	0.0002
612.819	0.0002
613.095	0.0004
613.37	0.0008
613.645	0.0009
613.919	0.0012
614.194	0.0007
614.469	0.0001
614.744	-0.0006
615.019	0.0004
615.293	0.0004
615.568	-0.0001
615.842	0.0004
616.116	0.0019
616.391	0.0014
616.665	0.0003
616.939	0.0012
617.213	0.0019
617.488	0.0021
617.762	0.0011
618.035	-0.0003
618.309	-0.001
618.583	0.0006
618.857	-0
619.131	-0.0014
619.404	-0.0003
619.678	0.0006
619.951	-0.0004
620.225	0.0006
620.498	0.0024
620.771	0.0001
621.045	0.0014
621.318	0.0012
621.591	-0.0013
621.864	-0.0014
622.137	-0.0009
622.41	0.0005
622.683	0.0014
622.956	0.0001
623.228	-0.0009
623.501	0.0003
623.774	0.0001
624.046	0.0002
624.319	0.0009
624.591	-0.0003
624.863	0.0008
625.136	0.0017
625.408	0.0017
625.68	0.0002
625.952	0.0013
626.224	0.0002
626.496	-0.0006
626.768	0.0002
627.04	-0.0012
627.311	-0.0016
627.583	-0.001
627.855	-0.0004
628.126	-0.0019
628.398	-0.0012
628.669	-0.0019
628.941	-0.001
629.212	-0.0019
629.483	-0.0006
629.755	-0.0003
630.026	0.0001
630.297	-0.0001
630.568	-0.0005
630.839	0.0004
631.11	-0.0003
631.38	-0.0014
631.651	-0.0014
631.922	-0.0017
632.192	-0.0007
632.463	-0.0008
632.733	-0.0016
633.004	-0.0016
633.274	-0.0013
633.545	0.0003
633.815	0.0006
634.085	-0.0007
634.355	0.0002
634.625	0.0005
634.895	0.0022
635.165	0.0011
635.435	0.0019
635.705	-0.0005
635.974	-0.0018
636.244	-0.0019
636.514	-0.0016
636.783	-0.0018
637.053	-0.0002
637.322	-0.0002
637.591	-0.0012
637.861	-0.0017
638.13	0.0011
638.399	0.0007
638.668	0.0003
638.937	-0.0011
639.206	0.0008
639.475	0.001
639.744	0.0001
640.013	0.0001
640.281	0.0009
640.55	-0.0007
640.819	0.0017
641.087	0.0024
641.356	0.002
641.624	0.002
641.892	-0.0004
642.161	-0.0004
642.429	-0.0004
642.697	-0.0013
642.965	-0.0001
643.233	-0.0009
643.501	0
643.769	-0.0007
644.037	-0.0008
644.305	-0.0011
644.572	-0.0004
644.84	-0.0017
645.108	-0.0019
645.375	-0.0033
645.643	-0.0038
645.91	-0.0022
646.177	-0.0013
646.445	-0.0025
646.712	-0.0014
646.979	-0.0007
647.246	0.0006
647.513	0.0014
647.78	0.0025
648.047	0.0016
648.314	0.0013
648.58	0.0014
648.847	0.0032
649.114	0.0015
649.38	-0.0006
649.647	0.0013
649.913	0.0016
650.18	0.0012
650.446	0.0011
650.712	0.0015
650.978	0.0004
651.245	0.0016
651.511	0.0022
651.777	0.0018
652.043	0.0017
652.309	0.0005
652.574	0.0008
652.84	-0.0003
653.106	-0.0011
653.371	-0.0005
653.637	-0.002
653.903	-0.0003
654.168	-0.0007
654.433	0.0003
654.699	0.0006
654.964	0.0003
655.229	-0.001
655.494	-0.0031
655.759	-0.0105
656.024	0.0005
656.289	-0
656.554	0.0068
656.819	0.0029
657.084	0.0012
657.349	-0.0008
657.613	-0.0006
657.878	-0.0017
658.142	-0.0024
658.407	-0.0006
658.671	-0.0009
658.936	0.0001
659.2	0.0014
659.464	0.0012
659.728	-0.0002
659.992	-0.0004
660.256	0.0006
660.52	0.0001
660.784	-0.0003
661.048	0.0007
661.312	0.0008
661.575	-0.0003
661.839	-0.0007
662.103	-0.0016
662.366	-0.0018
662.63	-0.0007
662.893	0.0007
663.156	0.0003
663.42	0.0002
663.683	0.0002
663.946	-0.001
664.209	-0.001
664.472	-0.0006
664.735	-0.0008
664.998	-0.0001
665.261	-0.0007
665.524	-0.0009
665.786	-0.0009
666.049	0.0007
666.312	-0.0001
666.574	-0.0003
666.837	-0.0012
667.099	-0.0015
667.361	-0.0023
667.624	-0.0033
667.886	-0.0015
668.148	-0.0015
668.41	-0.0005
668.672	-0.0013
668.934	-0.0014
669.196	-0.0024
669.458	-0.0023
669.72	-0.0018
669.982	-0.0022
670.243	-0.0019
670.505	-0.0017
670.766	-0.0016
671.028	-0.0011
671.289	-0.0009
671.551	-0.0026
671.812	-0.0025
672.073	0.0001
672.334	-0.0023
672.596	-0.0011
672.857	-0.0004
673.118	0.0011
673.379	-0.0001
673.639	-0.0003
673.9	-0.0009
674.161	-0.0008
674.422	-0.0008
674.682	-0.0014
674.943	-0.001
675.203	0.0006
675.464	0.0011
675.724	0.0015
675.985	0.0018
676.245	0.0013
676.505	-0.0011
676.765	0
677.025	-0
677.285	-0.0007
677.545	-0.0001
677.805	-0.0029
678.065	-0.0014
678.325	0.0001
678.585	-0.0021
678.844	-0.0029
679.104	-0.0019
679.363	-0.0039
679.623	-0.0033
679.882	-0.003
680.142	-0.0018
680.401	-0.0002
680.66	0.0004
680.919	0.0006
681.178	0.0003
681.437	-0.0017
681.696	-0.0027
681.955	-0.0009
682.214	-0.0018
682.473	-0.0015
682.732	-0.0012
682.99	-0.0035
683.249	-0.0026
683.508	-0.0032
683.766	-0.0039
684.024	-0.0022
684.283	-0.0034
684.541	-0.0031
684.799	-0.0019
685.058	-0.0032
685.316	-0.0039
685.574	-0.0039
685.832	-0.0036
686.09	-0.0026
686.348	-0.0035
686.606	-0.0027
686.863	-0.0024
687.121	-0.003
687.379	-0.0052
687.636	-0.0047
687.894	-0.0031
688.151	-0.0039
688.409	-0.0029
688.666	-0.0029
688.923	-0.0029
689.181	-0.0027
689.438	-0.0016
689.695	-0.0023
689.952	-0.0002
690.209	-0.0009
690.466	-0.0012
690.723	-0.0021
690.979	-0.0036
691.236	-0.0042
691.493	-0.0036
691.75	-0.0032
692.006	-0.0013
692.263	-0.0021
692.519	-0.0017
692.775	-0.003
693.032	-0.0017
693.288	-0.0037
693.544	-0.0031
693.8	-0.0018
694.056	-0.0017
694.313	-0.0016
694.568	-0.0002
694.824	-0.0011
695.08	-0.0007
695.336	-0.0019
695.592	-0.0042
695.847	-0.0024
696.103	-0.0043
696.359	-0.0041
696.614	-0.0048
696.869	-0.0057
697.125	-0.0068
697.38	-0.0022
697.635	-0.0036
697.891	-0.0025
698.146	-0.004
698.401	-0.0044
698.656	-0.0044
698.911	-0.003
699.166	-0.0051
699.42	-0.0046
699.675	-0.0051
699.93	-0.0046
700.185	-0.0031
700.439	-0.0023
700.694	-0.0009
700.948	-0.0018
701.203	-0.0015
701.457	-0.0014
701.711	-0.0023
701.965	-0.0034
702.22	-0.0024
702.474	-0.0021
702.728	-0.0026
702.982	-0.0018
703.236	-0.0018
703.49	-0.0018
703.743	-0.0021
703.997	-0.002
704.251	-0.0013
704.504	-0.0024
704.758	-0.0016
705.012	-0.0018
705.265	-0.0013
705.518	-0.0025
705.772	-0.0035
706.025	-0.0041
706.278	-0.0046
706.531	-0.0047
706.785	-0.0045
707.038	-0.0043
707.291	-0.0029
707.543	-0.0056
707.796	-0.0033
708.049	-0.0045
708.302	-0.0026
708.555	-0.0015
708.807	0.001
709.06	-0.001
709.312	0.0009
709.565	0.0007
709.817	-0.0005
710.069	-0.0002
710.322	-0.0014
710.574	-0.0013
710.826	-0.0027
711.078	-0.001
711.33	-0.0005
711.582	-0.0002
711.834	-0.0008
712.086	-0.0001
712.338	-0.0011
712.59	-0.0024
712.841	-0.0054
713.093	-0.0021
713.344	-0.0044
713.596	-0.0036
713.847	-0.0017
714.099	-0.0012
714.35	-0.0028
714.601	-0.0031
714.853	-0.0033
715.104	-0.0041
715.355	-0.007
715.606	-0.0038
715.857	-0.0049
716.108	-0.0044
716.359	-0.0045
716.609	-0.0042
716.86	-0.0038
717.111	-0.0041
717.361	-0.0043
717.612	-0.0045
717.863	-0.0045
718.113	-0.0052
718.363	-0.0068
718.614	-0.003
718.864	-0.0036
719.114	-0.0045
719.364	-0.0058
719.614	-0.0064
719.865	-0.0055
720.114	-0.0067
720.364	-0.0066
720.614	-0.0073
720.864	-0.0086
721.114	-0.007
721.364	-0.0066
721.613	-0.0052
721.863	-0.0061
722.112	-0.0056
722.362	-0.0072
722.611	-0.005
722.86	-0.0057
723.11	-0.0059
723.359	-0.0057
723.608	-0.0054
723.857	-0.0051
724.106	-0.004
724.355	-0.0036
724.604	-0.0035
724.853	-0.004
725.102	-0.0047
725.351	-0.0034
725.599	-0.0024
725.848	-0.0014
726.097	-0.0015
726.345	-0.0015
726.594	-0.0011
726.842	-0.0013
727.09	-0.0024
727.339	-0.0043
727.587	-0.0035
727.835	-0.0048
728.083	-0.0047
728.331	-0.0063
728.579	-0.0044
728.827	-0.0034
729.075	-0.0048
729.323	-0.0036
729.571	-0.0034
729.818	-0.0041
730.066	-0.0038
730.314	-0.0046
730.561	-0.0048
730.809	-0.0083
731.056	-0.0071
731.303	-0.0035
731.551	-0.0039
731.798	-0.0054
732.045	-0.0035
732.292	-0.0023
732.539	-0.0041
732.786	-0.0041
733.033	-0.0029
733.28	-0.0024
733.527	-0.0028
733.774	-0.0035
734.021	-0.0026
734.267	-0.0023
734.514	-0.0033
734.76	-0.0009
735.007	-0.0015
735.253	-0.0024
735.5	-0.0027
735.746	-0.0031
735.992	-0.0042
736.238	-0.0044
736.485	-0.0048
736.731	-0.0042
736.977	-0.0059
737.223	-0.0044
737.469	-0.0033
737.715	-0.0004
737.96	0.0006
738.206	0.0018
738.452	0.0038
738.697	0.0035
738.943	0.0036
739.189	0.0011
739.434	0.0016
739.679	0.0024
739.925	0.003
740.17	0.0016
740.415	0.0009
740.66	0.0004
740.906	0.0017
741.151	0.0027
741.396	0.0024
741.641	0.0009
741.886	0.0006
742.13	-0.0003
742.375	0
742.62	-0.0023
742.865	-0.0023
743.109	-0.0019
743.354	-0.0018
743.598	-0.0009
743.843	-0.0006
744.087	-0
744.331	-0.0009
744.576	-0.0012
744.82	-0.0023
745.064	-0.0022
745.308	-0.0017
745.552	-0.0015
745.796	-0.001
746.04	-0.0006
746.284	-0.0015
746.528	-0.0012
746.771	-0.0019
747.015	-0.0024
747.259	-0.0029
747.502	-0.001
747.746	0.0008
747.989	-0.0007
748.233	-0.0012
748.476	-0.0022
748.719	-0.0043
748.963	-0.004
749.206	-0.0038
749.449	-0.0046
749.692	-0.0021
749.935	-0.0015
750.178	-0.0022
750.421	-0.0024
750.664	-0.0028
750.906	-0.0019
751.149	-0.0011
751.392	-0.0002
751.635	-0.0006
751.877	0.002
752.12	0.0004
752.362	0.0008
752.604	0.0013
752.847	0.0024
753.089	0.0018
753.331	0.0012
753.573	-0.0009
753.816	0.0007
754.058	0.0006
754.3	0.0023
754.542	0.003
754.783	0.0014
755.025	0.0018
755.267	0.001
755.509	-0.0003
755.75	-0.0013
755.992	0.0001
756.234	0.0003
756.475	-0.0009
756.716	-0.0016
756.958	-0.0016
757.199	0.0008
757.44	-0.0023
757.682	-0.0045
757.923	-0.0008
758.164	0.0001
758.405	-0.0001
758.646	0.0017
758.887	0.0022
759.128	0.0009
759.369	-0.0008
759.609	-0.0004
759.85	-0.0009
760.091	0.0001
760.331	-0.0013
760.572	-0.002
760.812	-0.0025
761.053	-0.0016
761.293	-0.0019
761.533	-0.0024
761.774	0
762.014	-0.0012
762.254	-0.0018
762.494	-0.0013
762.734	-0.0008
762.974	-0.0018
763.214	-0.0011
763.454	-0.0028
763.694	-0.0024
763.933	-0.0008
764.173	-0.0009
764.413	-0.0025
764.652	-0.0036
764.892	-0.0037
765.131	-0.0041
765.371	-0.0037
765.61	-0.003
765.849	-0.0036
766.089	-0.0022
766.328	-0.0016
766.567	-0.0003
766.806	-0.0005
767.045	-0.001
767.284	-0.0002
767.523	0
767.762	-0.0008
768.001	-0.0026
768.239	-0.0026
768.478	-0.0019
768.717	-0.0027
768.955	-0.0031
769.194	-0.0006
769.432	0.0003
769.671	-0
769.909	0.0006
770.148	-0.0004
770.386	-0.001
770.624	-0.0029
770.862	-0.0017
771.1	-0.001
771.338	-0.0025
771.576	-0.0008
771.814	-0.0007
772.052	-0.0023
772.29	-0.0029
772.528	-0.003
772.765	-0.0023
773.003	-0.0027
773.24	-0.0017
773.478	-0.0005
773.716	0.0006
773.953	0.0001
774.19	0.0015
774.428	0.0006
774.665	0.0014
774.902	0.0005
775.139	0.0013
775.376	0.0005
775.613	0.0006
775.85	0.0007
776.087	0.0004
776.324	-0
776.561	0.0011
776.798	0.0025
777.034	0.0039
777.271	0.0034
777.508	0.0035
777.744	0.0036
777.981	0.0042
778.217	0.0044
778.454	0.0034
778.69	0.0032
778.926	0.0025
779.162	0.0014
779.399	-0.0011
779.635	-0.001
779.871	-0.0014
780.107	-0.0019
780.343	-0.0023
780.579	-0.0015
780.814	-0.0027
781.05	-0.0031
781.286	-0.0035
781.522	-0.0009
781.757	0.0003
781.993	0.0007
782.228	0.002
782.464	0.0012
782.699	0.0001
782.934	-0.0008
783.17	0.0002
783.405	0.0002
783.64	-0.0024
783.875	-0.0023
784.11	-0.0016
784.345	-0.0019
784.58	-0.0021
784.815	-0.0013
785.05	-0.0026
785.285	-0.0017
785.52	-0.0011
785.754	0.001
785.989	-0.0008
786.223	0.001
786.458	0.002
786.692	0.0026
786.927	0.0039
787.161	0.0035
787.396	0.0034
787.63	0.0039
787.864	0.0035
788.098	0.0038
788.332	0.0018
788.566	0.0013
788.8	0.0009
789.034	0.0006
789.268	0.0017
789.502	0.0016
789.736	0.0015
789.969	0.0011
790.203	0.0002
790.437	0.0001
790.67	0.0006
790.904	-0.0002
791.137	0.0004
791.37	-0.0001
791.604	-0.0003
791.837	-0.0016
792.07	0.0004
792.303	-0.0007
792.537	-0.0015
792.77	-0.0034
793.003	-0.004
793.236	-0.0043
793.469	-0.0027
793.701	-0.0029
793.934	-0.0043
794.167	-0.0041
794.4	-0.0031
794.632	-0.0012
794.865	-0.0007
795.097	-0.0019
795.33	-0.0027
795.562	-0.0009
795.795	0.0005
796.027	-0.0004
796.259	-0.0001
796.491	0.0002
796.724	0.0019
796.956	0.0035
797.188	0.0029
797.42	0.0028
797.652	0.0019
797.883	0.0014
798.115	0.0022
798.347	0.0017
798.579	0.0008
798.81	-0.0003
799.042	-0.0009
799.274	-0.0003
799.505	-0.0007
799.737	-0.0009
799.968	-0.0006
800.199	-0.0007
800.431	0.0005
800.662	0.0011
800.893	0.0022
801.124	0.0022
801.355	0.0028
801.586	0.0038
801.817	0.0017
802.048	0.0008
802.279	-0.0005
802.51	-0.0019
802.741	-0.0007
802.971	-0.0009
803.202	-0.001
803.433	-0.0009
803.663	-0.0008
803.894	0.0003
804.124	0.0004
804.354	0.0007
804.585	0.0019
804.815	0.0023
805.045	0.0008
805.275	0.0022
805.506	-0.0847
805.736	0.1177
805.966	0.3053
806.196	0.2122
